*CPCWIN*

>1	DATALINE
DATALINE
1
Operator:

Description:

Remarks:





15.9.2008
11:10


_x	_y
	
	
UNIT	UNIT
 4.50500000000000E+0002	 1.42250702947846E-0001	
 4.52500000000000E+0002	 1.44552838486910E-0001	
 4.54500000000000E+0002	 1.48322974025974E-0001	
 4.56500000000000E+0002	 1.51555109565038E-0001	
 4.58500000000000E+0002	 1.53997245104102E-0001	
 4.60500000000000E+0002	 1.56493380643166E-0001	
 4.62500000000000E+0002	 1.59941016182230E-0001	
 4.64500000000000E+0002	 1.64152151721295E-0001	
 4.66500000000000E+0002	 1.64578787260359E-0001	
 4.68500000000000E+0002	 1.65290922799423E-0001	
 4.70500000000000E+0002	 1.69192558338487E-0001	
 4.72500000000000E+0002	 1.73086193877551E-0001	
 4.74500000000000E+0002	 1.75992329416615E-0001	
 4.76500000000000E+0002	 1.78335464955679E-0001	
 4.78500000000000E+0002	 1.81658600494743E-0001	
 4.80500000000000E+0002	 1.84928736033807E-0001	
 4.82500000000000E+0002	 1.87689371572872E-0001	
 4.84500000000000E+0002	 1.89819007111936E-0001	
 4.86500000000000E+0002	 1.92016642651000E-0001	
 4.88500000000000E+0002	 1.95496278190064E-0001	
 4.90500000000000E+0002	 1.97826913729128E-0001	
 4.92500000000000E+0002	 2.00266049268192E-0001	
 4.94500000000000E+0002	 2.04239684807256E-0001	
 4.96500000000000E+0002	 2.08071820346320E-0001	
 4.98500000000000E+0002	 2.10880955885384E-0001	
 5.00500000000000E+0002	 2.12284591424449E-0001	
 5.02500000000000E+0002	 2.14694726963513E-0001	
 5.04500000000000E+0002	 2.19672862502577E-0001	
 5.06500000000000E+0002	 2.24062498041641E-0001	
 5.08500000000000E+0002	 2.27400633580705E-0001	
 5.10500000000000E+0002	 2.30881269119769E-0001	
 5.12500000000000E+0002	 2.35234904658833E-0001	
 5.14500000000000E+0002	 2.38646540197897E-0001	
 5.16500000000000E+0002	 2.41055175736961E-0001	
 5.18500000000000E+0002	 2.44633811276026E-0001	
 5.20500000000000E+0002	 2.49696946815090E-0001	
 5.22500000000000E+0002	 2.54148582354154E-0001	
 5.24500000000000E+0002	 2.56334217893218E-0001	
 5.26500000000000E+0002	 2.58650853432282E-0001	
 5.28500000000000E+0002	 2.62624488971346E-0001	
 5.30500000000000E+0002	 2.66069624510410E-0001	
 5.32500000000000E+0002	 2.68030760049474E-0001	
 5.34500000000000E+0002	 2.69245895588538E-0001	
 5.36500000000000E+0002	 2.70120031127603E-0001	
 5.38500000000000E+0002	 2.70472166666667E-0001	
 5.40500000000000E+0002	 2.70270802205731E-0001	
 5.42500000000000E+0002	 2.69742937744795E-0001	
 5.44500000000000E+0002	 2.68736073283859E-0001	
 5.46500000000000E+0002	 2.67355708822923E-0001	
 5.48500000000000E+0002	 2.66058344361987E-0001	
 5.50500000000000E+0002	 2.65189479901051E-0001	
 5.52500000000000E+0002	 2.64866115440115E-0001	
 5.54500000000000E+0002	 2.64050250979180E-0001	
 5.56500000000000E+0002	 2.62863886518244E-0001	
 5.58500000000000E+0002	 2.61809022057308E-0001	
 5.60500000000000E+0002	 2.60876157596372E-0001	
 5.62500000000000E+0002	 2.59794793135436E-0001	
 5.64500000000000E+0002	 2.58653928674500E-0001	
 5.66500000000000E+0002	 2.57239564213564E-0001	
 5.68500000000000E+0002	 2.55892699752628E-0001	
 5.70500000000000E+0002	 2.55030835291692E-0001	
 5.72500000000000E+0002	 2.54574470830757E-0001	
 5.74500000000000E+0002	 2.53632106369821E-0001	
 5.76500000000000E+0002	 2.52581741908885E-0001	
 5.78500000000000E+0002	 2.51922377447949E-0001	
 5.80500000000000E+0002	 2.50751012987013E-0001	
 5.82500000000000E+0002	 2.49999648526077E-0001	
 5.84500000000000E+0002	 2.49508784065141E-0001	
 5.86500000000000E+0002	 2.49415919604205E-0001	
 5.88500000000000E+0002	 2.49290055143269E-0001	
 5.90500000000000E+0002	 2.48492190682334E-0001	
 5.92500000000000E+0002	 2.48443326221398E-0001	
 5.94500000000000E+0002	 2.49714961760462E-0001	
 5.96500000000000E+0002	 2.50808097299526E-0001	
 5.98500000000000E+0002	 2.50820732838590E-0001	
 6.00500000000000E+0002	 2.50802368377654E-0001	
 6.02500000000000E+0002	 2.51514003916718E-0001	
 6.04500000000000E+0002	 2.51970639455782E-0001	
 6.06500000000000E+0002	 2.52324274994846E-0001	
 6.08500000000000E+0002	 2.52793410533911E-0001	
 6.10500000000000E+0002	 2.53300046072975E-0001	
 6.12500000000000E+0002	 2.53834181612039E-0001	
 6.14500000000000E+0002	 2.54161317151103E-0001	
 6.16500000000000E+0002	 2.54397952690167E-0001	
 6.18500000000000E+0002	 2.54639588229231E-0001	
 6.20500000000000E+0002	 2.54530723768295E-0001	
 6.22500000000000E+0002	 2.54218359307359E-0001	
 6.24500000000000E+0002	 2.53481994846423E-0001	
 6.26500000000000E+0002	 2.52873630385488E-0001	
 6.28500000000000E+0002	 2.52529765924552E-0001	
 6.30500000000000E+0002	 2.51716401463616E-0001	
 6.32500000000000E+0002	 2.50548537002680E-0001	
 6.34500000000000E+0002	 2.49425172541744E-0001	
 6.36500000000000E+0002	 2.49141808080808E-0001	
 6.38500000000000E+0002	 2.49251943619872E-0001	
 6.40500000000000E+0002	 2.49347079158936E-0001	
 6.42500000000000E+0002	 2.49474714698000E-0001	
 6.44500000000000E+0002	 2.49332850237065E-0001	
 6.46500000000000E+0002	 2.49144485776129E-0001	
 6.48500000000000E+0002	 2.48832121315193E-0001	
 6.50500000000000E+0002	 2.48316756854257E-0001	
 6.52500000000000E+0002	 2.47953892393321E-0001	
 6.54500000000000E+0002	 2.47686527932385E-0001	
 6.56500000000000E+0002	 2.47324663471449E-0001	
 6.58500000000000E+0002	 2.46748799010513E-0001	
 6.60500000000000E+0002	 2.46139434549577E-0001	
 6.62500000000000E+0002	 2.45565570088642E-0001	
 6.64500000000000E+0002	 2.45393205627706E-0001	
 6.66500000000000E+0002	 2.46221841166770E-0001	
 6.68500000000000E+0002	 2.44906976705834E-0001	
 6.70500000000000E+0002	 2.41352112244898E-0001	
 6.72500000000000E+0002	 2.39507747783962E-0001	
 6.74500000000000E+0002	 2.38083383323026E-0001	
 6.76500000000000E+0002	 2.36598518862090E-0001	
 6.78500000000000E+0002	 2.35186654401154E-0001	
 6.80500000000000E+0002	 2.33871289940219E-0001	
 6.82500000000000E+0002	 2.32535425479283E-0001	
 6.84500000000000E+0002	 2.31240061018347E-0001	
 6.86500000000000E+0002	 2.29939196557411E-0001	
 6.88500000000000E+0002	 2.28626832096475E-0001	
 6.90500000000000E+0002	 2.27975967635539E-0001	
 6.92500000000000E+0002	 2.27864603174603E-0001	
 6.94500000000000E+0002	 2.27860738713667E-0001	
 6.96500000000000E+0002	 2.27957374252731E-0001	
 6.98500000000000E+0002	 2.27899509791796E-0001	
 7.00500000000000E+0002	 2.27220645330860E-0001	
 7.02500000000000E+0002	 2.25413780869924E-0001	
 7.04500000000000E+0002	 2.22664416408988E-0001	
 7.06500000000000E+0002	 2.19713551948052E-0001	
 7.08500000000000E+0002	 2.16944687487116E-0001	
 7.10500000000000E+0002	 2.14342823026180E-0001	
 7.12500000000000E+0002	 2.11950458565244E-0001	
 7.14500000000000E+0002	 2.09890094104308E-0001	
 7.16500000000000E+0002	 2.08179229643373E-0001	
 7.18500000000000E+0002	 2.06453365182437E-0001	
 7.20500000000000E+0002	 2.04745000721501E-0001	
 7.22500000000000E+0002	 2.02924636260565E-0001	
 7.24500000000000E+0002	 2.00645771799629E-0001	
 7.26500000000000E+0002	 1.97847907338693E-0001	
 7.28500000000000E+0002	 1.94828542877757E-0001	
 7.30500000000000E+0002	 1.91920178416821E-0001	
 7.32500000000000E+0002	 1.89487813955885E-0001	
 7.34500000000000E+0002	 1.87463949494949E-0001	
 7.36500000000000E+0002	 1.85909085034014E-0001	
 7.38500000000000E+0002	 1.84685720573078E-0001	
 7.40500000000000E+0002	 1.83655356112142E-0001	
 7.42500000000000E+0002	 1.82636491651206E-0001	
 7.44500000000000E+0002	 1.81518127190270E-0001	
 7.46500000000000E+0002	 1.80342762729334E-0001	
 7.48500000000000E+0002	 1.78985398268398E-0001	
 7.50500000000000E+0002	 1.77403533807462E-0001	
 7.52500000000000E+0002	 1.75784669346526E-0001	
 7.54500000000000E+0002	 1.74199804885591E-0001	
 7.56500000000000E+0002	 1.72712440424655E-0001	
 7.58500000000000E+0002	 1.71308075963719E-0001	
 7.60500000000000E+0002	 1.70168711502783E-0001	
 7.62500000000000E+0002	 1.69463847041847E-0001	
 7.64500000000000E+0002	 1.69156982580911E-0001	
 7.66500000000000E+0002	 1.68708618119975E-0001	
 7.68500000000000E+0002	 1.67919253659039E-0001	
 7.70500000000000E+0002	 1.67125889198103E-0001	
 7.72500000000000E+0002	 1.66865524737168E-0001	
 7.74500000000000E+0002	 1.67416660276232E-0001	
 7.76500000000000E+0002	 1.69024295815296E-0001	
 7.78500000000000E+0002	 1.71094431354360E-0001	
 7.80500000000000E+0002	 1.71666566893424E-0001	
 7.82500000000000E+0002	 1.69810702432488E-0001	
 7.84500000000000E+0002	 1.66954837971552E-0001	
 7.86500000000000E+0002	 1.64222973510616E-0001	
 7.88500000000000E+0002	 1.61805109049680E-0001	
 7.90500000000000E+0002	 1.59853744588745E-0001	
 7.92500000000000E+0002	 1.58850880127809E-0001	
 7.94500000000000E+0002	 1.58810015666873E-0001	
 7.96500000000000E+0002	 1.59056151205937E-0001	
 7.98500000000000E+0002	 1.58580786745001E-0001	
 8.00500000000000E+0002	 1.57474922284065E-0001	
 8.02500000000000E+0002	 1.56734557823129E-0001	
 8.04500000000000E+0002	 1.57053193362193E-0001	
 8.06500000000000E+0002	 1.57950328901257E-0001	
 8.08500000000000E+0002	 1.58885964440322E-0001	
 8.10500000000000E+0002	 1.59295599979386E-0001	
 8.12500000000000E+0002	 1.59058235518450E-0001	
 8.14500000000000E+0002	 1.58325371057514E-0001	
 8.16500000000000E+0002	 1.57468506596578E-0001	
 8.18500000000000E+0002	 1.56443142135642E-0001	
 8.20500000000000E+0002	 1.55314777674706E-0001	
 8.22500000000000E+0002	 1.54155413213770E-0001	
 8.24500000000000E+0002	 1.53240548752834E-0001	
 8.26500000000000E+0002	 1.52494184291899E-0001	
 8.28500000000000E+0002	 1.51861319830963E-0001	
 8.30500000000000E+0002	 1.51190955370027E-0001	
 8.32500000000000E+0002	 1.50529090909091E-0001	
 8.34500000000000E+0002	 1.49820226448155E-0001	
 8.36500000000000E+0002	 1.49242861987219E-0001	
 8.38500000000000E+0002	 1.49042497526283E-0001	
 8.40500000000000E+0002	 1.49282633065347E-0001	
 8.42500000000000E+0002	 1.49389268604411E-0001	
 8.44500000000000E+0002	 1.49660404143476E-0001	
 8.46500000000000E+0002	 1.50716539682540E-0001	
 8.48500000000000E+0002	 1.52574175221604E-0001	
 8.50500000000000E+0002	 1.54713310760668E-0001	
 8.52500000000000E+0002	 1.56761446299732E-0001	
 8.54500000000000E+0002	 1.58412081838796E-0001	
 8.56500000000000E+0002	 1.59679717377860E-0001	
 8.58500000000000E+0002	 1.60500352916924E-0001	
 8.60500000000000E+0002	 1.61003988455988E-0001	
 8.62500000000000E+0002	 1.61167123995053E-0001	
 8.64500000000000E+0002	 1.61133759534117E-0001	
 8.66500000000000E+0002	 1.61084395073181E-0001	
 8.68500000000000E+0002	 1.61224030612245E-0001	
 8.70500000000000E+0002	 1.61543666151309E-0001	
 8.72500000000000E+0002	 1.61879801690373E-0001	
 8.74500000000000E+0002	 1.61776937229437E-0001	
 8.76500000000000E+0002	 1.61310072768501E-0001	
 8.78500000000000E+0002	 1.60355708307565E-0001	
 8.80500000000000E+0002	 1.58806343846630E-0001	
 8.82500000000000E+0002	 1.56550479385694E-0001	
 8.84500000000000E+0002	 1.53784114924758E-0001	
 8.86500000000000E+0002	 1.50724750463822E-0001	
 8.88500000000000E+0002	 1.47776386002886E-0001	
 8.90500000000000E+0002	 1.45220021541950E-0001	
 8.92500000000000E+0002	 1.43373157081014E-0001	
 8.94500000000000E+0002	 1.42270292620078E-0001	
 8.96500000000000E+0002	 1.41966928159142E-0001	
 8.98500000000000E+0002	 1.42211063698207E-0001	
 9.00500000000000E+0002	 1.42885199237271E-0001	
 9.02500000000000E+0002	 1.44067834776335E-0001	
 9.04500000000000E+0002	 1.46065470315399E-0001	
 9.06500000000000E+0002	 1.48801605854463E-0001	
 9.08500000000000E+0002	 1.52015741393527E-0001	
 9.10500000000000E+0002	 1.55061376932591E-0001	
 9.12500000000000E+0002	 1.57495512471655E-0001	
 9.14500000000000E+0002	 1.58878648010719E-0001	
 9.16500000000000E+0002	 1.59182783549784E-0001	
 9.18500000000000E+0002	 1.58595419088848E-0001	
 9.20500000000000E+0002	 1.57579054627912E-0001	
 9.22500000000000E+0002	 1.56569690166976E-0001	
 9.24500000000000E+0002	 1.55991325706040E-0001	
 9.26500000000000E+0002	 1.55944461245104E-0001	
 9.28500000000000E+0002	 1.56457096784168E-0001	
 9.30500000000000E+0002	 1.57343232323232E-0001	
 9.32500000000000E+0002	 1.58541867862296E-0001	
 9.34500000000000E+0002	 1.59964003401361E-0001	
 9.36500000000000E+0002	 1.61696138940425E-0001	
 9.38500000000000E+0002	 1.63762774479489E-0001	
 9.40500000000000E+0002	 1.66319910018553E-0001	
 9.42500000000000E+0002	 1.69256045557617E-0001	
 9.44500000000000E+0002	 1.72490681096681E-0001	
 9.46500000000000E+0002	 1.75913816635745E-0001	
 9.48500000000000E+0002	 1.79657452174809E-0001	
 9.50500000000000E+0002	 1.83744587713873E-0001	
 9.52500000000000E+0002	 1.88331223252938E-0001	
 9.54500000000000E+0002	 1.93439358792002E-0001	
 9.56500000000000E+0002	 1.99030994331066E-0001	
 9.58500000000000E+0002	 2.04797129870130E-0001	
 9.60500000000000E+0002	 2.10452265409194E-0001	
 9.62500000000000E+0002	 2.15643900948258E-0001	
 9.64500000000000E+0002	 2.20247536487322E-0001	
 9.66500000000000E+0002	 2.24212172026386E-0001	
 9.68500000000000E+0002	 2.27815807565450E-0001	
 9.70500000000000E+0002	 2.31162443104515E-0001	
 9.72500000000000E+0002	 2.34230078643579E-0001	
 9.74500000000000E+0002	 2.36898714182643E-0001	
 9.76500000000000E+0002	 2.39523349721707E-0001	
 9.78500000000000E+0002	 2.42521485260771E-0001	
 9.80500000000000E+0002	 2.46222620799835E-0001	
 9.82500000000000E+0002	 2.50549256338899E-0001	
 9.84500000000000E+0002	 2.55347391877963E-0001	
 9.86500000000000E+0002	 2.60460027417027E-0001	
 9.88500000000000E+0002	 2.65723662956092E-0001	
 9.90500000000000E+0002	 2.70829298495156E-0001	
 9.92500000000000E+0002	 2.75679934034220E-0001	
 9.94500000000000E+0002	 2.80218069573284E-0001	
 9.96500000000000E+0002	 2.84499205112348E-0001	
 9.98500000000000E+0002	 2.88554840651412E-0001	
 1.00050000000000E+0003	 2.92863976190476E-0001	
 1.00250000000000E+0003	 2.98012611729540E-0001	
 1.00450000000000E+0003	 3.04368747268604E-0001	
 1.00650000000000E+0003	 3.11876882807669E-0001	
 1.00850000000000E+0003	 3.20337518346733E-0001	
 1.01050000000000E+0003	 3.29322653885797E-0001	
 1.01250000000000E+0003	 3.38647289424861E-0001	
 1.01450000000000E+0003	 3.48276424963925E-0001	
 1.01650000000000E+0003	 3.58309060502989E-0001	
 1.01850000000000E+0003	 3.68630196042053E-0001	
 1.02050000000000E+0003	 3.79052831581117E-0001	
 1.02250000000000E+0003	 3.89341467120181E-0001	
 1.02450000000000E+0003	 3.99436102659246E-0001	
 1.02650000000000E+0003	 4.09336238198310E-0001	
 1.02850000000000E+0003	 4.18967873737374E-0001	
 1.03050000000000E+0003	 4.28002009276438E-0001	
 1.03250000000000E+0003	 4.36278144815502E-0001	
 1.03450000000000E+0003	 4.43785780354566E-0001	
 1.03650000000000E+0003	 4.50544415893630E-0001	
 1.03850000000000E+0003	 4.56273051432694E-0001	
 1.04050000000000E+0003	 4.60794186971758E-0001	
 1.04250000000000E+0003	 4.64212322510823E-0001	
 1.04450000000000E+0003	 4.66937958049887E-0001	
 1.04650000000000E+0003	 4.69472093588951E-0001	
 1.04850000000000E+0003	 4.72442729128015E-0001	
 1.05050000000000E+0003	 4.76046364667079E-0001	
 1.05250000000000E+0003	 4.80005500206143E-0001	
 1.05450000000000E+0003	 4.83846135745207E-0001	
 1.05650000000000E+0003	 4.87303771284271E-0001	
 1.05850000000000E+0003	 4.90067906823335E-0001	
 1.06050000000000E+0003	 4.92063042362400E-0001	
 1.06250000000000E+0003	 4.93478677901464E-0001	
 1.06450000000000E+0003	 4.94779813440528E-0001	
 1.06650000000000E+0003	 4.96173448979592E-0001	
 1.06850000000000E+0003	 4.97584584518656E-0001	
 1.07050000000000E+0003	 4.98856720057720E-0001	
 1.07250000000000E+0003	 5.00008855596784E-0001	
 1.07450000000000E+0003	 5.01013491135848E-0001	
 1.07650000000000E+0003	 5.01750626674912E-0001	
 1.07850000000000E+0003	 5.01962262213977E-0001	
 1.08050000000000E+0003	 5.01520397753041E-0001	
 1.08250000000000E+0003	 5.00230033292105E-0001	
 1.08450000000000E+0003	 4.97930168831169E-0001	
 1.08650000000000E+0003	 4.94468304370233E-0001	
 1.08850000000000E+0003	 4.89921939909297E-0001	
 1.09050000000000E+0003	 4.84591575448361E-0001	
 1.09250000000000E+0003	 4.79202710987425E-0001	
 1.09450000000000E+0003	 4.74435846526489E-0001	
 1.09650000000000E+0003	 4.70430982065553E-0001	
 1.09850000000000E+0003	 4.66709117604618E-0001	
 1.10050000000000E+0003	 4.62759253143682E-0001	
 1.10250000000000E+0003	 4.58397388682746E-0001	
 1.10450000000000E+0003	 4.53654524221810E-0001	
 1.10650000000000E+0003	 4.48580659760874E-0001	
 1.10850000000000E+0003	 4.43505295299938E-0001	
 1.11050000000000E+0003	 4.38648430839002E-0001	
 1.11250000000000E+0003	 4.34099066378066E-0001	
 1.11450000000000E+0003	 4.29519701917130E-0001	
 1.11650000000000E+0003	 4.24517837456195E-0001	
 1.11850000000000E+0003	 4.18731472995259E-0001	
 1.12050000000000E+0003	 4.12126108534323E-0001	
 1.12250000000000E+0003	 4.04808244073387E-0001	
 1.12450000000000E+0003	 3.96872379612451E-0001	
 1.12650000000000E+0003	 3.88243015151515E-0001	
 1.12850000000000E+0003	 3.79085650690579E-0001	
 1.13050000000000E+0003	 3.69527286229643E-0001	
 1.13250000000000E+0003	 3.60023921768707E-0001	
 1.13450000000000E+0003	 3.50989057307772E-0001	
 1.13650000000000E+0003	 3.42971692846836E-0001	
 1.13850000000000E+0003	 3.36304328385900E-0001	
 1.14050000000000E+0003	 3.31040463924964E-0001	
 1.14250000000000E+0003	 3.27007599464028E-0001	
 1.14450000000000E+0003	 3.24073235003092E-0001	
 1.14650000000000E+0003	 3.21694370542156E-0001	
 1.14850000000000E+0003	 3.19404006081220E-0001	
 1.15050000000000E+0003	 3.16723141620284E-0001	
 1.15250000000000E+0003	 3.13381277159349E-0001	
 1.15450000000000E+0003	 3.09135912698413E-0001	
 1.15650000000000E+0003	 3.04151548237477E-0001	
 1.15850000000000E+0003	 2.98696183776541E-0001	
 1.16050000000000E+0003	 2.93193819315605E-0001	
 1.16250000000000E+0003	 2.87827954854669E-0001	
 1.16450000000000E+0003	 2.82826590393733E-0001	
 1.16650000000000E+0003	 2.78250725932797E-0001	
 1.16850000000000E+0003	 2.74050861471861E-0001	
 1.17050000000000E+0003	 2.69757497010926E-0001	
 1.17250000000000E+0003	 2.64851632549990E-0001	
 1.17450000000000E+0003	 2.59236768089054E-0001	
 1.17650000000000E+0003	 2.53527903628118E-0001	
 1.17850000000000E+0003	 2.48208039167182E-0001	
 1.18050000000000E+0003	 2.43896174706246E-0001	
 1.18250000000000E+0003	 2.40892310245310E-0001	
 1.18450000000000E+0003	 2.39275945784374E-0001	
 1.18650000000000E+0003	 2.39014081323438E-0001	
 1.18850000000000E+0003	 2.40325716862503E-0001	
 1.19050000000000E+0003	 2.42976352401567E-0001	
 1.19250000000000E+0003	 2.46896987940631E-0001	
 1.19450000000000E+0003	 2.52015623479695E-0001	
 1.19650000000000E+0003	 2.58320759018759E-0001	
 1.19850000000000E+0003	 2.65663394557823E-0001	
 1.20050000000000E+0003	 2.73982530096887E-0001	
 1.20250000000000E+0003	 2.82963165635951E-0001	
 1.20450000000000E+0003	 2.92425301175015E-0001	
 1.20650000000000E+0003	 3.02149936714080E-0001	
 1.20850000000000E+0003	 3.12041572253144E-0001	
 1.21050000000000E+0003	 3.21938207792208E-0001	
 1.21250000000000E+0003	 3.31999843331272E-0001	
 1.21450000000000E+0003	 3.42126478870336E-0001	
 1.21650000000000E+0003	 3.52392614409400E-0001	
 1.21850000000000E+0003	 3.63245249948464E-0001	
 1.22050000000000E+0003	 3.74001385487528E-0001	
 1.22250000000000E+0003	 3.82858021026592E-0001	
 1.22450000000000E+0003	 3.89752656565657E-0001	
 1.22650000000000E+0003	 3.95777792104721E-0001	
 1.22850000000000E+0003	 4.01504927643785E-0001	
 1.23050000000000E+0003	 4.06879563182849E-0001	
 1.23250000000000E+0003	 4.11860198721913E-0001	
 1.23450000000000E+0003	 4.16302834260977E-0001	
 1.23650000000000E+0003	 4.20071469800041E-0001	
 1.23850000000000E+0003	 4.22881605339105E-0001	
 1.24050000000000E+0003	 4.24594740878169E-0001	
 1.24250000000000E+0003	 4.25069376417234E-0001	
 1.24450000000000E+0003	 4.24332011956298E-0001	
 1.24650000000000E+0003	 4.22407147495362E-0001	
 1.24850000000000E+0003	 4.19283783034426E-0001	
 1.25050000000000E+0003	 4.15063418573490E-0001	
 1.25250000000000E+0003	 4.09966054112554E-0001	
 1.25450000000000E+0003	 4.04017189651618E-0001	
 1.25650000000000E+0003	 3.97253825190682E-0001	
 1.25850000000000E+0003	 3.89753960729746E-0001	
 1.26050000000000E+0003	 3.82129096268811E-0001	
 1.26250000000000E+0003	 3.74829231807875E-0001	
 1.26450000000000E+0003	 3.67784867346939E-0001	
 1.26650000000000E+0003	 3.61086002886003E-0001	
 1.26850000000000E+0003	 3.55105638425067E-0001	
 1.27050000000000E+0003	 3.50012773964131E-0001	
 1.27250000000000E+0003	 3.46106909503195E-0001	
 1.27450000000000E+0003	 3.43150045042259E-0001	
 1.27650000000000E+0003	 3.40865680581323E-0001	
 1.27850000000000E+0003	 3.39058816120388E-0001	
 1.28050000000000E+0003	 3.37836451659452E-0001	
 1.28250000000000E+0003	 3.37057587198516E-0001	
 1.28450000000000E+0003	 3.36268222737580E-0001	
 1.28650000000000E+0003	 3.35078858276644E-0001	
 1.28850000000000E+0003	 3.34189993815708E-0001	
 1.29050000000000E+0003	 3.34000629354772E-0001	
 1.29250000000000E+0003	 3.33921264893836E-0001	
 1.29450000000000E+0003	 3.33524400432900E-0001	
 1.29650000000000E+0003	 3.33174535971965E-0001	
 1.29850000000000E+0003	 3.33443171511029E-0001	
 1.30050000000000E+0003	 3.34188807050093E-0001	
 1.30250000000000E+0003	 3.35070442589157E-0001	
 1.30450000000000E+0003	 3.35890578128221E-0001	
 1.30650000000000E+0003	 3.36269713667285E-0001	
 1.30850000000000E+0003	 3.36510849206349E-0001	
 1.31050000000000E+0003	 3.36291984745413E-0001	
 1.31250000000000E+0003	 3.35210120284477E-0001	
 1.31450000000000E+0003	 3.34234255823542E-0001	
 1.31650000000000E+0003	 3.33094391362606E-0001	
 1.31850000000000E+0003	 3.31465026901670E-0001	
 1.32050000000000E+0003	 3.30278162440734E-0001	
 1.32250000000000E+0003	 3.29190297979798E-0001	
 1.32450000000000E+0003	 3.27943433518862E-0001	
 1.32650000000000E+0003	 3.26753069057926E-0001	
 1.32850000000000E+0003	 3.25890704596990E-0001	
 1.33050000000000E+0003	 3.25504840136054E-0001	
 1.33250000000000E+0003	 3.25664475675119E-0001	
 1.33450000000000E+0003	 3.25419111214183E-0001	
 1.33650000000000E+0003	 3.23782246753247E-0001	
 1.33850000000000E+0003	 3.21730382292311E-0001	
 1.34050000000000E+0003	 3.23458017831375E-0001	
 1.34250000000000E+0003	 3.27362153370439E-0001	
 1.34450000000000E+0003	 3.28525288909503E-0001	
 1.34650000000000E+0003	 3.27985924448567E-0001	
 1.34850000000000E+0003	 3.27482559987631E-0001	
 1.35050000000000E+0003	 3.27396695526696E-0001	
 1.35250000000000E+0003	 3.27744831065760E-0001	
 1.35450000000000E+0003	 3.28468966604824E-0001	
 1.35650000000000E+0003	 3.30096102143888E-0001	
 1.35850000000000E+0003	 3.31754737682952E-0001	
 1.36050000000000E+0003	 3.32655373222016E-0001	
 1.36250000000000E+0003	 3.35139508761080E-0001	
 1.36450000000000E+0003	 3.42644144300144E-0001	
 1.36650000000000E+0003	 3.51539779839208E-0001	
 1.36850000000000E+0003	 3.59833415378273E-0001	
 1.37050000000000E+0003	 3.67770550917337E-0001	
 1.37250000000000E+0003	 3.75043686456401E-0001	
 1.37450000000000E+0003	 3.82927821995465E-0001	
 1.37650000000000E+0003	 3.91452957534529E-0001	
 1.37850000000000E+0003	 3.99060593073593E-0001	
 1.38050000000000E+0003	 4.07561728612657E-0001	
 1.38250000000000E+0003	 4.16395364151721E-0001	
 1.38450000000000E+0003	 4.24033999690785E-0001	
 1.38650000000000E+0003	 4.30304135229850E-0001	
 1.38850000000000E+0003	 4.38662770768914E-0001	
 1.39050000000000E+0003	 4.47257406307978E-0001	
 1.39250000000000E+0003	 4.53736541847042E-0001	
 1.39450000000000E+0003	 4.58691177386106E-0001	
 1.39650000000000E+0003	 4.62554812925170E-0001	
 1.39850000000000E+0003	 4.66242948464234E-0001	
 1.40050000000000E+0003	 4.68423584003298E-0001	
 1.40250000000000E+0003	 4.66982719542362E-0001	
 1.40450000000000E+0003	 4.63269355081427E-0001	
 1.40650000000000E+0003	 4.58716490620491E-0001	
 1.40850000000000E+0003	 4.53111126159555E-0001	
 1.41050000000000E+0003	 4.46428261698619E-0001	
 1.41250000000000E+0003	 4.40023897237683E-0001	
 1.41450000000000E+0003	 4.32804032776747E-0001	
 1.41650000000000E+0003	 4.23382168315811E-0001	
 1.41850000000000E+0003	 4.13604803854875E-0001	
 1.42050000000000E+0003	 4.04776439393939E-0001	
 1.42250000000000E+0003	 3.96244074933004E-0001	
 1.42450000000000E+0003	 3.86556710472068E-0001	
 1.42650000000000E+0003	 3.78359846011132E-0001	
 1.42850000000000E+0003	 3.72460981550196E-0001	
 1.43050000000000E+0003	 3.68484117089260E-0001	
 1.43250000000000E+0003	 3.66323752628324E-0001	
 1.43450000000000E+0003	 3.67149888167388E-0001	
 1.43650000000000E+0003	 3.71349523706452E-0001	
 1.43850000000000E+0003	 3.76614659245516E-0001	
 1.44050000000000E+0003	 3.80917294784580E-0001	
 1.44250000000000E+0003	 3.84686930323645E-0001	
 1.44450000000000E+0003	 3.88081065862709E-0001	
 1.44650000000000E+0003	 3.91520201401773E-0001	
 1.44850000000000E+0003	 3.94358336940837E-0001	
 1.45050000000000E+0003	 3.95803472479901E-0001	
 1.45250000000000E+0003	 3.96094608018965E-0001	
 1.45450000000000E+0003	 3.93646243558029E-0001	
 1.45650000000000E+0003	 3.89933879097093E-0001	
 1.45850000000000E+0003	 3.87341514636157E-0001	
 1.46050000000000E+0003	 3.83671150175222E-0001	
 1.46250000000000E+0003	 3.79449285714286E-0001	
 1.46450000000000E+0003	 3.76766921253350E-0001	
 1.46650000000000E+0003	 3.72241556792414E-0001	
 1.46850000000000E+0003	 3.67255192331478E-0001	
 1.47050000000000E+0003	 3.62886327870542E-0001	
 1.47250000000000E+0003	 3.56041963409606E-0001	
 1.47450000000000E+0003	 3.49144098948670E-0001	
 1.47650000000000E+0003	 3.46174734487734E-0001	
 1.47850000000000E+0003	 3.45264870026799E-0001	
 1.48050000000000E+0003	 3.46455505565863E-0001	
 1.48250000000000E+0003	 3.50960641104927E-0001	
 1.48450000000000E+0003	 3.57910776643991E-0001	
 1.48650000000000E+0003	 3.67343412183055E-0001	
 1.48850000000000E+0003	 3.77268547722119E-0001	
 1.49050000000000E+0003	 3.90672683261183E-0001	
 1.49250000000000E+0003	 4.05041818800247E-0001	
 1.49450000000000E+0003	 4.17269954339311E-0001	
 1.49650000000000E+0003	 4.33841089878376E-0001	
 1.49850000000000E+0003	 4.53174225417440E-0001	
 1.50050000000000E+0003	 4.67159360956504E-0001	
 1.50250000000000E+0003	 4.79972496495568E-0001	
 1.50450000000000E+0003	 4.94521632034632E-0001	
 1.50650000000000E+0003	 5.12353767573696E-0001	
 1.50850000000000E+0003	 5.28718903112760E-0001	
 1.51050000000000E+0003	 5.47896038651824E-0001	
 1.51250000000000E+0003	 5.67457174190888E-0001	
 1.51450000000000E+0003	 5.85273309729953E-0001	
 1.51650000000000E+0003	 6.01522945269017E-0001	
 1.51850000000000E+0003	 6.12630580808081E-0001	
 1.52050000000000E+0003	 6.19227216347145E-0001	
 1.52250000000000E+0003	 6.31383351886209E-0001	
 1.52450000000000E+0003	 6.41900987425273E-0001	
 1.52650000000000E+0003	 6.51318622964337E-0001	
 1.52850000000000E+0003	 6.62675758503401E-0001	
 1.53050000000000E+0003	 6.72944894042465E-0001	
 1.53250000000000E+0003	 6.85126029581530E-0001	
 1.53450000000000E+0003	 6.95914165120594E-0001	
 1.53650000000000E+0003	 6.99978300659658E-0001	
 1.53850000000000E+0003	 7.07136936198722E-0001	
 1.54050000000000E+0003	 7.19630071737786E-0001	
 1.54250000000000E+0003	 7.22136707276850E-0001	
 1.54450000000000E+0003	 7.19943342815914E-0001	
 1.54650000000000E+0003	 7.19235978354978E-0001	
 1.54850000000000E+0003	 7.16121613894042E-0001	
 1.55050000000000E+0003	 7.10192749433107E-0001	
 1.55250000000000E+0003	 7.03817384972171E-0001	
 1.55450000000000E+0003	 6.96491020511235E-0001	
 1.55650000000000E+0003	 6.92150156050299E-0001	
 1.55850000000000E+0003	 6.86501791589363E-0001	
 1.56050000000000E+0003	 6.67542427128427E-0001	
 1.56250000000000E+0003	 6.54845062667491E-0001	
 1.56450000000000E+0003	 6.49052698206555E-0001	
 1.56650000000000E+0003	 6.40760833745619E-0001	
 1.56850000000000E+0003	 6.35441969284684E-0001	
 1.57050000000000E+0003	 6.27630104823748E-0001	
 1.57250000000000E+0003	 6.16557240362812E-0001	
 1.57450000000000E+0003	 6.06632875901876E-0001	
 1.57650000000000E+0003	 5.98389011440940E-0001	
 1.57850000000000E+0003	 5.92824646980004E-0001	
 1.58050000000000E+0003	 5.88867282519068E-0001	
 1.58250000000000E+0003	 5.83513918058132E-0001	
 1.58450000000000E+0003	 5.79499553597196E-0001	
 1.58650000000000E+0003	 5.76526189136261E-0001	
 1.58850000000000E+0003	 5.74925824675325E-0001	
 1.59050000000000E+0003	 5.74378460214389E-0001	
 1.59250000000000E+0003	 5.75487095753453E-0001	
 1.59450000000000E+0003	 5.77186231292517E-0001	
 1.59650000000000E+0003	 5.79689866831581E-0001	
 1.59850000000000E+0003	 5.82559502370645E-0001	
 1.60050000000000E+0003	 5.86413637909709E-0001	
 1.60250000000000E+0003	 5.91006773448773E-0001	
 1.60450000000000E+0003	 5.97216908987838E-0001	
 1.60650000000000E+0003	 6.04474544526902E-0001	
 1.60850000000000E+0003	 6.14087680065966E-0001	
 1.61050000000000E+0003	 6.25498815605030E-0001	
 1.61250000000000E+0003	 6.38595951144094E-0001	
 1.61450000000000E+0003	 6.51648086683158E-0001	
 1.61650000000000E+0003	 6.69008722222222E-0001	
 1.61850000000000E+0003	 6.88236857761286E-0001	
 1.62050000000000E+0003	 7.07292493300350E-0001	
 1.62250000000000E+0003	 7.30361128839415E-0001	
 1.62450000000000E+0003	 7.54251264378479E-0001	
 1.62650000000000E+0003	 7.74942399917543E-0001	
 1.62850000000000E+0003	 7.97026535456607E-0001	
 1.63050000000000E+0003	 8.16775170995671E-0001	
 1.63250000000000E+0003	 8.36296806534735E-0001	
 1.63450000000000E+0003	 8.58967442073799E-0001	
 1.63650000000000E+0003	 8.78352077612863E-0001	
 1.63850000000000E+0003	 8.87686213151927E-0001	
 1.64050000000000E+0003	 8.94730348690992E-0001	
 1.64250000000000E+0003	 9.01614484230056E-0001	
 1.64450000000000E+0003	 9.08692619769120E-0001	
 1.64650000000000E+0003	 9.19618755308184E-0001	
 1.64850000000000E+0003	 9.26697890847248E-0001	
 1.65050000000000E+0003	 9.24889526386312E-0001	
 1.65250000000000E+0003	 9.30274161925376E-0001	
 1.65450000000000E+0003	 9.35731797464440E-0001	
 1.65650000000000E+0003	 9.35086433003504E-0001	
 1.65850000000000E+0003	 9.33099068542569E-0001	
 1.66050000000000E+0003	 9.30100204081633E-0001	
 1.66250000000000E+0003	 9.25983339620697E-0001	
 1.66450000000000E+0003	 9.15744475159761E-0001	
 1.66650000000000E+0003	 9.04941110698825E-0001	
 1.66850000000000E+0003	 8.97910746237889E-0001	
 1.67050000000000E+0003	 8.87998381776953E-0001	
 1.67250000000000E+0003	 8.75223017316017E-0001	
 1.67450000000000E+0003	 8.65354152855081E-0001	
 1.67650000000000E+0003	 8.52233288394146E-0001	
 1.67850000000000E+0003	 8.37158923933210E-0001	
 1.68050000000000E+0003	 8.25431059472274E-0001	
 1.68250000000000E+0003	 8.16642695011338E-0001	
 1.68450000000000E+0003	 8.02190330550402E-0001	
 1.68650000000000E+0003	 7.84592966089466E-0001	
 1.68850000000000E+0003	 7.73604601628530E-0001	
 1.69050000000000E+0003	 7.60101237167594E-0001	
 1.69250000000000E+0003	 7.43790872706658E-0001	
 1.69450000000000E+0003	 7.23843008245723E-0001	
 1.69650000000000E+0003	 7.02053643784787E-0001	
 1.69850000000000E+0003	 6.89354279323851E-0001	
 1.70050000000000E+0003	 6.73909914862915E-0001	
 1.70250000000000E+0003	 6.49234050401979E-0001	
 1.70450000000000E+0003	 6.32889685941043E-0001	
 1.70650000000000E+0003	 6.15397821480107E-0001	
 1.70850000000000E+0003	 5.95650457019171E-0001	
 1.71050000000000E+0003	 5.78407592558235E-0001	
 1.71250000000000E+0003	 5.63185728097300E-0001	
 1.71450000000000E+0003	 5.47122863636364E-0001	
 1.71650000000000E+0003	 5.28048999175428E-0001	
 1.71850000000000E+0003	 5.11594634714492E-0001	
 1.72050000000000E+0003	 4.96061270253556E-0001	
 1.72250000000000E+0003	 4.79786905792620E-0001	
 1.72450000000000E+0003	 4.64495541331684E-0001	
 1.72650000000000E+0003	 4.51363176870748E-0001	
 1.72850000000000E+0003	 4.39149312409812E-0001	
 1.73050000000000E+0003	 4.26978947948877E-0001	
 1.73250000000000E+0003	 4.15381083487941E-0001	
 1.73450000000000E+0003	 4.08008219027005E-0001	
 1.73650000000000E+0003	 4.02823854566069E-0001	
 1.73850000000000E+0003	 4.00575490105133E-0001	
 1.74050000000000E+0003	 3.95531125644197E-0001	
 1.74250000000000E+0003	 3.86376261183261E-0001	
 1.74450000000000E+0003	 3.79003896722325E-0001	
 1.74650000000000E+0003	 3.74437032261389E-0001	
 1.74850000000000E+0003	 3.68012167800454E-0001	
 1.75050000000000E+0003	 3.57957803339518E-0001	
 1.75250000000000E+0003	 3.49585938878582E-0001	
 1.75450000000000E+0003	 3.44374074417646E-0001	
 1.75650000000000E+0003	 3.36495209956710E-0001	
 1.75850000000000E+0003	 3.27075345495774E-0001	
 1.76050000000000E+0003	 3.18963481034838E-0001	
 1.76250000000000E+0003	 3.10279116573902E-0001	
 1.76450000000000E+0003	 3.00845752112966E-0001	
 1.76650000000000E+0003	 2.91881887652031E-0001	
 1.76850000000000E+0003	 2.84656023191095E-0001	
 1.77050000000000E+0003	 2.81725158730159E-0001	
 1.77250000000000E+0003	 2.76009794269223E-0001	
 1.77450000000000E+0003	 2.67152929808287E-0001	
 1.77650000000000E+0003	 2.61130065347351E-0001	
 1.77850000000000E+0003	 2.56278700886415E-0001	
 1.78050000000000E+0003	 2.51877836425479E-0001	
 1.78250000000000E+0003	 2.47422971964543E-0001	
 1.78450000000000E+0003	 2.42655107503608E-0001	
 1.78650000000000E+0003	 2.39192243042672E-0001	
 1.78850000000000E+0003	 2.36254378581736E-0001	
 1.79050000000000E+0003	 2.33593514120800E-0001	
 1.79250000000000E+0003	 2.31159149659864E-0001	
 1.79450000000000E+0003	 2.26668285198928E-0001	
 1.79650000000000E+0003	 2.22917420737992E-0001	
 1.79850000000000E+0003	 2.21598556277056E-0001	
 1.80050000000000E+0003	 2.18094691816120E-0001	
 1.80250000000000E+0003	 2.13933827355184E-0001	
 1.80450000000000E+0003	 2.12199462894249E-0001	
 1.80650000000000E+0003	 2.10180598433313E-0001	
 1.80850000000000E+0003	 2.07895733972377E-0001	
 1.81050000000000E+0003	 2.05904369511441E-0001	
 1.81250000000000E+0003	 2.03306005050505E-0001	
 1.81450000000000E+0003	 2.01239140589569E-0001	
 1.81650000000000E+0003	 1.98817276128633E-0001	
 1.81850000000000E+0003	 1.96841911667697E-0001	
 1.82050000000000E+0003	 1.95255047206761E-0001	
 1.82250000000000E+0003	 1.93423682745826E-0001	
 1.82450000000000E+0003	 1.91803818284890E-0001	
 1.82650000000000E+0003	 1.90694953823954E-0001	
 1.82850000000000E+0003	 1.90695089363018E-0001	
 1.83050000000000E+0003	 1.89382724902082E-0001	
 1.83250000000000E+0003	 1.85513360441146E-0001	
 1.83450000000000E+0003	 1.82927995980210E-0001	
 1.83650000000000E+0003	 1.81380631519274E-0001	
 1.83850000000000E+0003	 1.79988767058338E-0001	
 1.84050000000000E+0003	 1.78401902597403E-0001	
 1.84250000000000E+0003	 1.77207038136467E-0001	
 1.84450000000000E+0003	 1.76282673675531E-0001	
 1.84650000000000E+0003	 1.73710809214595E-0001	
 1.84850000000000E+0003	 1.72197944753659E-0001	
 1.85050000000000E+0003	 1.72001080292723E-0001	
 1.85250000000000E+0003	 1.71406215831787E-0001	
 1.85450000000000E+0003	 1.70339851370851E-0001	
 1.85650000000000E+0003	 1.69011986909915E-0001	
 1.85850000000000E+0003	 1.67563622448980E-0001	
 1.86050000000000E+0003	 1.66270757988044E-0001	
 1.86250000000000E+0003	 1.65477893527108E-0001	
 1.86450000000000E+0003	 1.64905529066172E-0001	
 1.86650000000000E+0003	 1.64491164605236E-0001	
 1.86850000000000E+0003	 1.63906300144300E-0001	
 1.87050000000000E+0003	 1.62627935683364E-0001	
 1.87250000000000E+0003	 1.61445571222428E-0001	
 1.87450000000000E+0003	 1.60905206761492E-0001	
 1.87650000000000E+0003	 1.60145842300557E-0001	
 1.87850000000000E+0003	 1.59277977839621E-0001	
 1.88050000000000E+0003	 1.58584613378685E-0001	
 1.88250000000000E+0003	 1.58028248917749E-0001	
 1.88450000000000E+0003	 1.57299884456813E-0001	
 1.88650000000000E+0003	 1.56752519995877E-0001	
 1.88850000000000E+0003	 1.56287655534941E-0001	
 1.89050000000000E+0003	 1.55590291074005E-0001	
 1.89250000000000E+0003	 1.54743426613069E-0001	
 1.89450000000000E+0003	 1.53925562152134E-0001	
 1.89650000000000E+0003	 1.53392197691198E-0001	
 1.89850000000000E+0003	 1.53067333230262E-0001	
 1.90050000000000E+0003	 1.52544468769326E-0001	
 1.90250000000000E+0003	 1.52001604308390E-0001	
 1.90450000000000E+0003	 1.51512239847454E-0001	
 1.90650000000000E+0003	 1.50754875386518E-0001	
 1.90850000000000E+0003	 1.49860510925582E-0001	
 1.91050000000000E+0003	 1.49507646464646E-0001	
 1.91250000000000E+0003	 1.49457282003711E-0001	
 1.91450000000000E+0003	 1.49199917542775E-0001	
 1.91650000000000E+0003	 1.48991053081839E-0001	
 1.91850000000000E+0003	 1.48552188620903E-0001	
 1.92050000000000E+0003	 1.47388324159967E-0001	
 1.92250000000000E+0003	 1.46246959699031E-0001	
 1.92450000000000E+0003	 1.46423095238095E-0001	
 1.92650000000000E+0003	 1.46905230777159E-0001	
 1.92850000000000E+0003	 1.46773366316223E-0001	
 1.93050000000000E+0003	 1.46439501855288E-0001	
 1.93250000000000E+0003	 1.46062137394352E-0001	
 1.93450000000000E+0003	 1.45844772933416E-0001	
 1.93650000000000E+0003	 1.45704408472480E-0001	
 1.93850000000000E+0003	 1.45434044011544E-0001	
 1.94050000000000E+0003	 1.44843179550608E-0001	
 1.94250000000000E+0003	 1.44241315089672E-0001	
 1.94450000000000E+0003	 1.44377450628736E-0001	
 1.94650000000000E+0003	 1.44641586167800E-0001	
 1.94850000000000E+0003	 1.44648721706865E-0001	
 1.95050000000000E+0003	 1.44559857245929E-0001	
 1.95250000000000E+0003	 1.44381492784993E-0001	
 1.95450000000000E+0003	 1.44110628324057E-0001	
 1.95650000000000E+0003	 1.43998763863121E-0001	
 1.95850000000000E+0003	 1.43968899402185E-0001	
 1.96050000000000E+0003	 1.43857034941249E-0001	
 1.96250000000000E+0003	 1.43772170480313E-0001	
 1.96450000000000E+0003	 1.43393306019377E-0001	
 1.96650000000000E+0003	 1.42703441558442E-0001	
 1.96850000000000E+0003	 1.42788077097506E-0001	
 1.97050000000000E+0003	 1.43347212636570E-0001	
 1.97250000000000E+0003	 1.43495848175634E-0001	
 1.97450000000000E+0003	 1.43461983714698E-0001	
 1.97650000000000E+0003	 1.43408619253762E-0001	
 1.97850000000000E+0003	 1.43374254792826E-0001	
 1.98050000000000E+0003	 1.43337890331890E-0001	
 1.98250000000000E+0003	 1.43333025870954E-0001	
 1.98450000000000E+0003	 1.43295161410019E-0001	
 1.98650000000000E+0003	 1.43006296949083E-0001	
 1.98850000000000E+0003	 1.42612932488147E-0001	
 1.99050000000000E+0003	 1.42324068027211E-0001	
 1.99250000000000E+0003	 1.42180203566275E-0001	
 1.99450000000000E+0003	 1.42771339105339E-0001	
 1.99650000000000E+0003	 1.43216474644403E-0001	
 1.99850000000000E+0003	 1.43250610183467E-0001	
 2.00050000000000E+0003	 1.43227245722531E-0001	
 2.00250000000000E+0003	 1.43250381261596E-0001	
 2.00450000000000E+0003	 1.43246516800660E-0001	
 2.00650000000000E+0003	 1.43204152339724E-0001	
 2.00850000000000E+0003	 1.43201787878788E-0001	
 2.01050000000000E+0003	 1.43340423417852E-0001	
 2.01250000000000E+0003	 1.43412558956916E-0001	
 2.01450000000000E+0003	 1.43180194495980E-0001	
 2.01650000000000E+0003	 1.42642330035044E-0001	
 2.01850000000000E+0003	 1.42743965574108E-0001	
 2.02050000000000E+0003	 1.43380101113173E-0001	
 2.02250000000000E+0003	 1.43716236652237E-0001	
 2.02450000000000E+0003	 1.43872872191301E-0001	
 2.02650000000000E+0003	 1.44074507730365E-0001	
 2.02850000000000E+0003	 1.44229643269429E-0001	
 2.03050000000000E+0003	 1.44372278808493E-0001	
 2.03250000000000E+0003	 1.44479414347557E-0001	
 2.03450000000000E+0003	 1.44584049886621E-0001	
 2.03650000000000E+0003	 1.44670185425685E-0001	
 2.03850000000000E+0003	 1.44648820964750E-0001	
 2.04050000000000E+0003	 1.44442456503814E-0001	
 2.04250000000000E+0003	 1.44582592042878E-0001	
 2.04450000000000E+0003	 1.44995227581942E-0001	
 2.04650000000000E+0003	 1.45226863121006E-0001	
 2.04850000000000E+0003	 1.45363998660070E-0001	
 2.05050000000000E+0003	 1.45499134199134E-0001	
 2.05250000000000E+0003	 1.45613769738198E-0001	
 2.05450000000000E+0003	 1.45740405277262E-0001	
 2.05650000000000E+0003	 1.45839540816327E-0001	
 2.05850000000000E+0003	 1.45925676355391E-0001	
 2.06050000000000E+0003	 1.45987811894455E-0001	
 2.06250000000000E+0003	 1.45903447433519E-0001	
 2.06450000000000E+0003	 1.45620082972583E-0001	
 2.06650000000000E+0003	 1.45832718511647E-0001	
 2.06850000000000E+0003	 1.46330854050711E-0001	
 2.07050000000000E+0003	 1.46557489589775E-0001	
 2.07250000000000E+0003	 1.46632125128839E-0001	
 2.07450000000000E+0003	 1.46716760667904E-0001	
 2.07650000000000E+0003	 1.46802396206968E-0001	
 2.07850000000000E+0003	 1.46870031746032E-0001	
 2.08050000000000E+0003	 1.46953667285096E-0001	
 2.08250000000000E+0003	 1.47031802824160E-0001	
 2.08450000000000E+0003	 1.47085438363224E-0001	
 2.08650000000000E+0003	 1.47078073902288E-0001	
 2.08850000000000E+0003	 1.46959209441352E-0001	
 2.09050000000000E+0003	 1.46958344980416E-0001	
 2.09250000000000E+0003	 1.47188480519481E-0001	
 2.09450000000000E+0003	 1.47343616058545E-0001	
 2.09650000000000E+0003	 1.47359251597609E-0001	
 2.09850000000000E+0003	 1.47366887136673E-0001	
 2.10050000000000E+0003	 1.47387022675737E-0001	
 2.10250000000000E+0003	 1.47417158214801E-0001	
 2.10450000000000E+0003	 1.47410293753865E-0001	
 2.10650000000000E+0003	 1.47392429292929E-0001	
 2.10850000000000E+0003	 1.47377564831993E-0001	
 2.11050000000000E+0003	 1.47371200371058E-0001	
 2.11250000000000E+0003	 1.47272335910122E-0001	
 2.11450000000000E+0003	 1.47129971449186E-0001	
 2.11650000000000E+0003	 1.47127106988250E-0001	
 2.11850000000000E+0003	 1.47191742527314E-0001	
 2.12050000000000E+0003	 1.47176878066378E-0001	
 2.12250000000000E+0003	 1.47145013605442E-0001	
 2.12450000000000E+0003	 1.47098649144506E-0001	
 2.12650000000000E+0003	 1.47056784683570E-0001	
 2.12850000000000E+0003	 1.47004420222635E-0001	
 2.13050000000000E+0003	 1.46949555761699E-0001	
 2.13250000000000E+0003	 1.46869691300763E-0001	
 2.13450000000000E+0003	 1.46726326839827E-0001	
 2.13650000000000E+0003	 1.46564462378891E-0001	
 2.13850000000000E+0003	 1.46506097917955E-0001	
 2.14050000000000E+0003	 1.46482233457019E-0001	
 2.14250000000000E+0003	 1.46441868996083E-0001	
 2.14450000000000E+0003	 1.46338004535147E-0001	
 2.14650000000000E+0003	 1.46240140074212E-0001	
 2.14850000000000E+0003	 1.46160275613276E-0001	
 2.15050000000000E+0003	 1.46074911152340E-0001	
 2.15250000000000E+0003	 1.45967546691404E-0001	
 2.15450000000000E+0003	 1.45862682230468E-0001	
 2.15650000000000E+0003	 1.45752817769532E-0001	
 2.15850000000000E+0003	 1.45631453308596E-0001	
 2.16050000000000E+0003	 1.45473088847660E-0001	
 2.16250000000000E+0003	 1.45350724386724E-0001	
 2.16450000000000E+0003	 1.45280359925788E-0001	
 2.16650000000000E+0003	 1.45202495464853E-0001	
 2.16850000000000E+0003	 1.45098131003917E-0001	
 2.17050000000000E+0003	 1.44985266542981E-0001	
 2.17250000000000E+0003	 1.44847902082045E-0001	
 2.17450000000000E+0003	 1.44724537621109E-0001	
 2.17650000000000E+0003	 1.44612673160173E-0001	
 2.17850000000000E+0003	 1.44514308699237E-0001	
 2.18050000000000E+0003	 1.44391444238301E-0001	
 2.18250000000000E+0003	 1.44275579777365E-0001	
 2.18450000000000E+0003	 1.44170215316430E-0001	
 2.18650000000000E+0003	 1.44074350855494E-0001	
 2.18850000000000E+0003	 1.43985986394558E-0001	
 2.19050000000000E+0003	 1.43894121933622E-0001	
 2.19250000000000E+0003	 1.43778257472686E-0001	
 2.19450000000000E+0003	 1.43679393011750E-0001	
 2.19650000000000E+0003	 1.43583028550814E-0001	
 2.19850000000000E+0003	 1.43478164089878E-0001	
 2.20050000000000E+0003	 1.43375299628942E-0001	
 2.20250000000000E+0003	 1.43282935168007E-0001	
 2.20450000000000E+0003	 1.43177070707071E-0001	
 2.20650000000000E+0003	 1.43097706246135E-0001	
 2.20850000000000E+0003	 1.43024341785199E-0001	
 2.21050000000000E+0003	 1.42950977324263E-0001	
 2.21250000000000E+0003	 1.42885112863327E-0001	
 2.21450000000000E+0003	 1.42832248402391E-0001	
 2.21650000000000E+0003	 1.42768383941455E-0001	
 2.21850000000000E+0003	 1.42710019480519E-0001	
 2.22050000000000E+0003	 1.42659155019584E-0001	
 2.22250000000000E+0003	 1.42617790558648E-0001	
 2.22450000000000E+0003	 1.42575426097712E-0001	
 2.22650000000000E+0003	 1.42536561636776E-0001	
 2.22850000000000E+0003	 1.42480197175840E-0001	
 2.23050000000000E+0003	 1.42398832714904E-0001	
 2.23250000000000E+0003	 1.42270468253968E-0001	
 2.23450000000000E+0003	 1.42118103793032E-0001	
 2.23650000000000E+0003	 1.41964239332096E-0001	
 2.23850000000000E+0003	 1.41821874871161E-0001	
 2.24050000000000E+0003	 1.41681010410225E-0001	
 2.24250000000000E+0003	 1.41549145949289E-0001	
 2.24450000000000E+0003	 1.41415781488353E-0001	
 2.24650000000000E+0003	 1.41304417027417E-0001	
 2.24850000000000E+0003	 1.41202052566481E-0001	
 2.25050000000000E+0003	 1.41098688105545E-0001	
 2.25250000000000E+0003	 1.40984823644609E-0001	
 2.25450000000000E+0003	 1.40879459183673E-0001	
 2.25650000000000E+0003	 1.40792594722738E-0001	
 2.25850000000000E+0003	 1.40708730261802E-0001	
 2.26050000000000E+0003	 1.40613865800866E-0001	
 2.26250000000000E+0003	 1.40526501339930E-0001	
 2.26450000000000E+0003	 1.40459136878994E-0001	
 2.26650000000000E+0003	 1.40416772418058E-0001	
 2.26850000000000E+0003	 1.40366907957122E-0001	
 2.27050000000000E+0003	 1.40325043496186E-0001	
 2.27250000000000E+0003	 1.40295179035250E-0001	
 2.27450000000000E+0003	 1.40273314574315E-0001	
 2.27650000000000E+0003	 1.40239450113379E-0001	
 2.27850000000000E+0003	 1.40218585652443E-0001	
 2.28050000000000E+0003	 1.40219221191507E-0001	
 2.28250000000000E+0003	 1.40235856730571E-0001	
 2.28450000000000E+0003	 1.40222492269635E-0001	
 2.28650000000000E+0003	 1.40200127808699E-0001	
 2.28850000000000E+0003	 1.40190263347763E-0001	
 2.29050000000000E+0003	 1.40176398886827E-0001	
 2.29250000000000E+0003	 1.40146534425892E-0001	
 2.29450000000000E+0003	 1.40131669964956E-0001	
 2.29650000000000E+0003	 1.40127305504020E-0001	
 2.29850000000000E+0003	 1.40121941043084E-0001	
 2.30050000000000E+0003	 1.40123576582148E-0001	
 2.30250000000000E+0003	 1.40158212121212E-0001	
 2.30450000000000E+0003	 1.40195347660276E-0001	
 2.30650000000000E+0003	 1.40236983199340E-0001	
 2.30850000000000E+0003	 1.40288118738404E-0001	
 2.31050000000000E+0003	 1.40370754277469E-0001	
 2.31250000000000E+0003	 1.40506389816533E-0001	
 2.31450000000000E+0003	 1.40641525355597E-0001	
 2.31650000000000E+0003	 1.40694160894661E-0001	
 2.31850000000000E+0003	 1.40685796433725E-0001	
 2.32050000000000E+0003	 1.40635931972789E-0001	
 2.32250000000000E+0003	 1.40606067511853E-0001	
 2.32450000000000E+0003	 1.40681203050917E-0001	
 2.32650000000000E+0003	 1.40821338589981E-0001	
 2.32850000000000E+0003	 1.40951974129046E-0001	
 2.33050000000000E+0003	 1.41097609668110E-0001	
 2.33250000000000E+0003	 1.41314745207174E-0001	
 2.33450000000000E+0003	 1.41555880746238E-0001	
 2.33650000000000E+0003	 1.41718016285302E-0001	
 2.33850000000000E+0003	 1.41783651824366E-0001	
 2.34050000000000E+0003	 1.41766287363430E-0001	
 2.34250000000000E+0003	 1.41773422902494E-0001	
 2.34450000000000E+0003	 1.41862058441558E-0001	
 2.34650000000000E+0003	 1.42052693980623E-0001	
 2.34850000000000E+0003	 1.42294329519687E-0001	
 2.35050000000000E+0003	 1.42527965058751E-0001	
 2.35250000000000E+0003	 1.42736100597815E-0001	
 2.35450000000000E+0003	 1.42817236136879E-0001	
 2.35650000000000E+0003	 1.42823871675943E-0001	
 2.35850000000000E+0003	 1.43003507215007E-0001	
 2.36050000000000E+0003	 1.43292142754071E-0001	
 2.36250000000000E+0003	 1.43548278293135E-0001	
 2.36450000000000E+0003	 1.43680413832200E-0001	
 2.36650000000000E+0003	 1.43850549371264E-0001	
 2.36850000000000E+0003	 1.44028684910328E-0001	
 2.37050000000000E+0003	 1.44260320449392E-0001	
 2.37250000000000E+0003	 1.44596455988456E-0001	
 2.37450000000000E+0003	 1.44950591527520E-0001	
 2.37650000000000E+0003	 1.45110227066584E-0001	
 2.37850000000000E+0003	 1.45107862605648E-0001	
 2.38050000000000E+0003	 1.45169998144712E-0001	
 2.38250000000000E+0003	 1.45424633683777E-0001	
 2.38450000000000E+0003	 1.45805269222841E-0001	
 2.38650000000000E+0003	 1.46209904761905E-0001	
 2.38850000000000E+0003	 1.46588540300969E-0001	
 2.39050000000000E+0003	 1.46931175840033E-0001	
 2.39250000000000E+0003	 1.47259311379097E-0001	
 2.39450000000000E+0003	 1.47598946918161E-0001	
 2.39650000000000E+0003	 1.47945082457225E-0001	
 2.39850000000000E+0003	 1.48303717996289E-0001	
 2.40050000000000E+0003	 1.48662353535354E-0001	
 2.40250000000000E+0003	 1.49033489074418E-0001	
 2.40450000000000E+0003	 1.49413124613482E-0001	
 2.40650000000000E+0003	 1.49797760152546E-0001	
 2.40850000000000E+0003	 1.50194895691610E-0001	
 2.41050000000000E+0003	 1.50614531230674E-0001	
 2.41250000000000E+0003	 1.51039166769738E-0001	
 2.41450000000000E+0003	 1.51481302308802E-0001	
 2.41650000000000E+0003	 1.51930437847866E-0001	
 2.41850000000000E+0003	 1.52383073386931E-0001	
 2.42050000000000E+0003	 1.52851708925995E-0001	
 2.42250000000000E+0003	 1.53338344465059E-0001	
 2.42450000000000E+0003	 1.53835980004123E-0001	
 2.42650000000000E+0003	 1.54338115543187E-0001	
 2.42850000000000E+0003	 1.54834751082251E-0001	
 2.43050000000000E+0003	 1.55333386621315E-0001	
 2.43250000000000E+0003	 1.55835022160379E-0001	
 2.43450000000000E+0003	 1.56345657699443E-0001	
 2.43650000000000E+0003	 1.56860293238508E-0001	
 2.43850000000000E+0003	 1.57381428777572E-0001	
 2.44050000000000E+0003	 1.57903064316636E-0001	
 2.44250000000000E+0003	 1.58420199855700E-0001	
 2.44450000000000E+0003	 1.58932335394764E-0001	
 2.44650000000000E+0003	 1.59465470933828E-0001	
 2.44850000000000E+0003	 1.60002106472892E-0001	
 2.45050000000000E+0003	 1.60544742011956E-0001	
 2.45250000000000E+0003	 1.61101877551020E-0001	
 2.45450000000000E+0003	 1.61665513090085E-0001	
 2.45650000000000E+0003	 1.62241148629149E-0001	
 2.45850000000000E+0003	 1.62830284168213E-0001	
 2.46050000000000E+0003	 1.63416419707277E-0001	
 2.46250000000000E+0003	 1.64007555246341E-0001	
 2.46450000000000E+0003	 1.64612690785405E-0001	
 2.46650000000000E+0003	 1.65233826324469E-0001	
 2.46850000000000E+0003	 1.65864461863533E-0001	
 2.47050000000000E+0003	 1.66499597402597E-0001	
 2.47250000000000E+0003	 1.67131232941662E-0001	
 2.47450000000000E+0003	 1.67758868480726E-0001	
 2.47650000000000E+0003	 1.68399504019790E-0001	
 2.47850000000000E+0003	 1.69073139558854E-0001	
 2.48050000000000E+0003	 1.69750275097918E-0001	
 2.48250000000000E+0003	 1.70411910636982E-0001	
 2.48450000000000E+0003	 1.71063046176046E-0001	
 2.48650000000000E+0003	 1.71724681715110E-0001	
 2.48850000000000E+0003	 1.72397317254174E-0001	
 2.49050000000000E+0003	 1.73064452793239E-0001	
 2.49250000000000E+0003	 1.73728088332303E-0001	
 2.49450000000000E+0003	 1.74405223871367E-0001	
 2.49650000000000E+0003	 1.75087359410431E-0001	
 2.49850000000000E+0003	 1.75761994949495E-0001	
 2.50050000000000E+0003	 1.76436630488559E-0001	
 2.50250000000000E+0003	 1.77105266027623E-0001	
 2.50450000000000E+0003	 1.77779901566687E-0001	
 2.50650000000000E+0003	 1.78466037105751E-0001	
 2.50850000000000E+0003	 1.79136672644816E-0001	
 2.51050000000000E+0003	 1.79793308183880E-0001	
 2.51250000000000E+0003	 1.80452443722944E-0001	
 2.51450000000000E+0003	 1.81106079262008E-0001	
 2.51650000000000E+0003	 1.81752714801072E-0001	
 2.51850000000000E+0003	 1.82399350340136E-0001	
 2.52050000000000E+0003	 1.83036485879200E-0001	
 2.52250000000000E+0003	 1.83666621418264E-0001	
 2.52450000000000E+0003	 1.84286256957328E-0001	
 2.52650000000000E+0003	 1.84911392496392E-0001	
 2.52850000000000E+0003	 1.85536028035457E-0001	
 2.53050000000000E+0003	 1.86146663574521E-0001	
 2.53250000000000E+0003	 1.86744299113585E-0001	
 2.53450000000000E+0003	 1.87338434652649E-0001	
 2.53650000000000E+0003	 1.87935570191713E-0001	
 2.53850000000000E+0003	 1.88523205730777E-0001	
 2.54050000000000E+0003	 1.89099841269841E-0001	
 2.54250000000000E+0003	 1.89675476808905E-0001	
 2.54450000000000E+0003	 1.90239112347969E-0001	
 2.54650000000000E+0003	 1.90803747887034E-0001	
 2.54850000000000E+0003	 1.91382383426098E-0001	
 2.55050000000000E+0003	 1.91965018965162E-0001	
 2.55250000000000E+0003	 1.92535654504226E-0001	
 2.55450000000000E+0003	 1.93092290043290E-0001	
 2.55650000000000E+0003	 1.93627925582354E-0001	
 2.55850000000000E+0003	 1.94177561121418E-0001	
 2.56050000000000E+0003	 1.94733696660482E-0001	
 2.56250000000000E+0003	 1.95261332199546E-0001	
 2.56450000000000E+0003	 1.95792967738611E-0001	
 2.56650000000000E+0003	 1.96352603277675E-0001	
 2.56850000000000E+0003	 1.96924238816739E-0001	
 2.57050000000000E+0003	 1.97505874355803E-0001	
 2.57250000000000E+0003	 1.98102009894867E-0001	
 2.57450000000000E+0003	 1.98714145433931E-0001	
 2.57650000000000E+0003	 1.99352780972995E-0001	
 2.57850000000000E+0003	 2.00028916512059E-0001	
 2.58050000000000E+0003	 2.00718552051123E-0001	
 2.58250000000000E+0003	 2.01406187590188E-0001	
 2.58450000000000E+0003	 2.02088323129252E-0001	
 2.58650000000000E+0003	 2.02756458668316E-0001	
 2.58850000000000E+0003	 2.03445094207380E-0001	
 2.59050000000000E+0003	 2.04172729746444E-0001	
 2.59250000000000E+0003	 2.04919865285508E-0001	
 2.59450000000000E+0003	 2.05674500824572E-0001	
 2.59650000000000E+0003	 2.06445136363636E-0001	
 2.59850000000000E+0003	 2.07248271902700E-0001	
 2.60050000000000E+0003	 2.08061407441765E-0001	
 2.60250000000000E+0003	 2.08882042980829E-0001	
 2.60450000000000E+0003	 2.09701178519893E-0001	
 2.60650000000000E+0003	 2.10517814058957E-0001	
 2.60850000000000E+0003	 2.11334949598021E-0001	
 2.61050000000000E+0003	 2.12146085137085E-0001	
 2.61250000000000E+0003	 2.12934720676149E-0001	
 2.61450000000000E+0003	 2.13707856215213E-0001	
 2.61650000000000E+0003	 2.14458991754277E-0001	
 2.61850000000000E+0003	 2.15177627293342E-0001	
 2.62050000000000E+0003	 2.15889762832406E-0001	
 2.62250000000000E+0003	 2.16601398371470E-0001	
 2.62450000000000E+0003	 2.17288533910534E-0001	
 2.62650000000000E+0003	 2.17958669449598E-0001	
 2.62850000000000E+0003	 2.18611804988662E-0001	
 2.63050000000000E+0003	 2.19250940527726E-0001	
 2.63250000000000E+0003	 2.19889576066790E-0001	
 2.63450000000000E+0003	 2.20523211605854E-0001	
 2.63650000000000E+0003	 2.21155347144919E-0001	
 2.63850000000000E+0003	 2.21778982683983E-0001	
 2.64050000000000E+0003	 2.22402118223047E-0001	
 2.64250000000000E+0003	 2.23046253762111E-0001	
 2.64450000000000E+0003	 2.23690889301175E-0001	
 2.64650000000000E+0003	 2.24311524840239E-0001	
 2.64850000000000E+0003	 2.24924660379303E-0001	
 2.65050000000000E+0003	 2.25565795918367E-0001	
 2.65250000000000E+0003	 2.26223431457431E-0001	
 2.65450000000000E+0003	 2.26868066996496E-0001	
 2.65650000000000E+0003	 2.27521702535560E-0001	
 2.65850000000000E+0003	 2.28200838074624E-0001	
 2.66050000000000E+0003	 2.28873973613688E-0001	
 2.66250000000000E+0003	 2.29538109152752E-0001	
 2.66450000000000E+0003	 2.30207244691816E-0001	
 2.66650000000000E+0003	 2.30899380230880E-0001	
 2.66850000000000E+0003	 2.31607515769944E-0001	
 2.67050000000000E+0003	 2.32328651309008E-0001	
 2.67250000000000E+0003	 2.33064786848073E-0001	
 2.67450000000000E+0003	 2.33799422387137E-0001	
 2.67650000000000E+0003	 2.34537057926201E-0001	
 2.67850000000000E+0003	 2.35280193465265E-0001	
 2.68050000000000E+0003	 2.36033829004329E-0001	
 2.68250000000000E+0003	 2.36800964543393E-0001	
 2.68450000000000E+0003	 2.37562100082457E-0001	
 2.68650000000000E+0003	 2.38315235621521E-0001	
 2.68850000000000E+0003	 2.39065371160585E-0001	
 2.69050000000000E+0003	 2.39837006699650E-0001	
 2.69250000000000E+0003	 2.40623642238714E-0001	
 2.69450000000000E+0003	 2.41432277777778E-0001	
 2.69650000000000E+0003	 2.42264913316842E-0001	
 2.69850000000000E+0003	 2.43125548855906E-0001	
 2.70050000000000E+0003	 2.44029684394970E-0001	
 2.70250000000000E+0003	 2.44962319934034E-0001	
 2.70450000000000E+0003	 2.45933455473098E-0001	
 2.70650000000000E+0003	 2.46976091012162E-0001	
 2.70850000000000E+0003	 2.48071726551227E-0001	
 2.71050000000000E+0003	 2.49217862090291E-0001	
 2.71250000000000E+0003	 2.50415997629355E-0001	
 2.71450000000000E+0003	 2.51649133168419E-0001	
 2.71650000000000E+0003	 2.52925768707483E-0001	
 2.71850000000000E+0003	 2.54273404246547E-0001	
 2.72050000000000E+0003	 2.55633039785611E-0001	
 2.72250000000000E+0003	 2.56945675324675E-0001	
 2.72450000000000E+0003	 2.58205310863739E-0001	
 2.72650000000000E+0003	 2.59432946402804E-0001	
 2.72850000000000E+0003	 2.60643081941868E-0001	
 2.73050000000000E+0003	 2.61831217480932E-0001	
 2.73250000000000E+0003	 2.63007853019996E-0001	
 2.73450000000000E+0003	 2.64168488559060E-0001	
 2.73650000000000E+0003	 2.65305624098124E-0001	
 2.73850000000000E+0003	 2.66422259637188E-0001	
 2.74050000000000E+0003	 2.67503895176252E-0001	
 2.74250000000000E+0003	 2.68564530715316E-0001	
 2.74450000000000E+0003	 2.69618166254381E-0001	
 2.74650000000000E+0003	 2.70671801793445E-0001	
 2.74850000000000E+0003	 2.71733937332509E-0001	
 2.75050000000000E+0003	 2.72796072871573E-0001	
 2.75250000000000E+0003	 2.73862208410637E-0001	
 2.75450000000000E+0003	 2.74943843949701E-0001	
 2.75650000000000E+0003	 2.76048979488765E-0001	
 2.75850000000000E+0003	 2.77178615027829E-0001	
 2.76050000000000E+0003	 2.78328750566893E-0001	
 2.76250000000000E+0003	 2.79487386105958E-0001	
 2.76450000000000E+0003	 2.80646021645022E-0001	
 2.76650000000000E+0003	 2.81807157184086E-0001	
 2.76850000000000E+0003	 2.82992792723150E-0001	
 2.77050000000000E+0003	 2.84201428262214E-0001	
 2.77250000000000E+0003	 2.85401563801278E-0001	
 2.77450000000000E+0003	 2.86634699340342E-0001	
 2.77650000000000E+0003	 2.87929834879406E-0001	
 2.77850000000000E+0003	 2.89239470418470E-0001	
 2.78050000000000E+0003	 2.90565605957535E-0001	
 2.78250000000000E+0003	 2.91943241496599E-0001	
 2.78450000000000E+0003	 2.93348377035663E-0001	
 2.78650000000000E+0003	 2.94772512574727E-0001	
 2.78850000000000E+0003	 2.96249148113791E-0001	
 2.79050000000000E+0003	 2.97777283652855E-0001	
 2.79250000000000E+0003	 2.99313419191919E-0001	
 2.79450000000000E+0003	 3.00833054730983E-0001	
 2.79650000000000E+0003	 3.02348190270047E-0001	
 2.79850000000000E+0003	 3.03901825809112E-0001	
 2.80050000000000E+0003	 3.05505961348176E-0001	
 2.80250000000000E+0003	 3.07141096887240E-0001	
 2.80450000000000E+0003	 3.08813232426304E-0001	
 2.80650000000000E+0003	 3.10504867965368E-0001	
 2.80850000000000E+0003	 3.12212003504432E-0001	
 2.81050000000000E+0003	 3.13946139043496E-0001	
 2.81250000000000E+0003	 3.15697274582560E-0001	
 2.81450000000000E+0003	 3.17463410121624E-0001	
 2.81650000000000E+0003	 3.19249545660689E-0001	
 2.81850000000000E+0003	 3.21081681199753E-0001	
 2.82050000000000E+0003	 3.22979316738817E-0001	
 2.82250000000000E+0003	 3.24935952277881E-0001	
 2.82450000000000E+0003	 3.26980587816945E-0001	
 2.82650000000000E+0003	 3.29113223356009E-0001	
 2.82850000000000E+0003	 3.31354358895073E-0001	
 2.83050000000000E+0003	 3.33735494434137E-0001	
 2.83250000000000E+0003	 3.36237129973201E-0001	
 2.83450000000000E+0003	 3.38848265512266E-0001	
 2.83650000000000E+0003	 3.41581401051330E-0001	
 2.83850000000000E+0003	 3.44587536590394E-0001	
 2.84050000000000E+0003	 3.48076672129458E-0001	
 2.84250000000000E+0003	 3.52236807668522E-0001	
 2.84450000000000E+0003	 3.57235443207586E-0001	
 2.84650000000000E+0003	 3.63082078746650E-0001	
 2.84850000000000E+0003	 3.69501714285714E-0001	
 2.85050000000000E+0003	 3.75847849824778E-0001	
 2.85250000000000E+0003	 3.81277485363843E-0001	
 2.85450000000000E+0003	 3.85153620902907E-0001	
 2.85650000000000E+0003	 3.87567256441971E-0001	
 2.85850000000000E+0003	 3.89269391981035E-0001	
 2.86050000000000E+0003	 3.91112527520099E-0001	
 2.86250000000000E+0003	 3.93650163059163E-0001	
 2.86450000000000E+0003	 3.97086798598227E-0001	
 2.86650000000000E+0003	 4.01278434137291E-0001	
 2.86850000000000E+0003	 4.05788569676355E-0001	
 2.87050000000000E+0003	 4.10028705215420E-0001	
 2.87250000000000E+0003	 4.13427840754484E-0001	
 2.87450000000000E+0003	 4.15565976293548E-0001	
 2.87650000000000E+0003	 4.16390111832612E-0001	
 2.87850000000000E+0003	 4.16260747371676E-0001	
 2.88050000000000E+0003	 4.15727382910740E-0001	
 2.88250000000000E+0003	 4.15268518449804E-0001	
 2.88450000000000E+0003	 4.15214653988868E-0001	
 2.88650000000000E+0003	 4.15756789527932E-0001	
 2.88850000000000E+0003	 4.16943425066996E-0001	
 2.89050000000000E+0003	 4.18720560606061E-0001	
 2.89250000000000E+0003	 4.21006696145125E-0001	
 2.89450000000000E+0003	 4.23714831684189E-0001	
 2.89650000000000E+0003	 4.26746467223253E-0001	
 2.89850000000000E+0003	 4.30001602762317E-0001	
 2.90050000000000E+0003	 4.33480238301381E-0001	
 2.90250000000000E+0003	 4.37238873840445E-0001	
 2.90450000000000E+0003	 4.41371009379509E-0001	
 2.90650000000000E+0003	 4.45971644918573E-0001	
 2.90850000000000E+0003	 4.51111780457638E-0001	
 2.91050000000000E+0003	 4.56817415996702E-0001	
 2.91250000000000E+0003	 4.63109051535766E-0001	
 2.91450000000000E+0003	 4.69880687074830E-0001	
 2.91650000000000E+0003	 4.76878322613894E-0001	
 2.91850000000000E+0003	 4.83789958152958E-0001	
 2.92050000000000E+0003	 4.90235093692022E-0001	
 2.92250000000000E+0003	 4.95820729231086E-0001	
 2.92450000000000E+0003	 5.00263364770150E-0001	
 2.92650000000000E+0003	 5.03518500309215E-0001	
 2.92850000000000E+0003	 5.05707135848279E-0001	
 2.93050000000000E+0003	 5.06877771387343E-0001	
 2.93250000000000E+0003	 5.07008406926407E-0001	
 2.93450000000000E+0003	 5.06136542465471E-0001	
 2.93650000000000E+0003	 5.04291178004535E-0001	
 2.93850000000000E+0003	 5.01568813543599E-0001	
 2.94050000000000E+0003	 4.98313949082663E-0001	
 2.94250000000000E+0003	 4.95051084621727E-0001	
 2.94450000000000E+0003	 4.92292720160792E-0001	
 2.94650000000000E+0003	 4.90464855699856E-0001	
 2.94850000000000E+0003	 4.89881991238920E-0001	
 2.95050000000000E+0003	 4.90666626777984E-0001	
 2.95250000000000E+0003	 4.92642262317048E-0001	
 2.95450000000000E+0003	 4.95276897856112E-0001	
 2.95650000000000E+0003	 4.97933033395176E-0001	
 2.95850000000000E+0003	 5.00001168934240E-0001	
 2.96050000000000E+0003	 5.01004304473304E-0001	
 2.96250000000000E+0003	 5.00682440012369E-0001	
 2.96450000000000E+0003	 4.98990075551433E-0001	
 2.96650000000000E+0003	 4.96037211090497E-0001	
 2.96850000000000E+0003	 4.92073346629561E-0001	
 2.97050000000000E+0003	 4.87663482168625E-0001	
 2.97250000000000E+0003	 4.83287617707689E-0001	
 2.97450000000000E+0003	 4.78864753246753E-0001	
 2.97650000000000E+0003	 4.74307888785817E-0001	
 2.97850000000000E+0003	 4.69739524324881E-0001	
 2.98050000000000E+0003	 4.65256159863946E-0001	
 2.98250000000000E+0003	 4.60878295403010E-0001	
 2.98450000000000E+0003	 4.56669430942074E-0001	
 2.98650000000000E+0003	 4.52731566481138E-0001	
 2.98850000000000E+0003	 4.49145202020202E-0001	
 2.99050000000000E+0003	 4.45958337559266E-0001	
 2.99250000000000E+0003	 4.43231973098330E-0001	
 2.99450000000000E+0003	 4.40961608637394E-0001	
 2.99650000000000E+0003	 4.39223744176458E-0001	
 2.99850000000000E+0003	 4.38061879715523E-0001	
 3.00050000000000E+0003	 4.37364015254587E-0001	
 3.00250000000000E+0003	 4.37082650793651E-0001	
 3.00450000000000E+0003	 4.37192786332715E-0001	
 3.00650000000000E+0003	 4.37556421871779E-0001	
 3.00850000000000E+0003	 4.38107057410843E-0001	
 3.01050000000000E+0003	 4.38898692949907E-0001	
 3.01250000000000E+0003	 4.39962828488971E-0001	
 3.01450000000000E+0003	 4.41253464028035E-0001	
 3.01650000000000E+0003	 4.42766599567100E-0001	
 3.01850000000000E+0003	 4.44524735106164E-0001	
 3.02050000000000E+0003	 4.46494370645228E-0001	
 3.02250000000000E+0003	 4.48615006184292E-0001	
 3.02450000000000E+0003	 4.50902141723356E-0001	
 3.02650000000000E+0003	 4.53254777262420E-0001	
 3.02850000000000E+0003	 4.55563912801484E-0001	
 3.03050000000000E+0003	 4.57845548340548E-0001	
 3.03250000000000E+0003	 4.60103683879612E-0001	
 3.03450000000000E+0003	 4.62397319418677E-0001	
 3.03650000000000E+0003	 4.64738954957741E-0001	
 3.03850000000000E+0003	 4.67044090496805E-0001	
 3.04050000000000E+0003	 4.69381726035869E-0001	
 3.04250000000000E+0003	 4.71818361574933E-0001	
 3.04450000000000E+0003	 4.74296497113997E-0001	
 3.04650000000000E+0003	 4.76755632653061E-0001	
 3.04850000000000E+0003	 4.79174768192125E-0001	
 3.05050000000000E+0003	 4.81602903731189E-0001	
 3.05250000000000E+0003	 4.84038539270254E-0001	
 3.05450000000000E+0003	 4.86409174809318E-0001	
 3.05650000000000E+0003	 4.88717810348382E-0001	
 3.05850000000000E+0003	 4.90891945887446E-0001	
 3.06050000000000E+0003	 4.92838081426510E-0001	
 3.06250000000000E+0003	 4.94524716965574E-0001	
 3.06450000000000E+0003	 4.95981852504638E-0001	
 3.06650000000000E+0003	 4.97277488043702E-0001	
 3.06850000000000E+0003	 4.98488623582766E-0001	
 3.07050000000000E+0003	 4.99589259121831E-0001	
 3.07250000000000E+0003	 5.00528894660895E-0001	
 3.07450000000000E+0003	 5.01276030199959E-0001	
 3.07650000000000E+0003	 5.01914665739023E-0001	
 3.07850000000000E+0003	 5.02568801278087E-0001	
 3.08050000000000E+0003	 5.03238936817151E-0001	
 3.08250000000000E+0003	 5.03838572356215E-0001	
 3.08450000000000E+0003	 5.04391707895279E-0001	
 3.08650000000000E+0003	 5.04889843434343E-0001	
 3.08850000000000E+0003	 5.05294478973408E-0001	
 3.09050000000000E+0003	 5.05656614512472E-0001	
 3.09250000000000E+0003	 5.05992250051536E-0001	
 3.09450000000000E+0003	 5.06287885590600E-0001	
 3.09650000000000E+0003	 5.06568521129664E-0001	
 3.09850000000000E+0003	 5.06865156668728E-0001	
 3.10050000000000E+0003	 5.07287792207792E-0001	
 3.10250000000000E+0003	 5.07802427746856E-0001	
 3.10450000000000E+0003	 5.08329063285920E-0001	
 3.10650000000000E+0003	 5.08891698824985E-0001	
 3.10850000000000E+0003	 5.09603834364049E-0001	
 3.11050000000000E+0003	 5.10448969903113E-0001	
 3.11250000000000E+0003	 5.11315105442177E-0001	
 3.11450000000000E+0003	 5.12247740981241E-0001	
 3.11650000000000E+0003	 5.13370376520305E-0001	
 3.11850000000000E+0003	 5.14656512059369E-0001	
 3.12050000000000E+0003	 5.16100147598433E-0001	
 3.12250000000000E+0003	 5.17686783137497E-0001	
 3.12450000000000E+0003	 5.19338418676562E-0001	
 3.12650000000000E+0003	 5.21053554215626E-0001	
 3.12850000000000E+0003	 5.22857689754690E-0001	
 3.13050000000000E+0003	 5.24757325293754E-0001	
 3.13250000000000E+0003	 5.26750460832818E-0001	
 3.13450000000000E+0003	 5.28817596371882E-0001	
 3.13650000000000E+0003	 5.30945231910946E-0001	
 3.13850000000000E+0003	 5.33176367450010E-0001	
 3.14050000000000E+0003	 5.35537002989074E-0001	
 3.14250000000000E+0003	 5.37969138528139E-0001	
 3.14450000000000E+0003	 5.40439774067203E-0001	
 3.14650000000000E+0003	 5.42962909606267E-0001	
 3.14850000000000E+0003	 5.45536045145331E-0001	
 3.15050000000000E+0003	 5.48171180684395E-0001	
 3.15250000000000E+0003	 5.50936816223459E-0001	
 3.15450000000000E+0003	 5.53785451762523E-0001	
 3.15650000000000E+0003	 5.56651587301587E-0001	
 3.15850000000000E+0003	 5.59540222840651E-0001	
 3.16050000000000E+0003	 5.62480358379716E-0001	
 3.16250000000000E+0003	 5.65476993918780E-0001	
 3.16450000000000E+0003	 5.68528629457844E-0001	
 3.16650000000000E+0003	 5.71603264996908E-0001	
 3.16850000000000E+0003	 5.74694900535972E-0001	
 3.17050000000000E+0003	 5.77792536075036E-0001	
 3.17250000000000E+0003	 5.80903671614100E-0001	
 3.17450000000000E+0003	 5.84009307153164E-0001	
 3.17650000000000E+0003	 5.87104442692228E-0001	
 3.17850000000000E+0003	 5.90204578231293E-0001	
 3.18050000000000E+0003	 5.93267213770357E-0001	
 3.18250000000000E+0003	 5.96260849309421E-0001	
 3.18450000000000E+0003	 5.99233984848485E-0001	
 3.18650000000000E+0003	 6.02185120387549E-0001	
 3.18850000000000E+0003	 6.05079755926613E-0001	
 3.19050000000000E+0003	 6.07903891465677E-0001	
 3.19250000000000E+0003	 6.10656527004741E-0001	
 3.19450000000000E+0003	 6.13321662543805E-0001	
 3.19650000000000E+0003	 6.15930298082870E-0001	
 3.19850000000000E+0003	 6.18499433621934E-0001	
 3.20050000000000E+0003	 6.21003569160998E-0001	
 3.20250000000000E+0003	 6.23427204700062E-0001	
 3.20450000000000E+0003	 6.25775840239126E-0001	
 3.20650000000000E+0003	 6.28049975778190E-0001	
 3.20850000000000E+0003	 6.30279611317254E-0001	
 3.21050000000000E+0003	 6.32476746856318E-0001	
 3.21250000000000E+0003	 6.34653882395382E-0001	
 3.21450000000000E+0003	 6.36835017934447E-0001	
 3.21650000000000E+0003	 6.39020653473511E-0001	
 3.21850000000000E+0003	 6.41233289012575E-0001	
 3.22050000000000E+0003	 6.43481424551639E-0001	
 3.22250000000000E+0003	 6.45717060090703E-0001	
 3.22450000000000E+0003	 6.47995695629767E-0001	
 3.22650000000000E+0003	 6.50342831168831E-0001	
 3.22850000000000E+0003	 6.52777466707895E-0001	
 3.23050000000000E+0003	 6.55298602246959E-0001	
 3.23250000000000E+0003	 6.57931737786024E-0001	
 3.23450000000000E+0003	 6.60674873325088E-0001	
 3.23650000000000E+0003	 6.63516508864152E-0001	
 3.23850000000000E+0003	 6.66475144403216E-0001	
 3.24050000000000E+0003	 6.69562779942280E-0001	
 3.24250000000000E+0003	 6.72752915481344E-0001	
 3.24450000000000E+0003	 6.76092551020408E-0001	
 3.24650000000000E+0003	 6.79614186559472E-0001	
 3.24850000000000E+0003	 6.83255322098536E-0001	
 3.25050000000000E+0003	 6.86959957637600E-0001	
 3.25250000000000E+0003	 6.90780593176665E-0001	
 3.25450000000000E+0003	 6.94729228715729E-0001	
 3.25650000000000E+0003	 6.98797864254793E-0001	
 3.25850000000000E+0003	 7.02912499793857E-0001	
 3.26050000000000E+0003	 7.07041635332921E-0001	
 3.26250000000000E+0003	 7.11178270871985E-0001	
 3.26450000000000E+0003	 7.15309406411049E-0001	
 3.26650000000000E+0003	 7.19316041950113E-0001	
 3.26850000000000E+0003	 7.23153677489177E-0001	
 3.27050000000000E+0003	 7.26944313028242E-0001	
 3.27250000000000E+0003	 7.30696448567306E-0001	
 3.27450000000000E+0003	 7.34241584106370E-0001	
 3.27650000000000E+0003	 7.37572719645434E-0001	
 3.27850000000000E+0003	 7.40682855184498E-0001	
 3.28050000000000E+0003	 7.43567490723562E-0001	
 3.28250000000000E+0003	 7.46239126262626E-0001	
 3.28450000000000E+0003	 7.48684761801690E-0001	
 3.28650000000000E+0003	 7.50863397340754E-0001	
 3.28850000000000E+0003	 7.52798532879819E-0001	
 3.29050000000000E+0003	 7.54496168418883E-0001	
 3.29250000000000E+0003	 7.56012803957947E-0001	
 3.29450000000000E+0003	 7.57331939497011E-0001	
 3.29650000000000E+0003	 7.58486075036075E-0001	
 3.29850000000000E+0003	 7.59441710575139E-0001	
 3.30050000000000E+0003	 7.60130846114203E-0001	
 3.30250000000000E+0003	 7.60555481653267E-0001	
 3.30450000000000E+0003	 7.60839117192331E-0001	
 3.30650000000000E+0003	 7.61065752731396E-0001	
 3.30850000000000E+0003	 7.61232888270460E-0001	
 3.31050000000000E+0003	 7.61275023809524E-0001	
 3.31250000000000E+0003	 7.61197159348588E-0001	
 3.31450000000000E+0003	 7.61009794887652E-0001	
 3.31650000000000E+0003	 7.60752930426716E-0001	
 3.31850000000000E+0003	 7.60448065965780E-0001	
 3.32050000000000E+0003	 7.60070201504844E-0001	
 3.32250000000000E+0003	 7.59608337043908E-0001	
 3.32450000000000E+0003	 7.59176472582973E-0001	
 3.32650000000000E+0003	 7.58808108122037E-0001	
 3.32850000000000E+0003	 7.58452243661101E-0001	
 3.33050000000000E+0003	 7.58096379200165E-0001	
 3.33250000000000E+0003	 7.57752514739229E-0001	
 3.33450000000000E+0003	 7.57403650278293E-0001	
 3.33650000000000E+0003	 7.57072785817357E-0001	
 3.33850000000000E+0003	 7.56806921356421E-0001	
 3.34050000000000E+0003	 7.56639556895485E-0001	
 3.34250000000000E+0003	 7.56522192434550E-0001	
 3.34450000000000E+0003	 7.56433827973614E-0001	
 3.34650000000000E+0003	 7.56334963512678E-0001	
 3.34850000000000E+0003	 7.56261599051742E-0001	
 3.35050000000000E+0003	 7.56279734590806E-0001	
 3.35250000000000E+0003	 7.56394870129870E-0001	
 3.35450000000000E+0003	 7.56521505668934E-0001	
 3.35650000000000E+0003	 7.56635641207998E-0001	
 3.35850000000000E+0003	 7.56736776747062E-0001	
 3.36050000000000E+0003	 7.56898912286127E-0001	
 3.36250000000000E+0003	 7.57074547825191E-0001	
 3.36450000000000E+0003	 7.57252183364255E-0001	
 3.36650000000000E+0003	 7.57467318903319E-0001	
 3.36850000000000E+0003	 7.57705954442383E-0001	
 3.37050000000000E+0003	 7.57916089981447E-0001	
 3.37250000000000E+0003	 7.58086725520511E-0001	
 3.37450000000000E+0003	 7.58223361059575E-0001	
 3.37650000000000E+0003	 7.58330996598639E-0001	
 3.37850000000000E+0003	 7.58391132137704E-0001	
 3.38050000000000E+0003	 7.58428267676768E-0001	
 3.38250000000000E+0003	 7.58442903215832E-0001	
 3.38450000000000E+0003	 7.58433538754896E-0001	
 3.38650000000000E+0003	 7.58364174293960E-0001	
 3.38850000000000E+0003	 7.58264309833024E-0001	
 3.39050000000000E+0003	 7.58203945372088E-0001	
 3.39250000000000E+0003	 7.58154580911152E-0001	
 3.39450000000000E+0003	 7.57971716450216E-0001	
 3.39650000000000E+0003	 7.57781351989281E-0001	
 3.39850000000000E+0003	 7.57664487528345E-0001	
 3.40050000000000E+0003	 7.57527123067409E-0001	
 3.40250000000000E+0003	 7.57251258606473E-0001	
 3.40450000000000E+0003	 7.56887394145537E-0001	
 3.40650000000000E+0003	 7.56532529684601E-0001	
 3.40850000000000E+0003	 7.56183665223665E-0001	
 3.41050000000000E+0003	 7.55759800762729E-0001	
 3.41250000000000E+0003	 7.55266436301793E-0001	
 3.41450000000000E+0003	 7.54688071840858E-0001	
 3.41650000000000E+0003	 7.53990207379922E-0001	
 3.41850000000000E+0003	 7.53230342918986E-0001	
 3.42050000000000E+0003	 7.52493978458050E-0001	
 3.42250000000000E+0003	 7.51656613997114E-0001	
 3.42450000000000E+0003	 7.50673249536178E-0001	
 3.42650000000000E+0003	 7.49634385075242E-0001	
 3.42850000000000E+0003	 7.48570020614306E-0001	
 3.43050000000000E+0003	 7.47391156153370E-0001	
 3.43250000000000E+0003	 7.46141291692435E-0001	
 3.43450000000000E+0003	 7.44848927231499E-0001	
 3.43650000000000E+0003	 7.43379062770563E-0001	
 3.43850000000000E+0003	 7.41673698309627E-0001	
 3.44050000000000E+0003	 7.39910833848691E-0001	
 3.44250000000000E+0003	 7.38138469387755E-0001	
 3.44450000000000E+0003	 7.36322104926819E-0001	
 3.44650000000000E+0003	 7.34553740465883E-0001	
 3.44850000000000E+0003	 7.32673876004947E-0001	
 3.45050000000000E+0003	 7.30622511544012E-0001	
 3.45250000000000E+0003	 7.28555147083076E-0001	
 3.45450000000000E+0003	 7.26426782622140E-0001	
 3.45650000000000E+0003	 7.24253918161204E-0001	
 3.45850000000000E+0003	 7.22068553700268E-0001	
 3.46050000000000E+0003	 7.19807689239332E-0001	
 3.46250000000000E+0003	 7.17445324778396E-0001	
 3.46450000000000E+0003	 7.15135960317460E-0001	
 3.46650000000000E+0003	 7.12915095856524E-0001	
 3.46850000000000E+0003	 7.10492231395589E-0001	
 3.47050000000000E+0003	 7.07697366934653E-0001	
 3.47250000000000E+0003	 7.04833002473717E-0001	
 3.47450000000000E+0003	 7.02109138012781E-0001	
 3.47650000000000E+0003	 6.99439273551845E-0001	
 3.47850000000000E+0003	 6.96742409090909E-0001	
 3.48050000000000E+0003	 6.93943544629973E-0001	
 3.48250000000000E+0003	 6.91015180169037E-0001	
 3.48450000000000E+0003	 6.88077815708101E-0001	
 3.48650000000000E+0003	 6.85176951247166E-0001	
 3.48850000000000E+0003	 6.82201586786230E-0001	
 3.49050000000000E+0003	 6.79139722325294E-0001	
 3.49250000000000E+0003	 6.76088357864358E-0001	
 3.49450000000000E+0003	 6.73054493403422E-0001	
 3.49650000000000E+0003	 6.69978128942486E-0001	
 3.49850000000000E+0003	 6.66758264481550E-0001	
 3.50050000000000E+0003	 6.63527900020614E-0001	
 3.50250000000000E+0003	 6.60341535559678E-0001	
 3.50450000000000E+0003	 6.56918671098743E-0001	
 3.50650000000000E+0003	 6.53349306637807E-0001	
 3.50850000000000E+0003	 6.49953942176871E-0001	
 3.51050000000000E+0003	 6.46645577715935E-0001	
 3.51250000000000E+0003	 6.43269213254999E-0001	
 3.51450000000000E+0003	 6.39741848794063E-0001	
 3.51650000000000E+0003	 6.36090984333127E-0001	
 3.51850000000000E+0003	 6.32398119872191E-0001	
 3.52050000000000E+0003	 6.28744255411255E-0001	
 3.52250000000000E+0003	 6.25168390950320E-0001	
 3.52450000000000E+0003	 6.21382026489384E-0001	
 3.52650000000000E+0003	 6.17441662028448E-0001	
 3.52850000000000E+0003	 6.13591797567512E-0001	
 3.53050000000000E+0003	 6.09727933106576E-0001	
 3.53250000000000E+0003	 6.05821068645640E-0001	
 3.53450000000000E+0003	 6.01962204184704E-0001	
 3.53650000000000E+0003	 5.98011339723768E-0001	
 3.53850000000000E+0003	 5.93818975262832E-0001	
 3.54050000000000E+0003	 5.89608110801897E-0001	
 3.54250000000000E+0003	 5.85473746340961E-0001	
 3.54450000000000E+0003	 5.81269381880025E-0001	
 3.54650000000000E+0003	 5.76804017419089E-0001	
 3.54850000000000E+0003	 5.72183652958153E-0001	
 3.55050000000000E+0003	 5.67701788497217E-0001	
 3.55250000000000E+0003	 5.63256924036281E-0001	
 3.55450000000000E+0003	 5.58670059575345E-0001	
 3.55650000000000E+0003	 5.54053695114409E-0001	
 3.55850000000000E+0003	 5.49435830653474E-0001	
 3.56050000000000E+0003	 5.44699466192538E-0001	
 3.56250000000000E+0003	 5.39699601731602E-0001	
 3.56450000000000E+0003	 5.34598237270666E-0001	
 3.56650000000000E+0003	 5.29709372809730E-0001	
 3.56850000000000E+0003	 5.24901008348794E-0001	
 3.57050000000000E+0003	 5.19956643887858E-0001	
 3.57250000000000E+0003	 5.14905779426922E-0001	
 3.57450000000000E+0003	 5.09773414965986E-0001	
 3.57650000000000E+0003	 5.04580550505051E-0001	
 3.57850000000000E+0003	 4.99354686044115E-0001	
 3.58050000000000E+0003	 4.94065821583179E-0001	
 3.58250000000000E+0003	 4.88664457122243E-0001	
 3.58450000000000E+0003	 4.83195592661307E-0001	
 3.58650000000000E+0003	 4.77654728200371E-0001	
 3.58850000000000E+0003	 4.71882863739435E-0001	
 3.59050000000000E+0003	 4.66145999278499E-0001	
 3.59250000000000E+0003	 4.60650634817563E-0001	
 3.59450000000000E+0003	 4.55106270356627E-0001	
 3.59650000000000E+0003	 4.49466905895692E-0001	
 3.59850000000000E+0003	 4.43868541434756E-0001	
 3.60050000000000E+0003	 4.38241176973820E-0001	
 3.60250000000000E+0003	 4.32498812512884E-0001	
 3.60450000000000E+0003	 4.26656448051948E-0001	
 3.60650000000000E+0003	 4.20790083591012E-0001	
 3.60850000000000E+0003	 4.14891219130076E-0001	
 3.61050000000000E+0003	 4.09045354669140E-0001	
 3.61250000000000E+0003	 4.03373490208204E-0001	
 3.61450000000000E+0003	 3.97640125747269E-0001	
 3.61650000000000E+0003	 3.92050261286333E-0001	
 3.61850000000000E+0003	 3.86672896825397E-0001	
 3.62050000000000E+0003	 3.80875032364461E-0001	
 3.62250000000000E+0003	 3.74837167903525E-0001	
 3.62450000000000E+0003	 3.68999803442589E-0001	
 3.62650000000000E+0003	 3.63361438981653E-0001	
 3.62850000000000E+0003	 3.57701074520717E-0001	
 3.63050000000000E+0003	 3.51795210059781E-0001	
 3.63250000000000E+0003	 3.46310845598846E-0001	
 3.63450000000000E+0003	 3.41035981137910E-0001	
 3.63650000000000E+0003	 3.35649616676974E-0001	
 3.63850000000000E+0003	 3.30309252216038E-0001	
 3.64050000000000E+0003	 3.24926387755102E-0001	
 3.64250000000000E+0003	 3.19528023294166E-0001	
 3.64450000000000E+0003	 3.14183158833230E-0001	
 3.64650000000000E+0003	 3.08943794372294E-0001	
 3.64850000000000E+0003	 3.03808929911358E-0001	
 3.65050000000000E+0003	 2.98776065450423E-0001	
 3.65250000000000E+0003	 2.93865700989487E-0001	
 3.65450000000000E+0003	 2.89327336528551E-0001	
 3.65650000000000E+0003	 2.84785972067615E-0001	
 3.65850000000000E+0003	 2.80222107606679E-0001	
 3.66050000000000E+0003	 2.75878243145743E-0001	
 3.66250000000000E+0003	 2.71527378684807E-0001	
 3.66450000000000E+0003	 2.67273014223871E-0001	
 3.66650000000000E+0003	 2.63221649762935E-0001	
 3.66850000000000E+0003	 2.59334285302000E-0001	
 3.67050000000000E+0003	 2.55492420841064E-0001	
 3.67250000000000E+0003	 2.51734556380128E-0001	
 3.67450000000000E+0003	 2.48304191919192E-0001	
 3.67650000000000E+0003	 2.44848827458256E-0001	
 3.67850000000000E+0003	 2.41630962997320E-0001	
 3.68050000000000E+0003	 2.38693598536384E-0001	
 3.68250000000000E+0003	 2.35764234075448E-0001	
 3.68450000000000E+0003	 2.32988869614512E-0001	
 3.68650000000000E+0003	 2.30318005153577E-0001	
 3.68850000000000E+0003	 2.27770140692641E-0001	
 3.69050000000000E+0003	 2.25201776231705E-0001	
 3.69250000000000E+0003	 2.22665411770769E-0001	
 3.69450000000000E+0003	 2.20421047309833E-0001	
 3.69650000000000E+0003	 2.18365682848897E-0001	
 3.69850000000000E+0003	 2.16367318387961E-0001	
 3.70050000000000E+0003	 2.14470953927025E-0001	
 3.70250000000000E+0003	 2.12641089466089E-0001	
 3.70450000000000E+0003	 2.10828725005154E-0001	
 3.70650000000000E+0003	 2.09071860544218E-0001	
 3.70850000000000E+0003	 2.07349496083282E-0001	
 3.71050000000000E+0003	 2.05808631622346E-0001	
 3.71250000000000E+0003	 2.04507267161410E-0001	
 3.71450000000000E+0003	 2.03267402700474E-0001	
 3.71650000000000E+0003	 2.02003038239538E-0001	
 3.71850000000000E+0003	 2.00667673778602E-0001	
 3.72050000000000E+0003	 1.99305309317666E-0001	
 3.72250000000000E+0003	 1.98010944856731E-0001	
 3.72450000000000E+0003	 1.96753580395795E-0001	
 3.72650000000000E+0003	 1.95588215934859E-0001	
 3.72850000000000E+0003	 1.94516851473923E-0001	
 3.73050000000000E+0003	 1.93465987012987E-0001	
 3.73250000000000E+0003	 1.92405122552051E-0001	
 3.73450000000000E+0003	 1.91313258091115E-0001	
 3.73650000000000E+0003	 1.90264393630179E-0001	
 3.73850000000000E+0003	 1.89337529169243E-0001	
 3.74050000000000E+0003	 1.88583664708308E-0001	
 3.74250000000000E+0003	 1.87639300247372E-0001	
 3.74450000000000E+0003	 1.86679435786436E-0001	
 3.74650000000000E+0003	 1.85807571325500E-0001	
 3.74850000000000E+0003	 1.84930206864564E-0001	
 3.75050000000000E+0003	 1.84117842403628E-0001	
 3.75250000000000E+0003	 1.83462477942692E-0001	
 3.75450000000000E+0003	 1.82796613481756E-0001	
 3.75650000000000E+0003	 1.82088249020820E-0001	
 3.75850000000000E+0003	 1.81360384559885E-0001	
 3.76050000000000E+0003	 1.80694520098949E-0001	
 3.76250000000000E+0003	 1.79966655638013E-0001	
 3.76450000000000E+0003	 1.79254291177077E-0001	
 3.76650000000000E+0003	 1.78529426716141E-0001	
 3.76850000000000E+0003	 1.77786062255205E-0001	
 3.77050000000000E+0003	 1.77191197794269E-0001	
 3.77250000000000E+0003	 1.76602833333333E-0001	
 3.77450000000000E+0003	 1.75971968872397E-0001	
 3.77650000000000E+0003	 1.75258104411462E-0001	
 3.77850000000000E+0003	 1.74611739950526E-0001	
 3.78050000000000E+0003	 1.74043875489590E-0001	
 3.78250000000000E+0003	 1.73394011028654E-0001	
 3.78450000000000E+0003	 1.72805146567718E-0001	
 3.78650000000000E+0003	 1.72251282106782E-0001	
 3.78850000000000E+0003	 1.71712417645846E-0001	
 3.79050000000000E+0003	 1.71158553184910E-0001	
 3.79250000000000E+0003	 1.70529188723974E-0001	
 3.79450000000000E+0003	 1.69831824263039E-0001	
 3.79650000000000E+0003	 1.69314459802103E-0001	
 3.79850000000000E+0003	 1.68812095341167E-0001	
 3.80050000000000E+0003	 1.68219730880231E-0001	
 3.80250000000000E+0003	 1.67677366419295E-0001	
 3.80450000000000E+0003	 1.67096501958359E-0001	
 3.80650000000000E+0003	 1.66683137497423E-0001	
 3.80850000000000E+0003	 1.66284273036487E-0001	
 3.81050000000000E+0003	 1.65861908575551E-0001	
 3.81250000000000E+0003	 1.65375044114616E-0001	
 3.81450000000000E+0003	 1.64735179653680E-0001	
 3.81650000000000E+0003	 1.64236815192744E-0001	
 3.81850000000000E+0003	 1.63748450731808E-0001	
 3.82050000000000E+0003	 1.63395586270872E-0001	
 3.82250000000000E+0003	 1.63005221809936E-0001	
 3.82450000000000E+0003	 1.62517857349000E-0001	
 3.82650000000000E+0003	 1.62146492888064E-0001	
 3.82850000000000E+0003	 1.61725628427128E-0001	
 3.83050000000000E+0003	 1.61304263966193E-0001	
 3.83250000000000E+0003	 1.60984399505257E-0001	
 3.83450000000000E+0003	 1.60694535044321E-0001	
 3.83650000000000E+0003	 1.60275170583385E-0001	
 3.83850000000000E+0003	 1.59737806122449E-0001	
 3.84050000000000E+0003	 1.59260941661513E-0001	
 3.84250000000000E+0003	 1.58895077200577E-0001	
 3.84450000000000E+0003	 1.58609212739641E-0001	
 3.84650000000000E+0003	 1.58240848278705E-0001	
 3.84850000000000E+0003	 1.57885983817770E-0001	
 3.85050000000000E+0003	 1.57551119356834E-0001	
 3.85250000000000E+0003	 1.57436254895898E-0001	
 3.85450000000000E+0003	 1.57388390434962E-0001	
 3.85650000000000E+0003	 1.56837525974026E-0001	
 3.85850000000000E+0003	 1.56248661513090E-0001	
 3.86050000000000E+0003	 1.55819297052154E-0001	
 3.86250000000000E+0003	 1.55557432591218E-0001	
 3.86450000000000E+0003	 1.55385068130282E-0001	
 3.86650000000000E+0003	 1.55048703669347E-0001	
 3.86850000000000E+0003	 1.54631339208411E-0001	
 3.87050000000000E+0003	 1.54374974747475E-0001	
 3.87250000000000E+0003	 1.54120110286539E-0001	
 3.87450000000000E+0003	 1.53956245825603E-0001	
 3.87650000000000E+0003	 1.53639881364667E-0001	
 3.87850000000000E+0003	 1.53268016903731E-0001	
 3.88050000000000E+0003	 1.53076652442795E-0001	
 3.88250000000000E+0003	 1.52842787981859E-0001	
 3.88450000000000E+0003	 1.52533423520924E-0001	
 3.88650000000000E+0003	 1.52310059059988E-0001	
 3.88850000000000E+0003	 1.52094694599052E-0001	
 3.89050000000000E+0003	 1.51994330138116E-0001	
 3.89250000000000E+0003	 1.51842965677180E-0001	
 3.89450000000000E+0003	 1.51538101216244E-0001	
 3.89650000000000E+0003	 1.51223736755308E-0001	
 3.89850000000000E+0003	 1.50901372294372E-0001	
 3.90050000000000E+0003	 1.50510007833436E-0001	
 3.90250000000000E+0003	 1.50328143372501E-0001	
 3.90450000000000E+0003	 1.50470778911565E-0001	
 3.90650000000000E+0003	 1.50414914450629E-0001	
 3.90850000000000E+0003	 1.50166549989693E-0001	
 3.91050000000000E+0003	 1.49953685528757E-0001	
 3.91250000000000E+0003	 1.49759821067821E-0001	
 3.91450000000000E+0003	 1.49504956606885E-0001	
 3.91650000000000E+0003	 1.49239092145949E-0001	
 3.91850000000000E+0003	 1.49057227685013E-0001	
 3.92050000000000E+0003	 1.48965363224078E-0001	
 3.92250000000000E+0003	 1.48846998763142E-0001	
 3.92450000000000E+0003	 1.48754634302206E-0001	
 3.92650000000000E+0003	 1.48604769841270E-0001	
 3.92850000000000E+0003	 1.48374405380334E-0001	
 3.93050000000000E+0003	 1.48116040919398E-0001	
 3.93250000000000E+0003	 1.47897176458462E-0001	
 3.93450000000000E+0003	 1.47769311997526E-0001	
 3.93650000000000E+0003	 1.47648447536590E-0001	
 3.93850000000000E+0003	 1.47477583075655E-0001	
 3.94050000000000E+0003	 1.47274218614719E-0001	
 3.94250000000000E+0003	 1.47120854153783E-0001	
 3.94450000000000E+0003	 1.46904989692847E-0001	
 3.94650000000000E+0003	 1.46630625231911E-0001	
 3.94850000000000E+0003	 1.46473260770975E-0001	
 3.95050000000000E+0003	 1.46400896310039E-0001	
 3.95250000000000E+0003	 1.46266031849103E-0001	
 3.95450000000000E+0003	 1.46071667388167E-0001	
 3.95650000000000E+0003	 1.45888302927231E-0001	
 3.95850000000000E+0003	 1.45708438466296E-0001	
 3.96050000000000E+0003	 1.45519574005360E-0001	
 3.96250000000000E+0003	 1.45347209544424E-0001	
 3.96450000000000E+0003	 1.45188845083488E-0001	
 3.96650000000000E+0003	 1.45025980622552E-0001	
 3.96850000000000E+0003	 1.44851616161616E-0001	
 3.97050000000000E+0003	 1.44665251700680E-0001	
 3.97250000000000E+0003	 1.44489387239744E-0001	
 3.97450000000000E+0003	 1.44331022778808E-0001	
 3.97650000000000E+0003	 1.44170158317873E-0001	
 3.97850000000000E+0003	 1.43990293856937E-0001	
 3.98050000000000E+0003	 1.43815429396001E-0001	
 3.98250000000000E+0003	 1.43663564935065E-0001	
 3.98450000000000E+0003	 1.43496700474129E-0001	
 3.98650000000000E+0003	 1.43307336013193E-0001	
 3.98850000000000E+0003	 1.43127471552257E-0001	
 3.99050000000000E+0003	 1.42948607091321E-0001	
 3.99250000000000E+0003	 1.42755242630385E-0001	
 3.99450000000000E+0003	 1.42589378169450E-0001	
 3.99650000000000E+0003	 1.42432513708514E-0001	
 3.99850000000000E+0003	 1.42254149247578E-0001	

>1	DATALINE
