*CPCWIN*

>1	DATALINE
DATALINE
1
Operator:

Description:

Remarks:





15.9.2008
11:9


_x	_y
	
	
UNIT	UNIT
 4.50500000000000E+0002	 2.71792269563786E-0001	
 4.52500000000000E+0002	 2.72130155226337E-0001	
 4.54500000000000E+0002	 2.73847540888889E-0001	
 4.56500000000000E+0002	 2.75968426551440E-0001	
 4.58500000000000E+0002	 2.77224812213992E-0001	
 4.60500000000000E+0002	 2.78577197876543E-0001	
 4.62500000000000E+0002	 2.79843083539095E-0001	
 4.64500000000000E+0002	 2.81191969201646E-0001	
 4.66500000000000E+0002	 2.82456854864198E-0001	
 4.68500000000000E+0002	 2.83800740526749E-0001	
 4.70500000000000E+0002	 2.85215626189300E-0001	
 4.72500000000000E+0002	 2.86693011851852E-0001	
 4.74500000000000E+0002	 2.88235897514403E-0001	
 4.76500000000000E+0002	 2.89857283176955E-0001	
 4.78500000000000E+0002	 2.91624168839506E-0001	
 4.80500000000000E+0002	 2.93489054502058E-0001	
 4.82500000000000E+0002	 2.95410940164609E-0001	
 4.84500000000000E+0002	 2.97585325827160E-0001	
 4.86500000000000E+0002	 2.99905211489712E-0001	
 4.88500000000000E+0002	 3.02262597152263E-0001	
 4.90500000000000E+0002	 3.04560982814815E-0001	
 4.92500000000000E+0002	 3.06939868477366E-0001	
 4.94500000000000E+0002	 3.09240254139918E-0001	
 4.96500000000000E+0002	 3.11459639802469E-0001	
 4.98500000000000E+0002	 3.13595025465021E-0001	
 5.00500000000000E+0002	 3.15738911127572E-0001	
 5.02500000000000E+0002	 3.17996796790123E-0001	
 5.04500000000000E+0002	 3.20288682452675E-0001	
 5.06500000000000E+0002	 3.22494568115226E-0001	
 5.08500000000000E+0002	 3.24678953777778E-0001	
 5.10500000000000E+0002	 3.26916839440329E-0001	
 5.12500000000000E+0002	 3.29280725102881E-0001	
 5.14500000000000E+0002	 3.31717610765432E-0001	
 5.16500000000000E+0002	 3.34305996427984E-0001	
 5.18500000000000E+0002	 3.37061382090535E-0001	
 5.20500000000000E+0002	 3.39377267753086E-0001	
 5.22500000000000E+0002	 3.42054653415638E-0001	
 5.24500000000000E+0002	 3.44588539078189E-0001	
 5.26500000000000E+0002	 3.47093924740741E-0001	
 5.28500000000000E+0002	 3.50623810403292E-0001	
 5.30500000000000E+0002	 3.53452696065844E-0001	
 5.32500000000000E+0002	 3.54628081728395E-0001	
 5.34500000000000E+0002	 3.54753467390947E-0001	
 5.36500000000000E+0002	 3.54303853053498E-0001	
 5.38500000000000E+0002	 3.53566738716049E-0001	
 5.40500000000000E+0002	 3.52687124378601E-0001	
 5.42500000000000E+0002	 3.51948510041152E-0001	
 5.44500000000000E+0002	 3.51283895703704E-0001	
 5.46500000000000E+0002	 3.50780781366255E-0001	
 5.48500000000000E+0002	 3.50562667028807E-0001	
 5.50500000000000E+0002	 3.50526052691358E-0001	
 5.52500000000000E+0002	 3.50498438353909E-0001	
 5.54500000000000E+0002	 3.50063824016461E-0001	
 5.56500000000000E+0002	 3.49253709679012E-0001	
 5.58500000000000E+0002	 3.48286595341564E-0001	
 5.60500000000000E+0002	 3.47035981004115E-0001	
 5.62500000000000E+0002	 3.45520866666667E-0001	
 5.64500000000000E+0002	 3.43986252329218E-0001	
 5.66500000000000E+0002	 3.42631637991770E-0001	
 5.68500000000000E+0002	 3.41388523654321E-0001	
 5.70500000000000E+0002	 3.40441909316872E-0001	
 5.72500000000000E+0002	 3.39835794979424E-0001	
 5.74500000000000E+0002	 3.39175680641975E-0001	
 5.76500000000000E+0002	 3.38599566304527E-0001	
 5.78500000000000E+0002	 3.38606951967078E-0001	
 5.80500000000000E+0002	 3.38414337629630E-0001	
 5.82500000000000E+0002	 3.38099223292181E-0001	
 5.84500000000000E+0002	 3.37735108954733E-0001	
 5.86500000000000E+0002	 3.37430994617284E-0001	
 5.88500000000000E+0002	 3.37301380279835E-0001	
 5.90500000000000E+0002	 3.36981265942387E-0001	
 5.92500000000000E+0002	 3.36954651604938E-0001	
 5.94500000000000E+0002	 3.37813537267490E-0001	
 5.96500000000000E+0002	 3.38914422930041E-0001	
 5.98500000000000E+0002	 3.39727808592593E-0001	
 6.00500000000000E+0002	 3.40335694255144E-0001	
 6.02500000000000E+0002	 3.41045079917695E-0001	
 6.04500000000000E+0002	 3.41331965580247E-0001	
 6.06500000000000E+0002	 3.40981351242798E-0001	
 6.08500000000000E+0002	 3.40200736905350E-0001	
 6.10500000000000E+0002	 3.39191622567901E-0001	
 6.12500000000000E+0002	 3.38150508230453E-0001	
 6.14500000000000E+0002	 3.37206893893004E-0001	
 6.16500000000000E+0002	 3.36432279555556E-0001	
 6.18500000000000E+0002	 3.35707665218107E-0001	
 6.20500000000000E+0002	 3.34849550880658E-0001	
 6.22500000000000E+0002	 3.34066936543210E-0001	
 6.24500000000000E+0002	 3.33228822205761E-0001	
 6.26500000000000E+0002	 3.32470707868313E-0001	
 6.28500000000000E+0002	 3.31957593530864E-0001	
 6.30500000000000E+0002	 3.31326479193416E-0001	
 6.32500000000000E+0002	 3.30300864855967E-0001	
 6.34500000000000E+0002	 3.28968250518519E-0001	
 6.36500000000000E+0002	 3.27746636181070E-0001	
 6.38500000000000E+0002	 3.26676521843621E-0001	
 6.40500000000000E+0002	 3.25447907506173E-0001	
 6.42500000000000E+0002	 3.24245293168724E-0001	
 6.44500000000000E+0002	 3.23044678831276E-0001	
 6.46500000000000E+0002	 3.21882564493827E-0001	
 6.48500000000000E+0002	 3.20727450156379E-0001	
 6.50500000000000E+0002	 3.19524835818930E-0001	
 6.52500000000000E+0002	 3.18393721481481E-0001	
 6.54500000000000E+0002	 3.17414107144033E-0001	
 6.56500000000000E+0002	 3.16536992806584E-0001	
 6.58500000000000E+0002	 3.15674878469136E-0001	
 6.60500000000000E+0002	 3.14927764131687E-0001	
 6.62500000000000E+0002	 3.14217649794239E-0001	
 6.64500000000000E+0002	 3.13133035456790E-0001	
 6.66500000000000E+0002	 3.11152921119342E-0001	
 6.68500000000000E+0002	 3.09544306781893E-0001	
 6.70500000000000E+0002	 3.09424692444444E-0001	
 6.72500000000000E+0002	 3.08622078106996E-0001	
 6.74500000000000E+0002	 3.07336963769547E-0001	
 6.76500000000000E+0002	 3.05940849432099E-0001	
 6.78500000000000E+0002	 3.04570235094650E-0001	
 6.80500000000000E+0002	 3.03327620757202E-0001	
 6.82500000000000E+0002	 3.02206506419753E-0001	
 6.84500000000000E+0002	 3.01201392082305E-0001	
 6.86500000000000E+0002	 3.00268277744856E-0001	
 6.88500000000000E+0002	 2.99382663407407E-0001	
 6.90500000000000E+0002	 2.98752049069959E-0001	
 6.92500000000000E+0002	 2.98297434732510E-0001	
 6.94500000000000E+0002	 2.97824820395062E-0001	
 6.96500000000000E+0002	 2.97343206057613E-0001	
 6.98500000000000E+0002	 2.96817091720165E-0001	
 7.00500000000000E+0002	 2.96154477382716E-0001	
 7.02500000000000E+0002	 2.95147863045267E-0001	
 7.04500000000000E+0002	 2.93822748707819E-0001	
 7.06500000000000E+0002	 2.92466634370370E-0001	
 7.08500000000000E+0002	 2.91163520032922E-0001	
 7.10500000000000E+0002	 2.89853905695473E-0001	
 7.12500000000000E+0002	 2.88421291358025E-0001	
 7.14500000000000E+0002	 2.86737177020576E-0001	
 7.16500000000000E+0002	 2.84880062683128E-0001	
 7.18500000000000E+0002	 2.83048948345679E-0001	
 7.20500000000000E+0002	 2.81047334008230E-0001	
 7.22500000000000E+0002	 2.78614219670782E-0001	
 7.24500000000000E+0002	 2.75813105333333E-0001	
 7.26500000000000E+0002	 2.72590490995885E-0001	
 7.28500000000000E+0002	 2.68999376658436E-0001	
 7.30500000000000E+0002	 2.65356762320988E-0001	
 7.32500000000000E+0002	 2.62016147983539E-0001	
 7.34500000000000E+0002	 2.59167033646091E-0001	
 7.36500000000000E+0002	 2.56774419308642E-0001	
 7.38500000000000E+0002	 2.54722804971193E-0001	
 7.40500000000000E+0002	 2.52907190633745E-0001	
 7.42500000000000E+0002	 2.51268076296296E-0001	
 7.44500000000000E+0002	 2.49741961958848E-0001	
 7.46500000000000E+0002	 2.48354347621399E-0001	
 7.48500000000000E+0002	 2.47126733283951E-0001	
 7.50500000000000E+0002	 2.46091118946502E-0001	
 7.52500000000000E+0002	 2.45411004609053E-0001	
 7.54500000000000E+0002	 2.45259390271605E-0001	
 7.56500000000000E+0002	 2.45677275934156E-0001	
 7.58500000000000E+0002	 2.46651161596708E-0001	
 7.60500000000000E+0002	 2.48121547259259E-0001	
 7.62500000000000E+0002	 2.49740932921811E-0001	
 7.64500000000000E+0002	 2.50630818584362E-0001	
 7.66500000000000E+0002	 2.49718704246914E-0001	
 7.68500000000000E+0002	 2.46825089909465E-0001	
 7.70500000000000E+0002	 2.42961975572016E-0001	
 7.72500000000000E+0002	 2.39542861234568E-0001	
 7.74500000000000E+0002	 2.37582246897119E-0001	
 7.76500000000000E+0002	 2.37677632559671E-0001	
 7.78500000000000E+0002	 2.39025018222222E-0001	
 7.80500000000000E+0002	 2.39276903884774E-0001	
 7.82500000000000E+0002	 2.37382789547325E-0001	
 7.84500000000000E+0002	 2.34635175209877E-0001	
 7.86500000000000E+0002	 2.31967060872428E-0001	
 7.88500000000000E+0002	 2.29272446534979E-0001	
 7.90500000000000E+0002	 2.26707332197531E-0001	
 7.92500000000000E+0002	 2.25000217860082E-0001	
 7.94500000000000E+0002	 2.24206103522634E-0001	
 7.96500000000000E+0002	 2.23342989185185E-0001	
 7.98500000000000E+0002	 2.21711874847737E-0001	
 8.00500000000000E+0002	 2.19669760510288E-0001	
 8.02500000000000E+0002	 2.17914646172840E-0001	
 8.04500000000000E+0002	 2.16737031835391E-0001	
 8.06500000000000E+0002	 2.16001417497942E-0001	
 8.08500000000000E+0002	 2.15440803160494E-0001	
 8.10500000000000E+0002	 2.14728188823045E-0001	
 8.12500000000000E+0002	 2.13585074485597E-0001	
 8.14500000000000E+0002	 2.11986460148148E-0001	
 8.16500000000000E+0002	 2.10189845810700E-0001	
 8.18500000000000E+0002	 2.08443231473251E-0001	
 8.20500000000000E+0002	 2.07034117135802E-0001	
 8.22500000000000E+0002	 2.06102002798354E-0001	
 8.24500000000000E+0002	 2.05677888460905E-0001	
 8.26500000000000E+0002	 2.05599274123457E-0001	
 8.28500000000000E+0002	 2.05788659786008E-0001	
 8.30500000000000E+0002	 2.06199045448560E-0001	
 8.32500000000000E+0002	 2.06880431111111E-0001	
 8.34500000000000E+0002	 2.07721816773663E-0001	
 8.36500000000000E+0002	 2.08589702436214E-0001	
 8.38500000000000E+0002	 2.09310588098765E-0001	
 8.40500000000000E+0002	 2.09820473761317E-0001	
 8.42500000000000E+0002	 2.10061359423868E-0001	
 8.44500000000000E+0002	 2.10084745086420E-0001	
 8.46500000000000E+0002	 2.10001130748971E-0001	
 8.48500000000000E+0002	 2.09999016411523E-0001	
 8.50500000000000E+0002	 2.10146402074074E-0001	
 8.52500000000000E+0002	 2.10524787736626E-0001	
 8.54500000000000E+0002	 2.11079673399177E-0001	
 8.56500000000000E+0002	 2.11607559061728E-0001	
 8.58500000000000E+0002	 2.11786444724280E-0001	
 8.60500000000000E+0002	 2.11392830386831E-0001	
 8.62500000000000E+0002	 2.10247216049383E-0001	
 8.64500000000000E+0002	 2.08374101711934E-0001	
 8.66500000000000E+0002	 2.05958487374486E-0001	
 8.68500000000000E+0002	 2.03547873037037E-0001	
 8.70500000000000E+0002	 2.01791258699588E-0001	
 8.72500000000000E+0002	 2.00532644362140E-0001	
 8.74500000000000E+0002	 1.98965530024691E-0001	
 8.76500000000000E+0002	 1.97516915687243E-0001	
 8.78500000000000E+0002	 1.96754801349794E-0001	
 8.80500000000000E+0002	 1.96555687012346E-0001	
 8.82500000000000E+0002	 1.96576572674897E-0001	
 8.84500000000000E+0002	 1.96600458337449E-0001	
 8.86500000000000E+0002	 1.96452344000000E-0001	
 8.88500000000000E+0002	 1.96092729662551E-0001	
 8.90500000000000E+0002	 1.95512615325103E-0001	
 8.92500000000000E+0002	 1.94756500987654E-0001	
 8.94500000000000E+0002	 1.93862386650206E-0001	
 8.96500000000000E+0002	 1.93004772312757E-0001	
 8.98500000000000E+0002	 1.92374657975309E-0001	
 9.00500000000000E+0002	 1.92299043637860E-0001	
 9.02500000000000E+0002	 1.93101429300412E-0001	
 9.04500000000000E+0002	 1.95090814962963E-0001	
 9.06500000000000E+0002	 1.98286700625514E-0001	
 9.08500000000000E+0002	 2.02411086288066E-0001	
 9.10500000000000E+0002	 2.06801471950617E-0001	
 9.12500000000000E+0002	 2.10708857613169E-0001	
 9.14500000000000E+0002	 2.13451243275720E-0001	
 9.16500000000000E+0002	 2.14670128938272E-0001	
 9.18500000000000E+0002	 2.14264514600823E-0001	
 9.20500000000000E+0002	 2.12477400263374E-0001	
 9.22500000000000E+0002	 2.09728285925926E-0001	
 9.24500000000000E+0002	 2.06473671588477E-0001	
 9.26500000000000E+0002	 2.03084057251029E-0001	
 9.28500000000000E+0002	 1.99888442913580E-0001	
 9.30500000000000E+0002	 1.97124828576132E-0001	
 9.32500000000000E+0002	 1.94941714238683E-0001	
 9.34500000000000E+0002	 1.93353599901235E-0001	
 9.36500000000000E+0002	 1.92306985563786E-0001	
 9.38500000000000E+0002	 1.91724871226337E-0001	
 9.40500000000000E+0002	 1.91579756888889E-0001	
 9.42500000000000E+0002	 1.91916142551440E-0001	
 9.44500000000000E+0002	 1.92900028213992E-0001	
 9.46500000000000E+0002	 1.94602413876543E-0001	
 9.48500000000000E+0002	 1.97040299539095E-0001	
 9.50500000000000E+0002	 2.00177685201646E-0001	
 9.52500000000000E+0002	 2.04043570864198E-0001	
 9.54500000000000E+0002	 2.08607456526749E-0001	
 9.56500000000000E+0002	 2.13827842189300E-0001	
 9.58500000000000E+0002	 2.19518727851852E-0001	
 9.60500000000000E+0002	 2.25485613514403E-0001	
 9.62500000000000E+0002	 2.31479999176955E-0001	
 9.64500000000000E+0002	 2.37337884839506E-0001	
 9.66500000000000E+0002	 2.42958270502058E-0001	
 9.68500000000000E+0002	 2.48426156164609E-0001	
 9.70500000000000E+0002	 2.53975041827160E-0001	
 9.72500000000000E+0002	 2.60060927489712E-0001	
 9.74500000000000E+0002	 2.67261813152263E-0001	
 9.76500000000000E+0002	 2.76313198814815E-0001	
 9.78500000000000E+0002	 2.87836584477366E-0001	
 9.80500000000000E+0002	 3.02070970139918E-0001	
 9.82500000000000E+0002	 3.18492855802469E-0001	
 9.84500000000000E+0002	 3.35841241465021E-0001	
 9.86500000000000E+0002	 3.52411127127572E-0001	
 9.88500000000000E+0002	 3.66781012790123E-0001	
 9.90500000000000E+0002	 3.78329398452675E-0001	
 9.92500000000000E+0002	 3.87535284115226E-0001	
 9.94500000000000E+0002	 3.95613169777778E-0001	
 9.96500000000000E+0002	 4.04092555440329E-0001	
 9.98500000000000E+0002	 4.14155441102881E-0001	
 1.00050000000000E+0003	 4.26204826765432E-0001	
 1.00250000000000E+0003	 4.39799712427984E-0001	
 1.00450000000000E+0003	 4.54031098090535E-0001	
 1.00650000000000E+0003	 4.67956483753086E-0001	
 1.00850000000000E+0003	 4.80943369415638E-0001	
 1.01050000000000E+0003	 4.92751755078189E-0001	
 1.01250000000000E+0003	 5.03447140740741E-0001	
 1.01450000000000E+0003	 5.13039526403292E-0001	
 1.01650000000000E+0003	 5.21346412065844E-0001	
 1.01850000000000E+0003	 5.28068297728395E-0001	
 1.02050000000000E+0003	 5.33063183390947E-0001	
 1.02250000000000E+0003	 5.36619069053498E-0001	
 1.02450000000000E+0003	 5.39447454716049E-0001	
 1.02650000000000E+0003	 5.42333840378601E-0001	
 1.02850000000000E+0003	 5.45704726041152E-0001	
 1.03050000000000E+0003	 5.49476611703704E-0001	
 1.03250000000000E+0003	 5.53242497366255E-0001	
 1.03450000000000E+0003	 5.56528383028807E-0001	
 1.03650000000000E+0003	 5.59012768691358E-0001	
 1.03850000000000E+0003	 5.60611154353909E-0001	
 1.04050000000000E+0003	 5.61583540016461E-0001	
 1.04250000000000E+0003	 5.62537425679012E-0001	
 1.04450000000000E+0003	 5.64114311341564E-0001	
 1.04650000000000E+0003	 5.66745697004115E-0001	
 1.04850000000000E+0003	 5.70449582666667E-0001	
 1.05050000000000E+0003	 5.74619468329218E-0001	
 1.05250000000000E+0003	 5.78124353991770E-0001	
 1.05450000000000E+0003	 5.79971739654321E-0001	
 1.05650000000000E+0003	 5.79751625316872E-0001	
 1.05850000000000E+0003	 5.77639010979424E-0001	
 1.06050000000000E+0003	 5.74224396641975E-0001	
 1.06250000000000E+0003	 5.70600782304527E-0001	
 1.06450000000000E+0003	 5.68186667967078E-0001	
 1.06650000000000E+0003	 5.68283053629630E-0001	
 1.06850000000000E+0003	 5.71460939292181E-0001	
 1.07050000000000E+0003	 5.77352324954733E-0001	
 1.07250000000000E+0003	 5.84901210617284E-0001	
 1.07450000000000E+0003	 5.92692096279835E-0001	
 1.07650000000000E+0003	 5.99346981942387E-0001	
 1.07850000000000E+0003	 6.03864367604938E-0001	
 1.08050000000000E+0003	 6.05710253267490E-0001	
 1.08250000000000E+0003	 6.04575638930041E-0001	
 1.08450000000000E+0003	 6.00182024592593E-0001	
 1.08650000000000E+0003	 5.92202910255144E-0001	
 1.08850000000000E+0003	 5.80754795917695E-0001	
 1.09050000000000E+0003	 5.66949681580247E-0001	
 1.09250000000000E+0003	 5.52897067242798E-0001	
 1.09450000000000E+0003	 5.40666452905350E-0001	
 1.09650000000000E+0003	 5.31140838567901E-0001	
 1.09850000000000E+0003	 5.23761224230453E-0001	
 1.10050000000000E+0003	 5.17367609893004E-0001	
 1.10250000000000E+0003	 5.10928495555556E-0001	
 1.10450000000000E+0003	 5.03991881218107E-0001	
 1.10650000000000E+0003	 4.96579266880658E-0001	
 1.10850000000000E+0003	 4.89137152543210E-0001	
 1.11050000000000E+0003	 4.82115538205761E-0001	
 1.11250000000000E+0003	 4.75762923868313E-0001	
 1.11450000000000E+0003	 4.69888809530864E-0001	
 1.11650000000000E+0003	 4.64166195193416E-0001	
 1.11850000000000E+0003	 4.58262080855967E-0001	
 1.12050000000000E+0003	 4.51964466518519E-0001	
 1.12250000000000E+0003	 4.45156352181070E-0001	
 1.12450000000000E+0003	 4.37933737843621E-0001	
 1.12650000000000E+0003	 4.30449123506173E-0001	
 1.12850000000000E+0003	 4.22896509168724E-0001	
 1.13050000000000E+0003	 4.15415894831276E-0001	
 1.13250000000000E+0003	 4.08263280493827E-0001	
 1.13450000000000E+0003	 4.01670666156379E-0001	
 1.13650000000000E+0003	 3.95855551818930E-0001	
 1.13850000000000E+0003	 3.91100437481481E-0001	
 1.14050000000000E+0003	 3.87634823144033E-0001	
 1.14250000000000E+0003	 3.85475708806584E-0001	
 1.14450000000000E+0003	 3.84370594469136E-0001	
 1.14650000000000E+0003	 3.83692980131687E-0001	
 1.14850000000000E+0003	 3.82583365794239E-0001	
 1.15050000000000E+0003	 3.80135251456790E-0001	
 1.15250000000000E+0003	 3.75807137119342E-0001	
 1.15450000000000E+0003	 3.69582522781893E-0001	
 1.15650000000000E+0003	 3.62045908444444E-0001	
 1.15850000000000E+0003	 3.53853294106996E-0001	
 1.16050000000000E+0003	 3.45346679769547E-0001	
 1.16250000000000E+0003	 3.36458065432099E-0001	
 1.16450000000000E+0003	 3.27076951094650E-0001	
 1.16650000000000E+0003	 3.17273336757202E-0001	
 1.16850000000000E+0003	 3.07432722419753E-0001	
 1.17050000000000E+0003	 2.97902608082305E-0001	
 1.17250000000000E+0003	 2.88884993744856E-0001	
 1.17450000000000E+0003	 2.80399879407407E-0001	
 1.17650000000000E+0003	 2.72648765069959E-0001	
 1.17850000000000E+0003	 2.65889650732510E-0001	
 1.18050000000000E+0003	 2.60377036395062E-0001	
 1.18250000000000E+0003	 2.56355922057613E-0001	
 1.18450000000000E+0003	 2.53994807720165E-0001	
 1.18650000000000E+0003	 2.53290693382716E-0001	
 1.18850000000000E+0003	 2.54284079045267E-0001	
 1.19050000000000E+0003	 2.56874464707819E-0001	
 1.19250000000000E+0003	 2.60873850370370E-0001	
 1.19450000000000E+0003	 2.66016236032922E-0001	
 1.19650000000000E+0003	 2.72005121695473E-0001	
 1.19850000000000E+0003	 2.78406007358025E-0001	
 1.20050000000000E+0003	 2.84888393020576E-0001	
 1.20250000000000E+0003	 2.91110278683128E-0001	
 1.20450000000000E+0003	 2.96905164345679E-0001	
 1.20650000000000E+0003	 3.02215550008230E-0001	
 1.20850000000000E+0003	 3.07174435670782E-0001	
 1.21050000000000E+0003	 3.11967821333333E-0001	
 1.21250000000000E+0003	 3.16926206995885E-0001	
 1.21450000000000E+0003	 3.22290092658436E-0001	
 1.21650000000000E+0003	 3.28044978320988E-0001	
 1.21850000000000E+0003	 3.33878863983539E-0001	
 1.22050000000000E+0003	 3.39213249646091E-0001	
 1.22250000000000E+0003	 3.43283135308642E-0001	
 1.22450000000000E+0003	 3.45973020971193E-0001	
 1.22650000000000E+0003	 3.47886906633745E-0001	
 1.22850000000000E+0003	 3.49549292296296E-0001	
 1.23050000000000E+0003	 3.50890177958848E-0001	
 1.23250000000000E+0003	 3.51772563621399E-0001	
 1.23450000000000E+0003	 3.52135949283951E-0001	
 1.23650000000000E+0003	 3.51993834946502E-0001	
 1.23850000000000E+0003	 3.51327220609053E-0001	
 1.24050000000000E+0003	 3.50179106271605E-0001	
 1.24250000000000E+0003	 3.48540491934156E-0001	
 1.24450000000000E+0003	 3.46439377596708E-0001	
 1.24650000000000E+0003	 3.43971263259259E-0001	
 1.24850000000000E+0003	 3.41191148921811E-0001	
 1.25050000000000E+0003	 3.38072534584362E-0001	
 1.25250000000000E+0003	 3.34678420246914E-0001	
 1.25450000000000E+0003	 3.31071805909465E-0001	
 1.25650000000000E+0003	 3.27352191572016E-0001	
 1.25850000000000E+0003	 3.23543577234568E-0001	
 1.26050000000000E+0003	 3.19726962897119E-0001	
 1.26250000000000E+0003	 3.16112848559671E-0001	
 1.26450000000000E+0003	 3.12747734222222E-0001	
 1.26650000000000E+0003	 3.09491119884774E-0001	
 1.26850000000000E+0003	 3.06428505547325E-0001	
 1.27050000000000E+0003	 3.03597891209877E-0001	
 1.27250000000000E+0003	 3.01128276872428E-0001	
 1.27450000000000E+0003	 2.99071662534979E-0001	
 1.27650000000000E+0003	 2.97290548197531E-0001	
 1.27850000000000E+0003	 2.95665933860082E-0001	
 1.28050000000000E+0003	 2.94194319522634E-0001	
 1.28250000000000E+0003	 2.92838205185185E-0001	
 1.28450000000000E+0003	 2.91540590847737E-0001	
 1.28650000000000E+0003	 2.90193476510288E-0001	
 1.28850000000000E+0003	 2.88974362172840E-0001	
 1.29050000000000E+0003	 2.88305247835391E-0001	
 1.29250000000000E+0003	 2.88169133497942E-0001	
 1.29450000000000E+0003	 2.88256519160494E-0001	
 1.29650000000000E+0003	 2.88557404823045E-0001	
 1.29850000000000E+0003	 2.89298790485597E-0001	
 1.30050000000000E+0003	 2.90525676148148E-0001	
 1.30250000000000E+0003	 2.91899561810700E-0001	
 1.30450000000000E+0003	 2.93254947473251E-0001	
 1.30650000000000E+0003	 2.94505833135802E-0001	
 1.30850000000000E+0003	 2.95676218798354E-0001	
 1.31050000000000E+0003	 2.96681604460905E-0001	
 1.31250000000000E+0003	 2.97137490123457E-0001	
 1.31450000000000E+0003	 2.97107875786008E-0001	
 1.31650000000000E+0003	 2.96866761448560E-0001	
 1.31850000000000E+0003	 2.96131147111111E-0001	
 1.32050000000000E+0003	 2.95339532773663E-0001	
 1.32250000000000E+0003	 2.94877418436214E-0001	
 1.32450000000000E+0003	 2.94614804098765E-0001	
 1.32650000000000E+0003	 2.94553689761317E-0001	
 1.32850000000000E+0003	 2.94894575423868E-0001	
 1.33050000000000E+0003	 2.95658961086420E-0001	
 1.33250000000000E+0003	 2.96849846748971E-0001	
 1.33450000000000E+0003	 2.98028232411523E-0001	
 1.33650000000000E+0003	 2.98367118074074E-0001	
 1.33850000000000E+0003	 3.00153503736626E-0001	
 1.34050000000000E+0003	 3.00844389399177E-0001	
 1.34250000000000E+0003	 3.01027775061728E-0001	
 1.34450000000000E+0003	 3.00488660724280E-0001	
 1.34650000000000E+0003	 3.00666046386831E-0001	
 1.34850000000000E+0003	 3.00784932049383E-0001	
 1.35050000000000E+0003	 3.01384817711934E-0001	
 1.35250000000000E+0003	 3.02574703374486E-0001	
 1.35450000000000E+0003	 3.04065089037037E-0001	
 1.35650000000000E+0003	 3.05804474699588E-0001	
 1.35850000000000E+0003	 3.07588360362140E-0001	
 1.36050000000000E+0003	 3.10027746024691E-0001	
 1.36250000000000E+0003	 3.12352631687243E-0001	
 1.36450000000000E+0003	 3.15180017349794E-0001	
 1.36650000000000E+0003	 3.18209403012346E-0001	
 1.36850000000000E+0003	 3.20725288674897E-0001	
 1.37050000000000E+0003	 3.22062174337449E-0001	
 1.37250000000000E+0003	 3.23135060000000E-0001	
 1.37450000000000E+0003	 3.23690945662551E-0001	
 1.37650000000000E+0003	 3.24967331325103E-0001	
 1.37850000000000E+0003	 3.26570716987654E-0001	
 1.38050000000000E+0003	 3.28660102650206E-0001	
 1.38250000000000E+0003	 3.29865988312757E-0001	
 1.38450000000000E+0003	 3.31125873975309E-0001	
 1.38650000000000E+0003	 3.32135259637860E-0001	
 1.38850000000000E+0003	 3.33161145300412E-0001	
 1.39050000000000E+0003	 3.34551530962963E-0001	
 1.39250000000000E+0003	 3.36329416625514E-0001	
 1.39450000000000E+0003	 3.37808802288066E-0001	
 1.39650000000000E+0003	 3.37453687950617E-0001	
 1.39850000000000E+0003	 3.39735573613169E-0001	
 1.40050000000000E+0003	 3.42723959275720E-0001	
 1.40250000000000E+0003	 3.44948844938272E-0001	
 1.40450000000000E+0003	 3.45574730600823E-0001	
 1.40650000000000E+0003	 3.45067116263374E-0001	
 1.40850000000000E+0003	 3.44764001925926E-0001	
 1.41050000000000E+0003	 3.43977387588477E-0001	
 1.41250000000000E+0003	 3.42663773251029E-0001	
 1.41450000000000E+0003	 3.41293158913580E-0001	
 1.41650000000000E+0003	 3.38589544576132E-0001	
 1.41850000000000E+0003	 3.34060930238683E-0001	
 1.42050000000000E+0003	 3.30449315901235E-0001	
 1.42250000000000E+0003	 3.29009701563786E-0001	
 1.42450000000000E+0003	 3.27216087226337E-0001	
 1.42650000000000E+0003	 3.24369472888889E-0001	
 1.42850000000000E+0003	 3.21700358551440E-0001	
 1.43050000000000E+0003	 3.19280244213992E-0001	
 1.43250000000000E+0003	 3.17870129876543E-0001	
 1.43450000000000E+0003	 3.17226515539095E-0001	
 1.43650000000000E+0003	 3.16509401201646E-0001	
 1.43850000000000E+0003	 3.17421286864198E-0001	
 1.44050000000000E+0003	 3.20757672526749E-0001	
 1.44250000000000E+0003	 3.23975058189300E-0001	
 1.44450000000000E+0003	 3.25542443851852E-0001	
 1.44650000000000E+0003	 3.26353329514403E-0001	
 1.44850000000000E+0003	 3.26897215176955E-0001	
 1.45050000000000E+0003	 3.27740100839506E-0001	
 1.45250000000000E+0003	 3.28516986502058E-0001	
 1.45450000000000E+0003	 3.27151872164609E-0001	
 1.45650000000000E+0003	 3.21798257827160E-0001	
 1.45850000000000E+0003	 3.15646143489712E-0001	
 1.46050000000000E+0003	 3.13351529152263E-0001	
 1.46250000000000E+0003	 3.11844914814815E-0001	
 1.46450000000000E+0003	 3.07516800477366E-0001	
 1.46650000000000E+0003	 3.01981686139918E-0001	
 1.46850000000000E+0003	 2.96824571802469E-0001	
 1.47050000000000E+0003	 2.90566457465021E-0001	
 1.47250000000000E+0003	 2.80913343127572E-0001	
 1.47450000000000E+0003	 2.71154228790123E-0001	
 1.47650000000000E+0003	 2.65488114452675E-0001	
 1.47850000000000E+0003	 2.62988000115226E-0001	
 1.48050000000000E+0003	 2.61255385777778E-0001	
 1.48250000000000E+0003	 2.59939771440329E-0001	
 1.48450000000000E+0003	 2.59285157102881E-0001	
 1.48650000000000E+0003	 2.59323042765432E-0001	
 1.48850000000000E+0003	 2.59263928427984E-0001	
 1.49050000000000E+0003	 2.60544814090535E-0001	
 1.49250000000000E+0003	 2.65325199753086E-0001	
 1.49450000000000E+0003	 2.71127585415638E-0001	
 1.49650000000000E+0003	 2.76148971078189E-0001	
 1.49850000000000E+0003	 2.81307856740741E-0001	
 1.50050000000000E+0003	 2.87678742403292E-0001	
 1.50250000000000E+0003	 2.94602628065844E-0001	
 1.50450000000000E+0003	 3.00667013728395E-0001	
 1.50650000000000E+0003	 3.07370399390947E-0001	
 1.50850000000000E+0003	 3.14119785053498E-0001	
 1.51050000000000E+0003	 3.24759670716049E-0001	
 1.51250000000000E+0003	 3.39695556378601E-0001	
 1.51450000000000E+0003	 3.52458942041152E-0001	
 1.51650000000000E+0003	 3.62458827703704E-0001	
 1.51850000000000E+0003	 3.70383713366255E-0001	
 1.52050000000000E+0003	 3.76200599028807E-0001	
 1.52250000000000E+0003	 3.84299984691358E-0001	
 1.52450000000000E+0003	 3.93594370353909E-0001	
 1.52650000000000E+0003	 4.03965756016461E-0001	
 1.52850000000000E+0003	 4.14520141679012E-0001	
 1.53050000000000E+0003	 4.24658027341564E-0001	
 1.53250000000000E+0003	 4.33706913004115E-0001	
 1.53450000000000E+0003	 4.43327298666667E-0001	
 1.53650000000000E+0003	 4.50911684329218E-0001	
 1.53850000000000E+0003	 4.57659569991770E-0001	
 1.54050000000000E+0003	 4.65114955654321E-0001	
 1.54250000000000E+0003	 4.70021341316872E-0001	
 1.54450000000000E+0003	 4.74355726979424E-0001	
 1.54650000000000E+0003	 4.78771112641975E-0001	
 1.54850000000000E+0003	 4.80456998304527E-0001	
 1.55050000000000E+0003	 4.77589383967078E-0001	
 1.55250000000000E+0003	 4.71482769629630E-0001	
 1.55450000000000E+0003	 4.63247155292181E-0001	
 1.55650000000000E+0003	 4.53222040954733E-0001	
 1.55850000000000E+0003	 4.41231926617284E-0001	
 1.56050000000000E+0003	 4.27865312279835E-0001	
 1.56250000000000E+0003	 4.19126197942387E-0001	
 1.56450000000000E+0003	 4.15514083604938E-0001	
 1.56650000000000E+0003	 4.09425469267490E-0001	
 1.56850000000000E+0003	 4.01762854930041E-0001	
 1.57050000000000E+0003	 3.94420740592593E-0001	
 1.57250000000000E+0003	 3.87518126255144E-0001	
 1.57450000000000E+0003	 3.81177511917695E-0001	
 1.57650000000000E+0003	 3.73861397580247E-0001	
 1.57850000000000E+0003	 3.66601283242798E-0001	
 1.58050000000000E+0003	 3.62461668905350E-0001	
 1.58250000000000E+0003	 3.59084554567901E-0001	
 1.58450000000000E+0003	 3.55370940230453E-0001	
 1.58650000000000E+0003	 3.52569825893004E-0001	
 1.58850000000000E+0003	 3.51167211555556E-0001	
 1.59050000000000E+0003	 3.50986597218107E-0001	
 1.59250000000000E+0003	 3.52238482880658E-0001	
 1.59450000000000E+0003	 3.54548368543210E-0001	
 1.59650000000000E+0003	 3.57899754205761E-0001	
 1.59850000000000E+0003	 3.61956139868313E-0001	
 1.60050000000000E+0003	 3.67009525530864E-0001	
 1.60250000000000E+0003	 3.72772911193416E-0001	
 1.60450000000000E+0003	 3.79621296855967E-0001	
 1.60650000000000E+0003	 3.87403682518519E-0001	
 1.60850000000000E+0003	 3.96679068181070E-0001	
 1.61050000000000E+0003	 4.07458453843621E-0001	
 1.61250000000000E+0003	 4.19697839506173E-0001	
 1.61450000000000E+0003	 4.31964225168724E-0001	
 1.61650000000000E+0003	 4.46799110831276E-0001	
 1.61850000000000E+0003	 4.63681496493827E-0001	
 1.62050000000000E+0003	 4.79862882156379E-0001	
 1.62250000000000E+0003	 4.99338767818930E-0001	
 1.62450000000000E+0003	 5.20978153481481E-0001	
 1.62650000000000E+0003	 5.41120539144033E-0001	
 1.62850000000000E+0003	 5.63011424806584E-0001	
 1.63050000000000E+0003	 5.84527810469136E-0001	
 1.63250000000000E+0003	 6.03136696131687E-0001	
 1.63450000000000E+0003	 6.20687581794239E-0001	
 1.63650000000000E+0003	 6.38544467456790E-0001	
 1.63850000000000E+0003	 6.51117353119342E-0001	
 1.64050000000000E+0003	 6.61968238781893E-0001	
 1.64250000000000E+0003	 6.71560124444444E-0001	
 1.64450000000000E+0003	 6.78229010106996E-0001	
 1.64650000000000E+0003	 6.85242895769547E-0001	
 1.64850000000000E+0003	 6.92970281432099E-0001	
 1.65050000000000E+0003	 6.98653667094650E-0001	
 1.65250000000000E+0003	 7.03615552757202E-0001	
 1.65450000000000E+0003	 7.08450938419753E-0001	
 1.65650000000000E+0003	 7.08386824082305E-0001	
 1.65850000000000E+0003	 7.09511209744856E-0001	
 1.66050000000000E+0003	 7.05103595407407E-0001	
 1.66250000000000E+0003	 6.95711481069959E-0001	
 1.66450000000000E+0003	 6.83882366732510E-0001	
 1.66650000000000E+0003	 6.71771252395062E-0001	
 1.66850000000000E+0003	 6.59137638057613E-0001	
 1.67050000000000E+0003	 6.45388523720165E-0001	
 1.67250000000000E+0003	 6.32345409382716E-0001	
 1.67450000000000E+0003	 6.20371795045267E-0001	
 1.67650000000000E+0003	 6.07854180707819E-0001	
 1.67850000000000E+0003	 5.95720066370370E-0001	
 1.68050000000000E+0003	 5.84408452032922E-0001	
 1.68250000000000E+0003	 5.72094337695473E-0001	
 1.68450000000000E+0003	 5.57229223358025E-0001	
 1.68650000000000E+0003	 5.42396609020576E-0001	
 1.68850000000000E+0003	 5.30972994683128E-0001	
 1.69050000000000E+0003	 5.20267880345679E-0001	
 1.69250000000000E+0003	 5.07838266008230E-0001	
 1.69450000000000E+0003	 4.93631151670782E-0001	
 1.69650000000000E+0003	 4.76931037333333E-0001	
 1.69850000000000E+0003	 4.62085922995885E-0001	
 1.70050000000000E+0003	 4.50331808658436E-0001	
 1.70250000000000E+0003	 4.39847694320988E-0001	
 1.70450000000000E+0003	 4.31979579983539E-0001	
 1.70650000000000E+0003	 4.26491965646091E-0001	
 1.70850000000000E+0003	 4.19429351308642E-0001	
 1.71050000000000E+0003	 4.12377736971193E-0001	
 1.71250000000000E+0003	 4.04455122633745E-0001	
 1.71450000000000E+0003	 3.94326508296296E-0001	
 1.71650000000000E+0003	 3.80752893958848E-0001	
 1.71850000000000E+0003	 3.65355779621399E-0001	
 1.72050000000000E+0003	 3.52590665283951E-0001	
 1.72250000000000E+0003	 3.41836550946502E-0001	
 1.72450000000000E+0003	 3.30617436609053E-0001	
 1.72650000000000E+0003	 3.19793322271605E-0001	
 1.72850000000000E+0003	 3.10081707934156E-0001	
 1.73050000000000E+0003	 3.01103593596708E-0001	
 1.73250000000000E+0003	 2.92275979259259E-0001	
 1.73450000000000E+0003	 2.84467864921811E-0001	
 1.73650000000000E+0003	 2.79536750584362E-0001	
 1.73850000000000E+0003	 2.77400136246914E-0001	
 1.74050000000000E+0003	 2.75898521909465E-0001	
 1.74250000000000E+0003	 2.71830907572016E-0001	
 1.74450000000000E+0003	 2.67372293234568E-0001	
 1.74650000000000E+0003	 2.63461178897119E-0001	
 1.74850000000000E+0003	 2.58931064559671E-0001	
 1.75050000000000E+0003	 2.52762950222222E-0001	
 1.75250000000000E+0003	 2.46703335884774E-0001	
 1.75450000000000E+0003	 2.42784721547325E-0001	
 1.75650000000000E+0003	 2.38987607209877E-0001	
 1.75850000000000E+0003	 2.33979492872428E-0001	
 1.76050000000000E+0003	 2.28931378534979E-0001	
 1.76250000000000E+0003	 2.24774764197531E-0001	
 1.76450000000000E+0003	 2.20967649860082E-0001	
 1.76650000000000E+0003	 2.17633035522634E-0001	
 1.76850000000000E+0003	 2.13786421185185E-0001	
 1.77050000000000E+0003	 2.09955306847737E-0001	
 1.77250000000000E+0003	 2.07652692510288E-0001	
 1.77450000000000E+0003	 2.05084078172840E-0001	
 1.77650000000000E+0003	 2.02804463835391E-0001	
 1.77850000000000E+0003	 2.01825849497942E-0001	
 1.78050000000000E+0003	 2.00047735160494E-0001	
 1.78250000000000E+0003	 1.98041120823045E-0001	
 1.78450000000000E+0003	 1.95870006485597E-0001	
 1.78650000000000E+0003	 1.94163392148148E-0001	
 1.78850000000000E+0003	 1.92873777810700E-0001	
 1.79050000000000E+0003	 1.90964663473251E-0001	
 1.79250000000000E+0003	 1.88508549135802E-0001	
 1.79450000000000E+0003	 1.86717434798354E-0001	
 1.79650000000000E+0003	 1.85481820460905E-0001	
 1.79850000000000E+0003	 1.86279206123457E-0001	
 1.80050000000000E+0003	 1.85128591786008E-0001	
 1.80250000000000E+0003	 1.83821977448560E-0001	
 1.80450000000000E+0003	 1.82659863111111E-0001	
 1.80650000000000E+0003	 1.81535248773663E-0001	
 1.80850000000000E+0003	 1.80369134436214E-0001	
 1.81050000000000E+0003	 1.79213020098765E-0001	
 1.81250000000000E+0003	 1.78119405761317E-0001	
 1.81450000000000E+0003	 1.77015791423868E-0001	
 1.81650000000000E+0003	 1.75576177086420E-0001	
 1.81850000000000E+0003	 1.74616562748971E-0001	
 1.82050000000000E+0003	 1.73777948411523E-0001	
 1.82250000000000E+0003	 1.72897834074074E-0001	
 1.82450000000000E+0003	 1.71400219736626E-0001	
 1.82650000000000E+0003	 1.70345605399177E-0001	
 1.82850000000000E+0003	 1.70768991061728E-0001	
 1.83050000000000E+0003	 1.69836376724280E-0001	
 1.83250000000000E+0003	 1.69127262386831E-0001	
 1.83450000000000E+0003	 1.68495148049383E-0001	
 1.83650000000000E+0003	 1.67771533711934E-0001	
 1.83850000000000E+0003	 1.67079919374486E-0001	
 1.84050000000000E+0003	 1.66453805037037E-0001	
 1.84250000000000E+0003	 1.65770690699588E-0001	
 1.84450000000000E+0003	 1.64921576362140E-0001	
 1.84650000000000E+0003	 1.64340962024691E-0001	
 1.84850000000000E+0003	 1.63893847687243E-0001	
 1.85050000000000E+0003	 1.63389233349794E-0001	
 1.85250000000000E+0003	 1.62866119012346E-0001	
 1.85450000000000E+0003	 1.62351004674897E-0001	
 1.85650000000000E+0003	 1.61845890337449E-0001	
 1.85850000000000E+0003	 1.61183776000000E-0001	
 1.86050000000000E+0003	 1.60512661662551E-0001	
 1.86250000000000E+0003	 1.60006047325103E-0001	
 1.86450000000000E+0003	 1.59600432987654E-0001	
 1.86650000000000E+0003	 1.58865318650206E-0001	
 1.86850000000000E+0003	 1.57985704312757E-0001	
 1.87050000000000E+0003	 1.58589589975309E-0001	
 1.87250000000000E+0003	 1.58304475637860E-0001	
 1.87450000000000E+0003	 1.57994361300412E-0001	
 1.87650000000000E+0003	 1.57636746962963E-0001	
 1.87850000000000E+0003	 1.57288632625514E-0001	
 1.88050000000000E+0003	 1.56954518288066E-0001	
 1.88250000000000E+0003	 1.56535403950617E-0001	
 1.88450000000000E+0003	 1.56209789613169E-0001	
 1.88650000000000E+0003	 1.55807175275720E-0001	
 1.88850000000000E+0003	 1.55172560938272E-0001	
 1.89050000000000E+0003	 1.54606446600823E-0001	
 1.89250000000000E+0003	 1.54224332263374E-0001	
 1.89450000000000E+0003	 1.54167717925926E-0001	
 1.89650000000000E+0003	 1.54083603588477E-0001	
 1.89850000000000E+0003	 1.53902489251029E-0001	
 1.90050000000000E+0003	 1.53884874913580E-0001	
 1.90250000000000E+0003	 1.53731260576132E-0001	
 1.90450000000000E+0003	 1.53497646238683E-0001	
 1.90650000000000E+0003	 1.53217031901235E-0001	
 1.90850000000000E+0003	 1.52752917563786E-0001	
 1.91050000000000E+0003	 1.52359303226337E-0001	
 1.91250000000000E+0003	 1.52264188888889E-0001	
 1.91450000000000E+0003	 1.52338574551440E-0001	
 1.91650000000000E+0003	 1.51991960213992E-0001	
 1.91850000000000E+0003	 1.51621845876543E-0001	
 1.92050000000000E+0003	 1.52066231539095E-0001	
 1.92250000000000E+0003	 1.51913617201646E-0001	
 1.92450000000000E+0003	 1.51768502864198E-0001	
 1.92650000000000E+0003	 1.51682888526749E-0001	
 1.92850000000000E+0003	 1.51568774189300E-0001	
 1.93050000000000E+0003	 1.51443659851852E-0001	
 1.93250000000000E+0003	 1.51271045514403E-0001	
 1.93450000000000E+0003	 1.51104931176955E-0001	
 1.93650000000000E+0003	 1.51070816839506E-0001	
 1.93850000000000E+0003	 1.50987202502058E-0001	
 1.94050000000000E+0003	 1.50876588164609E-0001	
 1.94250000000000E+0003	 1.50718473827160E-0001	
 1.94450000000000E+0003	 1.50628359489712E-0001	
 1.94650000000000E+0003	 1.50597745152263E-0001	
 1.94850000000000E+0003	 1.50548630814815E-0001	
 1.95050000000000E+0003	 1.50496016477366E-0001	
 1.95250000000000E+0003	 1.50435902139918E-0001	
 1.95450000000000E+0003	 1.50360787802469E-0001	
 1.95650000000000E+0003	 1.50198673465021E-0001	
 1.95850000000000E+0003	 1.50170059127572E-0001	
 1.96050000000000E+0003	 1.50171944790123E-0001	
 1.96250000000000E+0003	 1.50152330452675E-0001	
 1.96450000000000E+0003	 1.50055716115226E-0001	
 1.96650000000000E+0003	 1.49838601777778E-0001	
 1.96850000000000E+0003	 1.50086487440329E-0001	
 1.97050000000000E+0003	 1.50071873102881E-0001	
 1.97250000000000E+0003	 1.50039258765432E-0001	
 1.97450000000000E+0003	 1.50007644427984E-0001	
 1.97650000000000E+0003	 1.49985030090535E-0001	
 1.97850000000000E+0003	 1.49952915753086E-0001	
 1.98050000000000E+0003	 1.49923801415638E-0001	
 1.98250000000000E+0003	 1.49901687078189E-0001	
 1.98450000000000E+0003	 1.49879072740741E-0001	
 1.98650000000000E+0003	 1.49801458403292E-0001	
 1.98850000000000E+0003	 1.49614844065844E-0001	
 1.99050000000000E+0003	 1.49299729728395E-0001	
 1.99250000000000E+0003	 1.49015115390947E-0001	
 1.99450000000000E+0003	 1.49030001053498E-0001	
 1.99650000000000E+0003	 1.49443886716049E-0001	
 1.99850000000000E+0003	 1.49817272378601E-0001	
 2.00050000000000E+0003	 1.49891158041152E-0001	
 2.00250000000000E+0003	 1.49934043703704E-0001	
 2.00450000000000E+0003	 1.49987929366255E-0001	
 2.00650000000000E+0003	 1.50029315028807E-0001	
 2.00850000000000E+0003	 1.50056700691358E-0001	
 2.01050000000000E+0003	 1.50126586353909E-0001	
 2.01250000000000E+0003	 1.50237972016461E-0001	
 2.01450000000000E+0003	 1.50293857679012E-0001	
 2.01650000000000E+0003	 1.50161243341564E-0001	
 2.01850000000000E+0003	 1.50003129004115E-0001	
 2.02050000000000E+0003	 1.50168014666667E-0001	
 2.02250000000000E+0003	 1.50555400329218E-0001	
 2.02450000000000E+0003	 1.50798285991770E-0001	
 2.02650000000000E+0003	 1.50951171654321E-0001	
 2.02850000000000E+0003	 1.51101557316872E-0001	
 2.03050000000000E+0003	 1.51233442979424E-0001	
 2.03250000000000E+0003	 1.51355328641975E-0001	
 2.03450000000000E+0003	 1.51464214304527E-0001	
 2.03650000000000E+0003	 1.51569099967078E-0001	
 2.03850000000000E+0003	 1.51662485629630E-0001	
 2.04050000000000E+0003	 1.51675871292181E-0001	
 2.04250000000000E+0003	 1.51654256954733E-0001	
 2.04450000000000E+0003	 1.51779142617284E-0001	
 2.04650000000000E+0003	 1.51997528279835E-0001	
 2.04850000000000E+0003	 1.52145913942387E-0001	
 2.05050000000000E+0003	 1.52247799604938E-0001	
 2.05250000000000E+0003	 1.52331185267490E-0001	
 2.05450000000000E+0003	 1.52404070930041E-0001	
 2.05650000000000E+0003	 1.52471456592593E-0001	
 2.05850000000000E+0003	 1.52527342255144E-0001	
 2.06050000000000E+0003	 1.52569727917695E-0001	
 2.06250000000000E+0003	 1.52588613580247E-0001	
 2.06450000000000E+0003	 1.52513499242798E-0001	
 2.06650000000000E+0003	 1.52437384905350E-0001	
 2.06850000000000E+0003	 1.52572770567901E-0001	
 2.07050000000000E+0003	 1.52813656230453E-0001	
 2.07250000000000E+0003	 1.52936041893004E-0001	
 2.07450000000000E+0003	 1.52983927555556E-0001	
 2.07650000000000E+0003	 1.53031313218107E-0001	
 2.07850000000000E+0003	 1.53082698880658E-0001	
 2.08050000000000E+0003	 1.53136084543210E-0001	
 2.08250000000000E+0003	 1.53191970205761E-0001	
 2.08450000000000E+0003	 1.53251355868313E-0001	
 2.08650000000000E+0003	 1.53293741530864E-0001	
 2.08850000000000E+0003	 1.53293127193416E-0001	
 2.09050000000000E+0003	 1.53261512855967E-0001	
 2.09250000000000E+0003	 1.53303898518519E-0001	
 2.09450000000000E+0003	 1.53425784181070E-0001	
 2.09650000000000E+0003	 1.53516169843621E-0001	
 2.09850000000000E+0003	 1.53551055506173E-0001	
 2.10050000000000E+0003	 1.53578941168724E-0001	
 2.10250000000000E+0003	 1.53603826831276E-0001	
 2.10450000000000E+0003	 1.53630212493827E-0001	
 2.10650000000000E+0003	 1.53652098156379E-0001	
 2.10850000000000E+0003	 1.53668983818930E-0001	
 2.11050000000000E+0003	 1.53678369481481E-0001	
 2.11250000000000E+0003	 1.53675255144033E-0001	
 2.11450000000000E+0003	 1.53643140806584E-0001	
 2.11650000000000E+0003	 1.53611526469136E-0001	
 2.11850000000000E+0003	 1.53631912131687E-0001	
 2.12050000000000E+0003	 1.53661297794239E-0001	
 2.12250000000000E+0003	 1.53656683456790E-0001	
 2.12450000000000E+0003	 1.53643069119342E-0001	
 2.12650000000000E+0003	 1.53640454781893E-0001	
 2.12850000000000E+0003	 1.53635340444444E-0001	
 2.13050000000000E+0003	 1.53626226106996E-0001	
 2.13250000000000E+0003	 1.53613111769547E-0001	
 2.13450000000000E+0003	 1.53587497432099E-0001	
 2.13650000000000E+0003	 1.53539883094650E-0001	
 2.13850000000000E+0003	 1.53502768757202E-0001	
 2.14050000000000E+0003	 1.53499154419753E-0001	
 2.14250000000000E+0003	 1.53501540082305E-0001	
 2.14450000000000E+0003	 1.53490425744856E-0001	
 2.14650000000000E+0003	 1.53456811407407E-0001	
 2.14850000000000E+0003	 1.53417197069959E-0001	
 2.15050000000000E+0003	 1.53372582732510E-0001	
 2.15250000000000E+0003	 1.53322468395062E-0001	
 2.15450000000000E+0003	 1.53261854057613E-0001	
 2.15650000000000E+0003	 1.53196739720165E-0001	
 2.15850000000000E+0003	 1.53128625382716E-0001	
 2.16050000000000E+0003	 1.53044511045267E-0001	
 2.16250000000000E+0003	 1.52939396707819E-0001	
 2.16450000000000E+0003	 1.52846782370370E-0001	
 2.16650000000000E+0003	 1.52771168032922E-0001	
 2.16850000000000E+0003	 1.52695053695473E-0001	
 2.17050000000000E+0003	 1.52601439358025E-0001	
 2.17250000000000E+0003	 1.52486325020576E-0001	
 2.17450000000000E+0003	 1.52370710683128E-0001	
 2.17650000000000E+0003	 1.52265596345679E-0001	
 2.17850000000000E+0003	 1.52162982008230E-0001	
 2.18050000000000E+0003	 1.52062367670782E-0001	
 2.18250000000000E+0003	 1.51959253333333E-0001	
 2.18450000000000E+0003	 1.51856638995885E-0001	
 2.18650000000000E+0003	 1.51751024658436E-0001	
 2.18850000000000E+0003	 1.51654410320988E-0001	
 2.19050000000000E+0003	 1.51560795983539E-0001	
 2.19250000000000E+0003	 1.51471181646091E-0001	
 2.19450000000000E+0003	 1.51376567308642E-0001	
 2.19650000000000E+0003	 1.51277452971193E-0001	
 2.19850000000000E+0003	 1.51172838633745E-0001	
 2.20050000000000E+0003	 1.51076224296296E-0001	
 2.20250000000000E+0003	 1.50982609958848E-0001	
 2.20450000000000E+0003	 1.50884495621399E-0001	
 2.20650000000000E+0003	 1.50781381283951E-0001	
 2.20850000000000E+0003	 1.50685766946502E-0001	
 2.21050000000000E+0003	 1.50593152609053E-0001	
 2.21250000000000E+0003	 1.50499038271605E-0001	
 2.21450000000000E+0003	 1.50404423934156E-0001	
 2.21650000000000E+0003	 1.50312809596708E-0001	
 2.21850000000000E+0003	 1.50220695259259E-0001	
 2.22050000000000E+0003	 1.50132080921811E-0001	
 2.22250000000000E+0003	 1.50047966584362E-0001	
 2.22450000000000E+0003	 1.49969852246914E-0001	
 2.22650000000000E+0003	 1.49888737909465E-0001	
 2.22850000000000E+0003	 1.49813623572016E-0001	
 2.23050000000000E+0003	 1.49740009234568E-0001	
 2.23250000000000E+0003	 1.49674394897119E-0001	
 2.23450000000000E+0003	 1.49609780559671E-0001	
 2.23650000000000E+0003	 1.49552166222222E-0001	
 2.23850000000000E+0003	 1.49494551884774E-0001	
 2.24050000000000E+0003	 1.49442437547325E-0001	
 2.24250000000000E+0003	 1.49388323209877E-0001	
 2.24450000000000E+0003	 1.49337208872428E-0001	
 2.24650000000000E+0003	 1.49284594534979E-0001	
 2.24850000000000E+0003	 1.49236480197531E-0001	
 2.25050000000000E+0003	 1.49190365860082E-0001	
 2.25250000000000E+0003	 1.49144751522634E-0001	
 2.25450000000000E+0003	 1.49098637185185E-0001	
 2.25650000000000E+0003	 1.49055022847737E-0001	
 2.25850000000000E+0003	 1.49009408510288E-0001	
 2.26050000000000E+0003	 1.48965794172840E-0001	
 2.26250000000000E+0003	 1.48926179835391E-0001	
 2.26450000000000E+0003	 1.48891565497942E-0001	
 2.26650000000000E+0003	 1.48856951160494E-0001	
 2.26850000000000E+0003	 1.48823836823045E-0001	
 2.27050000000000E+0003	 1.48794222485597E-0001	
 2.27250000000000E+0003	 1.48776108148148E-0001	
 2.27450000000000E+0003	 1.48760993810700E-0001	
 2.27650000000000E+0003	 1.48751379473251E-0001	
 2.27850000000000E+0003	 1.48743765135802E-0001	
 2.28050000000000E+0003	 1.48746150798354E-0001	
 2.28250000000000E+0003	 1.48750036460905E-0001	
 2.28450000000000E+0003	 1.48765922123457E-0001	
 2.28650000000000E+0003	 1.48797807786008E-0001	
 2.28850000000000E+0003	 1.48852693448560E-0001	
 2.29050000000000E+0003	 1.48916079111111E-0001	
 2.29250000000000E+0003	 1.48992964773663E-0001	
 2.29450000000000E+0003	 1.49081850436214E-0001	
 2.29650000000000E+0003	 1.49171236098765E-0001	
 2.29850000000000E+0003	 1.49244621761317E-0001	
 2.30050000000000E+0003	 1.49300007423868E-0001	
 2.30250000000000E+0003	 1.49320893086420E-0001	
 2.30450000000000E+0003	 1.49349778748971E-0001	
 2.30650000000000E+0003	 1.49421164411523E-0001	
 2.30850000000000E+0003	 1.49491550074074E-0001	
 2.31050000000000E+0003	 1.49511435736626E-0001	
 2.31250000000000E+0003	 1.49479821399177E-0001	
 2.31450000000000E+0003	 1.49463707061728E-0001	
 2.31650000000000E+0003	 1.49526092724280E-0001	
 2.31850000000000E+0003	 1.49618478386831E-0001	
 2.32050000000000E+0003	 1.49748364049383E-0001	
 2.32250000000000E+0003	 1.49879249711934E-0001	
 2.32450000000000E+0003	 1.49934135374486E-0001	
 2.32650000000000E+0003	 1.49906021037037E-0001	
 2.32850000000000E+0003	 1.49848906699588E-0001	
 2.33050000000000E+0003	 1.49805792362140E-0001	
 2.33250000000000E+0003	 1.49784178024691E-0001	
 2.33450000000000E+0003	 1.49773563687243E-0001	
 2.33650000000000E+0003	 1.49835449349794E-0001	
 2.33850000000000E+0003	 1.49938335012346E-0001	
 2.34050000000000E+0003	 1.50084720674897E-0001	
 2.34250000000000E+0003	 1.50215606337449E-0001	
 2.34450000000000E+0003	 1.50176992000000E-0001	
 2.34650000000000E+0003	 1.50156877662551E-0001	
 2.34850000000000E+0003	 1.50303763325103E-0001	
 2.35050000000000E+0003	 1.50303148987654E-0001	
 2.35250000000000E+0003	 1.50228534650206E-0001	
 2.35450000000000E+0003	 1.50359920312757E-0001	
 2.35650000000000E+0003	 1.50588305975309E-0001	
 2.35850000000000E+0003	 1.50716691637860E-0001	
 2.36050000000000E+0003	 1.50756077300412E-0001	
 2.36250000000000E+0003	 1.50816462962963E-0001	
 2.36450000000000E+0003	 1.50953848625514E-0001	
 2.36650000000000E+0003	 1.51098234288066E-0001	
 2.36850000000000E+0003	 1.51231619950617E-0001	
 2.37050000000000E+0003	 1.51291005613169E-0001	
 2.37250000000000E+0003	 1.51236891275720E-0001	
 2.37450000000000E+0003	 1.51154276938272E-0001	
 2.37650000000000E+0003	 1.51287662600823E-0001	
 2.37850000000000E+0003	 1.51685048263374E-0001	
 2.38050000000000E+0003	 1.52122433925926E-0001	
 2.38250000000000E+0003	 1.52361319588477E-0001	
 2.38450000000000E+0003	 1.52407205251029E-0001	
 2.38650000000000E+0003	 1.52399090913580E-0001	
 2.38850000000000E+0003	 1.52439976576132E-0001	
 2.39050000000000E+0003	 1.52545362238683E-0001	
 2.39250000000000E+0003	 1.52696247901235E-0001	
 2.39450000000000E+0003	 1.52869633563786E-0001	
 2.39650000000000E+0003	 1.53056519226337E-0001	
 2.39850000000000E+0003	 1.53254404888889E-0001	
 2.40050000000000E+0003	 1.53460790551440E-0001	
 2.40250000000000E+0003	 1.53672176213992E-0001	
 2.40450000000000E+0003	 1.53892061876543E-0001	
 2.40650000000000E+0003	 1.54122447539095E-0001	
 2.40850000000000E+0003	 1.54361333201646E-0001	
 2.41050000000000E+0003	 1.54604718864198E-0001	
 2.41250000000000E+0003	 1.54857104526749E-0001	
 2.41450000000000E+0003	 1.55116990189300E-0001	
 2.41650000000000E+0003	 1.55384875851852E-0001	
 2.41850000000000E+0003	 1.55656761514403E-0001	
 2.42050000000000E+0003	 1.55940147176955E-0001	
 2.42250000000000E+0003	 1.56230532839506E-0001	
 2.42450000000000E+0003	 1.56531918502058E-0001	
 2.42650000000000E+0003	 1.56837304164609E-0001	
 2.42850000000000E+0003	 1.57150189827160E-0001	
 2.43050000000000E+0003	 1.57464075489712E-0001	
 2.43250000000000E+0003	 1.57785961152263E-0001	
 2.43450000000000E+0003	 1.58110346814815E-0001	
 2.43650000000000E+0003	 1.58441732477366E-0001	
 2.43850000000000E+0003	 1.58774118139918E-0001	
 2.44050000000000E+0003	 1.59106503802469E-0001	
 2.44250000000000E+0003	 1.59435389465021E-0001	
 2.44450000000000E+0003	 1.59767775127572E-0001	
 2.44650000000000E+0003	 1.60099660790123E-0001	
 2.44850000000000E+0003	 1.60432546452675E-0001	
 2.45050000000000E+0003	 1.60768432115226E-0001	
 2.45250000000000E+0003	 1.61110817777778E-0001	
 2.45450000000000E+0003	 1.61456703440329E-0001	
 2.45650000000000E+0003	 1.61810589102881E-0001	
 2.45850000000000E+0003	 1.62166474765432E-0001	
 2.46050000000000E+0003	 1.62528860427984E-0001	
 2.46250000000000E+0003	 1.62896746090535E-0001	
 2.46450000000000E+0003	 1.63270631753086E-0001	
 2.46650000000000E+0003	 1.63646017415638E-0001	
 2.46850000000000E+0003	 1.64026903078189E-0001	
 2.47050000000000E+0003	 1.64406788740741E-0001	
 2.47250000000000E+0003	 1.64793174403292E-0001	
 2.47450000000000E+0003	 1.65179560065844E-0001	
 2.47650000000000E+0003	 1.65565945728395E-0001	
 2.47850000000000E+0003	 1.65947831390947E-0001	
 2.48050000000000E+0003	 1.66329217053498E-0001	
 2.48250000000000E+0003	 1.66706102716049E-0001	
 2.48450000000000E+0003	 1.67079988378601E-0001	
 2.48650000000000E+0003	 1.67448374041152E-0001	
 2.48850000000000E+0003	 1.67816759703704E-0001	
 2.49050000000000E+0003	 1.68180145366255E-0001	
 2.49250000000000E+0003	 1.68538031028807E-0001	
 2.49450000000000E+0003	 1.68890916691358E-0001	
 2.49650000000000E+0003	 1.69244302353909E-0001	
 2.49850000000000E+0003	 1.69593188016461E-0001	
 2.50050000000000E+0003	 1.69947573679012E-0001	
 2.50250000000000E+0003	 1.70300959341564E-0001	
 2.50450000000000E+0003	 1.70650845004115E-0001	
 2.50650000000000E+0003	 1.70997730666667E-0001	
 2.50850000000000E+0003	 1.71346116329218E-0001	
 2.51050000000000E+0003	 1.71692001991770E-0001	
 2.51250000000000E+0003	 1.72036887654321E-0001	
 2.51450000000000E+0003	 1.72374773316872E-0001	
 2.51650000000000E+0003	 1.72710658979424E-0001	
 2.51850000000000E+0003	 1.73041044641975E-0001	
 2.52050000000000E+0003	 1.73375430304527E-0001	
 2.52250000000000E+0003	 1.73711815967078E-0001	
 2.52450000000000E+0003	 1.74052201629630E-0001	
 2.52650000000000E+0003	 1.74391587292181E-0001	
 2.52850000000000E+0003	 1.74732972954733E-0001	
 2.53050000000000E+0003	 1.75074858617284E-0001	
 2.53250000000000E+0003	 1.75421744279835E-0001	
 2.53450000000000E+0003	 1.75766629942387E-0001	
 2.53650000000000E+0003	 1.76116015604938E-0001	
 2.53850000000000E+0003	 1.76465401267490E-0001	
 2.54050000000000E+0003	 1.76816786930041E-0001	
 2.54250000000000E+0003	 1.77166172592593E-0001	
 2.54450000000000E+0003	 1.77519058255144E-0001	
 2.54650000000000E+0003	 1.77872443917695E-0001	
 2.54850000000000E+0003	 1.78232329580247E-0001	
 2.55050000000000E+0003	 1.78591215242798E-0001	
 2.55250000000000E+0003	 1.78953600905350E-0001	
 2.55450000000000E+0003	 1.79316486567901E-0001	
 2.55650000000000E+0003	 1.79680372230453E-0001	
 2.55850000000000E+0003	 1.80043757893004E-0001	
 2.56050000000000E+0003	 1.80407143555556E-0001	
 2.56250000000000E+0003	 1.80767029218107E-0001	
 2.56450000000000E+0003	 1.81131914880658E-0001	
 2.56650000000000E+0003	 1.81499300543210E-0001	
 2.56850000000000E+0003	 1.81872686205761E-0001	
 2.57050000000000E+0003	 1.82250571868313E-0001	
 2.57250000000000E+0003	 1.82637957530864E-0001	
 2.57450000000000E+0003	 1.83036843193416E-0001	
 2.57650000000000E+0003	 1.83452228855967E-0001	
 2.57850000000000E+0003	 1.83875114518519E-0001	
 2.58050000000000E+0003	 1.84308500181070E-0001	
 2.58250000000000E+0003	 1.84749885843621E-0001	
 2.58450000000000E+0003	 1.85203771506173E-0001	
 2.58650000000000E+0003	 1.85665657168724E-0001	
 2.58850000000000E+0003	 1.86139542831276E-0001	
 2.59050000000000E+0003	 1.86619928493827E-0001	
 2.59250000000000E+0003	 1.87110814156379E-0001	
 2.59450000000000E+0003	 1.87611699818930E-0001	
 2.59650000000000E+0003	 1.88126085481481E-0001	
 2.59850000000000E+0003	 1.88645971144033E-0001	
 2.60050000000000E+0003	 1.89176856806584E-0001	
 2.60250000000000E+0003	 1.89719742469136E-0001	
 2.60450000000000E+0003	 1.90271628131687E-0001	
 2.60650000000000E+0003	 1.90827513794239E-0001	
 2.60850000000000E+0003	 1.91393399456790E-0001	
 2.61050000000000E+0003	 1.91965285119342E-0001	
 2.61250000000000E+0003	 1.92544670781893E-0001	
 2.61450000000000E+0003	 1.93127056444444E-0001	
 2.61650000000000E+0003	 1.93719942106996E-0001	
 2.61850000000000E+0003	 1.94319327769547E-0001	
 2.62050000000000E+0003	 1.94930213432099E-0001	
 2.62250000000000E+0003	 1.95542099094650E-0001	
 2.62450000000000E+0003	 1.96160484757202E-0001	
 2.62650000000000E+0003	 1.96785370419753E-0001	
 2.62850000000000E+0003	 1.97420756082305E-0001	
 2.63050000000000E+0003	 1.98061141744856E-0001	
 2.63250000000000E+0003	 1.98710027407407E-0001	
 2.63450000000000E+0003	 1.99357913069959E-0001	
 2.63650000000000E+0003	 2.00010298732510E-0001	
 2.63850000000000E+0003	 2.00667184395062E-0001	
 2.64050000000000E+0003	 2.01332070057613E-0001	
 2.64250000000000E+0003	 2.01998955720165E-0001	
 2.64450000000000E+0003	 2.02668341382716E-0001	
 2.64650000000000E+0003	 2.03337727045267E-0001	
 2.64850000000000E+0003	 2.04011612707819E-0001	
 2.65050000000000E+0003	 2.04687498370370E-0001	
 2.65250000000000E+0003	 2.05366384032922E-0001	
 2.65450000000000E+0003	 2.06042769695473E-0001	
 2.65650000000000E+0003	 2.06721655358025E-0001	
 2.65850000000000E+0003	 2.07400041020576E-0001	
 2.66050000000000E+0003	 2.08079926683128E-0001	
 2.66250000000000E+0003	 2.08758312345679E-0001	
 2.66450000000000E+0003	 2.09442698008230E-0001	
 2.66650000000000E+0003	 2.10123083670782E-0001	
 2.66850000000000E+0003	 2.10800969333333E-0001	
 2.67050000000000E+0003	 2.11476354995885E-0001	
 2.67250000000000E+0003	 2.12152240658436E-0001	
 2.67450000000000E+0003	 2.12822126320988E-0001	
 2.67650000000000E+0003	 2.13487511983539E-0001	
 2.67850000000000E+0003	 2.14149397646091E-0001	
 2.68050000000000E+0003	 2.14808783308642E-0001	
 2.68250000000000E+0003	 2.15457168971193E-0001	
 2.68450000000000E+0003	 2.16096554633745E-0001	
 2.68650000000000E+0003	 2.16730940296296E-0001	
 2.68850000000000E+0003	 2.17363325958848E-0001	
 2.69050000000000E+0003	 2.17992211621399E-0001	
 2.69250000000000E+0003	 2.18618597283951E-0001	
 2.69450000000000E+0003	 2.19246982946502E-0001	
 2.69650000000000E+0003	 2.19881368609053E-0001	
 2.69850000000000E+0003	 2.20521754271605E-0001	
 2.70050000000000E+0003	 2.21176639934156E-0001	
 2.70250000000000E+0003	 2.21841025596708E-0001	
 2.70450000000000E+0003	 2.22518411259259E-0001	
 2.70650000000000E+0003	 2.23211296921811E-0001	
 2.70850000000000E+0003	 2.23924182584362E-0001	
 2.71050000000000E+0003	 2.24653568246914E-0001	
 2.71250000000000E+0003	 2.25402953909465E-0001	
 2.71450000000000E+0003	 2.26169339572016E-0001	
 2.71650000000000E+0003	 2.26952725234568E-0001	
 2.71850000000000E+0003	 2.27744610897119E-0001	
 2.72050000000000E+0003	 2.28544996559671E-0001	
 2.72250000000000E+0003	 2.29348882222222E-0001	
 2.72450000000000E+0003	 2.30153267884774E-0001	
 2.72650000000000E+0003	 2.30962153547325E-0001	
 2.72850000000000E+0003	 2.31767539209877E-0001	
 2.73050000000000E+0003	 2.32555424872428E-0001	
 2.73250000000000E+0003	 2.33334310534979E-0001	
 2.73450000000000E+0003	 2.34104196197531E-0001	
 2.73650000000000E+0003	 2.34865581860082E-0001	
 2.73850000000000E+0003	 2.35615467522634E-0001	
 2.74050000000000E+0003	 2.36354853185185E-0001	
 2.74250000000000E+0003	 2.37086738847737E-0001	
 2.74450000000000E+0003	 2.37816624510288E-0001	
 2.74650000000000E+0003	 2.38546510172840E-0001	
 2.74850000000000E+0003	 2.39285895835391E-0001	
 2.75050000000000E+0003	 2.40024781497942E-0001	
 2.75250000000000E+0003	 2.40771667160494E-0001	
 2.75450000000000E+0003	 2.41529552823045E-0001	
 2.75650000000000E+0003	 2.42307438485597E-0001	
 2.75850000000000E+0003	 2.43102824148148E-0001	
 2.76050000000000E+0003	 2.43913209810700E-0001	
 2.76250000000000E+0003	 2.44736595473251E-0001	
 2.76450000000000E+0003	 2.45574481135802E-0001	
 2.76650000000000E+0003	 2.46419366798354E-0001	
 2.76850000000000E+0003	 2.47278252460905E-0001	
 2.77050000000000E+0003	 2.48152638123457E-0001	
 2.77250000000000E+0003	 2.49044523786008E-0001	
 2.77450000000000E+0003	 2.49966909448560E-0001	
 2.77650000000000E+0003	 2.50912295111111E-0001	
 2.77850000000000E+0003	 2.51864180773663E-0001	
 2.78050000000000E+0003	 2.52841066436214E-0001	
 2.78250000000000E+0003	 2.53844452098765E-0001	
 2.78450000000000E+0003	 2.54869837761317E-0001	
 2.78650000000000E+0003	 2.55916223423868E-0001	
 2.78850000000000E+0003	 2.57002109086420E-0001	
 2.79050000000000E+0003	 2.58113994748971E-0001	
 2.79250000000000E+0003	 2.59231380411523E-0001	
 2.79450000000000E+0003	 2.60360766074074E-0001	
 2.79650000000000E+0003	 2.61517651736626E-0001	
 2.79850000000000E+0003	 2.62706037399177E-0001	
 2.80050000000000E+0003	 2.63911923061728E-0001	
 2.80250000000000E+0003	 2.65125308724280E-0001	
 2.80450000000000E+0003	 2.66365694386831E-0001	
 2.80650000000000E+0003	 2.67630080049383E-0001	
 2.80850000000000E+0003	 2.68924965711934E-0001	
 2.81050000000000E+0003	 2.70256851374486E-0001	
 2.81250000000000E+0003	 2.71612237037037E-0001	
 2.81450000000000E+0003	 2.72986122699588E-0001	
 2.81650000000000E+0003	 2.74402008362140E-0001	
 2.81850000000000E+0003	 2.75859894024691E-0001	
 2.82050000000000E+0003	 2.77361779687243E-0001	
 2.82250000000000E+0003	 2.78917665349794E-0001	
 2.82450000000000E+0003	 2.80535051012346E-0001	
 2.82650000000000E+0003	 2.82214936674897E-0001	
 2.82850000000000E+0003	 2.83965322337449E-0001	
 2.83050000000000E+0003	 2.85812708000000E-0001	
 2.83250000000000E+0003	 2.87791593662551E-0001	
 2.83450000000000E+0003	 2.89923979325103E-0001	
 2.83650000000000E+0003	 2.92264364987654E-0001	
 2.83850000000000E+0003	 2.94921750650206E-0001	
 2.84050000000000E+0003	 2.97988136312757E-0001	
 2.84250000000000E+0003	 3.01611021975309E-0001	
 2.84450000000000E+0003	 3.05971907637860E-0001	
 2.84650000000000E+0003	 3.11088793300412E-0001	
 2.84850000000000E+0003	 3.16724178962963E-0001	
 2.85050000000000E+0003	 3.22294064625514E-0001	
 2.85250000000000E+0003	 3.27014450288066E-0001	
 2.85450000000000E+0003	 3.30298335950617E-0001	
 2.85650000000000E+0003	 3.32209221613169E-0001	
 2.85850000000000E+0003	 3.33370607275720E-0001	
 2.86050000000000E+0003	 3.34475992938272E-0001	
 2.86250000000000E+0003	 3.35980878600823E-0001	
 2.86450000000000E+0003	 3.38127764263374E-0001	
 2.86650000000000E+0003	 3.40904149925926E-0001	
 2.86850000000000E+0003	 3.44086535588477E-0001	
 2.87050000000000E+0003	 3.47328921251029E-0001	
 2.87250000000000E+0003	 3.50228806913580E-0001	
 2.87450000000000E+0003	 3.52378192576132E-0001	
 2.87650000000000E+0003	 3.53669078238683E-0001	
 2.87850000000000E+0003	 3.54365963901235E-0001	
 2.88050000000000E+0003	 3.54785849563786E-0001	
 2.88250000000000E+0003	 3.55176735226337E-0001	
 2.88450000000000E+0003	 3.55727120888889E-0001	
 2.88650000000000E+0003	 3.56535506551440E-0001	
 2.88850000000000E+0003	 3.57627392213992E-0001	
 2.89050000000000E+0003	 3.58994777876543E-0001	
 2.89250000000000E+0003	 3.60618663539095E-0001	
 2.89450000000000E+0003	 3.62476549201646E-0001	
 2.89650000000000E+0003	 3.64537934864198E-0001	
 2.89850000000000E+0003	 3.66773320526749E-0001	
 2.90050000000000E+0003	 3.69240206189300E-0001	
 2.90250000000000E+0003	 3.72005091851852E-0001	
 2.90450000000000E+0003	 3.75131477514403E-0001	
 2.90650000000000E+0003	 3.78673863176955E-0001	
 2.90850000000000E+0003	 3.82701248839506E-0001	
 2.91050000000000E+0003	 3.87265634502058E-0001	
 2.91250000000000E+0003	 3.92392020164609E-0001	
 2.91450000000000E+0003	 3.97963905827160E-0001	
 2.91650000000000E+0003	 4.03780291489712E-0001	
 2.91850000000000E+0003	 4.09578177152263E-0001	
 2.92050000000000E+0003	 4.14950062814815E-0001	
 2.92250000000000E+0003	 4.19483948477366E-0001	
 2.92450000000000E+0003	 4.22914834139918E-0001	
 2.92650000000000E+0003	 4.25211219802469E-0001	
 2.92850000000000E+0003	 4.26527605465021E-0001	
 2.93050000000000E+0003	 4.26932991127572E-0001	
 2.93250000000000E+0003	 4.26432876790123E-0001	
 2.93450000000000E+0003	 4.25073762452675E-0001	
 2.93650000000000E+0003	 4.22830648115226E-0001	
 2.93850000000000E+0003	 4.19719033777778E-0001	
 2.94050000000000E+0003	 4.15961419440329E-0001	
 2.94250000000000E+0003	 4.11941805102881E-0001	
 2.94450000000000E+0003	 4.08029190765432E-0001	
 2.94650000000000E+0003	 4.04545576427984E-0001	
 2.94850000000000E+0003	 4.01792962090535E-0001	
 2.95050000000000E+0003	 4.00017347753086E-0001	
 2.95250000000000E+0003	 3.99215233415638E-0001	
 2.95450000000000E+0003	 3.99014619078189E-0001	
 2.95650000000000E+0003	 3.99015004740741E-0001	
 2.95850000000000E+0003	 3.98833390403292E-0001	
 2.96050000000000E+0003	 3.98139276065844E-0001	
 2.96250000000000E+0003	 3.96728161728395E-0001	
 2.96450000000000E+0003	 3.94538047390947E-0001	
 2.96650000000000E+0003	 3.91666933053498E-0001	
 2.96850000000000E+0003	 3.88299318716049E-0001	
 2.97050000000000E+0003	 3.84666704378601E-0001	
 2.97250000000000E+0003	 3.81006590041152E-0001	
 2.97450000000000E+0003	 3.77409475703704E-0001	
 2.97650000000000E+0003	 3.73895861366255E-0001	
 2.97850000000000E+0003	 3.70534247028807E-0001	
 2.98050000000000E+0003	 3.67329132691358E-0001	
 2.98250000000000E+0003	 3.64249518353909E-0001	
 2.98450000000000E+0003	 3.61373904016461E-0001	
 2.98650000000000E+0003	 3.58783789679012E-0001	
 2.98850000000000E+0003	 3.56504175341564E-0001	
 2.99050000000000E+0003	 3.54563061004115E-0001	
 2.99250000000000E+0003	 3.52961446666667E-0001	
 2.99450000000000E+0003	 3.51654332329218E-0001	
 2.99650000000000E+0003	 3.50738217991770E-0001	
 2.99850000000000E+0003	 3.50240103654321E-0001	
 3.00050000000000E+0003	 3.50089989316872E-0001	
 3.00250000000000E+0003	 3.50285874979424E-0001	
 3.00450000000000E+0003	 3.50783760641975E-0001	
 3.00650000000000E+0003	 3.51515146304527E-0001	
 3.00850000000000E+0003	 3.52487031967078E-0001	
 3.01050000000000E+0003	 3.53718917629630E-0001	
 3.01250000000000E+0003	 3.55149803292181E-0001	
 3.01450000000000E+0003	 3.56707688954733E-0001	
 3.01650000000000E+0003	 3.58392074617284E-0001	
 3.01850000000000E+0003	 3.60256960279835E-0001	
 3.02050000000000E+0003	 3.62313345942387E-0001	
 3.02250000000000E+0003	 3.64537231604938E-0001	
 3.02450000000000E+0003	 3.66916617267490E-0001	
 3.02650000000000E+0003	 3.69367002930041E-0001	
 3.02850000000000E+0003	 3.71837888592593E-0001	
 3.03050000000000E+0003	 3.74329774255144E-0001	
 3.03250000000000E+0003	 3.76841659917695E-0001	
 3.03450000000000E+0003	 3.79378045580247E-0001	
 3.03650000000000E+0003	 3.81917931242798E-0001	
 3.03850000000000E+0003	 3.84491316905350E-0001	
 3.04050000000000E+0003	 3.87171702567901E-0001	
 3.04250000000000E+0003	 3.89919588230453E-0001	
 3.04450000000000E+0003	 3.92670473893004E-0001	
 3.04650000000000E+0003	 3.95425859555556E-0001	
 3.04850000000000E+0003	 3.98216745218107E-0001	
 3.05050000000000E+0003	 4.01068630880658E-0001	
 3.05250000000000E+0003	 4.03935016543210E-0001	
 3.05450000000000E+0003	 4.06778902205761E-0001	
 3.05650000000000E+0003	 4.09590787868313E-0001	
 3.05850000000000E+0003	 4.12312673530864E-0001	
 3.06050000000000E+0003	 4.14915059193416E-0001	
 3.06250000000000E+0003	 4.17404444855967E-0001	
 3.06450000000000E+0003	 4.19786330518519E-0001	
 3.06650000000000E+0003	 4.22073216181070E-0001	
 3.06850000000000E+0003	 4.24266101843621E-0001	
 3.07050000000000E+0003	 4.26353487506173E-0001	
 3.07250000000000E+0003	 4.28388873168724E-0001	
 3.07450000000000E+0003	 4.30382758831276E-0001	
 3.07650000000000E+0003	 4.32358644493827E-0001	
 3.07850000000000E+0003	 4.34330530156379E-0001	
 3.08050000000000E+0003	 4.36253415818930E-0001	
 3.08250000000000E+0003	 4.38119301481481E-0001	
 3.08450000000000E+0003	 4.39971687144033E-0001	
 3.08650000000000E+0003	 4.41776572806584E-0001	
 3.08850000000000E+0003	 4.43523458469136E-0001	
 3.09050000000000E+0003	 4.45244344131687E-0001	
 3.09250000000000E+0003	 4.46924729794239E-0001	
 3.09450000000000E+0003	 4.48571615456790E-0001	
 3.09650000000000E+0003	 4.50230001119342E-0001	
 3.09850000000000E+0003	 4.51915886781893E-0001	
 3.10050000000000E+0003	 4.53644272444444E-0001	
 3.10250000000000E+0003	 4.55398158106996E-0001	
 3.10450000000000E+0003	 4.57188543769547E-0001	
 3.10650000000000E+0003	 4.59047429432099E-0001	
 3.10850000000000E+0003	 4.60997815094650E-0001	
 3.11050000000000E+0003	 4.62996200757202E-0001	
 3.11250000000000E+0003	 4.65049586419753E-0001	
 3.11450000000000E+0003	 4.67230472082305E-0001	
 3.11650000000000E+0003	 4.69533857744856E-0001	
 3.11850000000000E+0003	 4.71900243407407E-0001	
 3.12050000000000E+0003	 4.74319129069959E-0001	
 3.12250000000000E+0003	 4.76766514732510E-0001	
 3.12450000000000E+0003	 4.79294900395062E-0001	
 3.12650000000000E+0003	 4.81945786057613E-0001	
 3.12850000000000E+0003	 4.84699171720165E-0001	
 3.13050000000000E+0003	 4.87510057382716E-0001	
 3.13250000000000E+0003	 4.90365943045267E-0001	
 3.13450000000000E+0003	 4.93296828707819E-0001	
 3.13650000000000E+0003	 4.96328214370370E-0001	
 3.13850000000000E+0003	 4.99449600032922E-0001	
 3.14050000000000E+0003	 5.02570485695473E-0001	
 3.14250000000000E+0003	 5.05679871358025E-0001	
 3.14450000000000E+0003	 5.08888757020576E-0001	
 3.14650000000000E+0003	 5.12201642683128E-0001	
 3.14850000000000E+0003	 5.15611028345679E-0001	
 3.15050000000000E+0003	 5.19151414008230E-0001	
 3.15250000000000E+0003	 5.22732299670782E-0001	
 3.15450000000000E+0003	 5.26205185333333E-0001	
 3.15650000000000E+0003	 5.29688070995885E-0001	
 3.15850000000000E+0003	 5.33281956658436E-0001	
 3.16050000000000E+0003	 5.36957842320988E-0001	
 3.16250000000000E+0003	 5.40670227983539E-0001	
 3.16450000000000E+0003	 5.44406113646091E-0001	
 3.16650000000000E+0003	 5.48164499308642E-0001	
 3.16850000000000E+0003	 5.51939884971193E-0001	
 3.17050000000000E+0003	 5.55716770633745E-0001	
 3.17250000000000E+0003	 5.59490156296296E-0001	
 3.17450000000000E+0003	 5.63254041958848E-0001	
 3.17650000000000E+0003	 5.67011927621399E-0001	
 3.17850000000000E+0003	 5.70758313283951E-0001	
 3.18050000000000E+0003	 5.74482198946502E-0001	
 3.18250000000000E+0003	 5.78161584609053E-0001	
 3.18450000000000E+0003	 5.81807470271605E-0001	
 3.18650000000000E+0003	 5.85424355934156E-0001	
 3.18850000000000E+0003	 5.89010741596708E-0001	
 3.19050000000000E+0003	 5.92538627259259E-0001	
 3.19250000000000E+0003	 5.96006012921811E-0001	
 3.19450000000000E+0003	 5.99415898584362E-0001	
 3.19650000000000E+0003	 6.02782784246914E-0001	
 3.19850000000000E+0003	 6.06102669909465E-0001	
 3.20050000000000E+0003	 6.09374555572016E-0001	
 3.20250000000000E+0003	 6.12597441234568E-0001	
 3.20450000000000E+0003	 6.15785826897119E-0001	
 3.20650000000000E+0003	 6.18930712559671E-0001	
 3.20850000000000E+0003	 6.22038598222222E-0001	
 3.21050000000000E+0003	 6.25119483884774E-0001	
 3.21250000000000E+0003	 6.28199369547325E-0001	
 3.21450000000000E+0003	 6.31274255209877E-0001	
 3.21650000000000E+0003	 6.34342640872428E-0001	
 3.21850000000000E+0003	 6.37408026534979E-0001	
 3.22050000000000E+0003	 6.40467412197531E-0001	
 3.22250000000000E+0003	 6.43519297860082E-0001	
 3.22450000000000E+0003	 6.46602183522634E-0001	
 3.22650000000000E+0003	 6.49722569185185E-0001	
 3.22850000000000E+0003	 6.52901954847737E-0001	
 3.23050000000000E+0003	 6.56189340510288E-0001	
 3.23250000000000E+0003	 6.59591226172840E-0001	
 3.23450000000000E+0003	 6.62908611835391E-0001	
 3.23650000000000E+0003	 6.66147497497942E-0001	
 3.23850000000000E+0003	 6.69512883160494E-0001	
 3.24050000000000E+0003	 6.73031768823045E-0001	
 3.24250000000000E+0003	 6.76641654485597E-0001	
 3.24450000000000E+0003	 6.80373540148148E-0001	
 3.24650000000000E+0003	 6.84198425810700E-0001	
 3.24850000000000E+0003	 6.88009311473251E-0001	
 3.25050000000000E+0003	 6.91824697135802E-0001	
 3.25250000000000E+0003	 6.95753082798354E-0001	
 3.25450000000000E+0003	 6.99790468460905E-0001	
 3.25650000000000E+0003	 7.03858854123457E-0001	
 3.25850000000000E+0003	 7.07895739786008E-0001	
 3.26050000000000E+0003	 7.11938125448560E-0001	
 3.26250000000000E+0003	 7.15975511111111E-0001	
 3.26450000000000E+0003	 7.19976896773663E-0001	
 3.26650000000000E+0003	 7.23919282436214E-0001	
 3.26850000000000E+0003	 7.27822168098765E-0001	
 3.27050000000000E+0003	 7.31625553761317E-0001	
 3.27250000000000E+0003	 7.35221439423868E-0001	
 3.27450000000000E+0003	 7.38609825086420E-0001	
 3.27650000000000E+0003	 7.41858210748971E-0001	
 3.27850000000000E+0003	 7.44948096411523E-0001	
 3.28050000000000E+0003	 7.47890482074074E-0001	
 3.28250000000000E+0003	 7.50660367736626E-0001	
 3.28450000000000E+0003	 7.53250753399177E-0001	
 3.28650000000000E+0003	 7.55644139061728E-0001	
 3.28850000000000E+0003	 7.57870024724280E-0001	
 3.29050000000000E+0003	 7.59938910386831E-0001	
 3.29250000000000E+0003	 7.61840796049383E-0001	
 3.29450000000000E+0003	 7.63528181711934E-0001	
 3.29650000000000E+0003	 7.65047067374486E-0001	
 3.29850000000000E+0003	 7.66402453037037E-0001	
 3.30050000000000E+0003	 7.67629338699588E-0001	
 3.30250000000000E+0003	 7.68778724362140E-0001	
 3.30450000000000E+0003	 7.69881610024691E-0001	
 3.30650000000000E+0003	 7.70849495687243E-0001	
 3.30850000000000E+0003	 7.71644881349794E-0001	
 3.31050000000000E+0003	 7.72320267012346E-0001	
 3.31250000000000E+0003	 7.72963152674897E-0001	
 3.31450000000000E+0003	 7.73578038337449E-0001	
 3.31650000000000E+0003	 7.74169924000000E-0001	
 3.31850000000000E+0003	 7.74747809662551E-0001	
 3.32050000000000E+0003	 7.75328195325103E-0001	
 3.32250000000000E+0003	 7.75897580987654E-0001	
 3.32450000000000E+0003	 7.76500466650206E-0001	
 3.32650000000000E+0003	 7.77091852312757E-0001	
 3.32850000000000E+0003	 7.77642237975309E-0001	
 3.33050000000000E+0003	 7.78191623637860E-0001	
 3.33250000000000E+0003	 7.78792509300412E-0001	
 3.33450000000000E+0003	 7.79430894962963E-0001	
 3.33650000000000E+0003	 7.80137780625514E-0001	
 3.33850000000000E+0003	 7.80852666288066E-0001	
 3.34050000000000E+0003	 7.81508051950617E-0001	
 3.34250000000000E+0003	 7.82145437613169E-0001	
 3.34450000000000E+0003	 7.82800823275720E-0001	
 3.34650000000000E+0003	 7.83459208938272E-0001	
 3.34850000000000E+0003	 7.84197094600823E-0001	
 3.35050000000000E+0003	 7.84944980263374E-0001	
 3.35250000000000E+0003	 7.85574365925926E-0001	
 3.35450000000000E+0003	 7.86149251588477E-0001	
 3.35650000000000E+0003	 7.86792137251029E-0001	
 3.35850000000000E+0003	 7.87479522913580E-0001	
 3.36050000000000E+0003	 7.88173408576132E-0001	
 3.36250000000000E+0003	 7.88814794238683E-0001	
 3.36450000000000E+0003	 7.89512679901235E-0001	
 3.36650000000000E+0003	 7.90305065563786E-0001	
 3.36850000000000E+0003	 7.91055451226337E-0001	
 3.37050000000000E+0003	 7.91591336888889E-0001	
 3.37250000000000E+0003	 7.92009722551440E-0001	
 3.37450000000000E+0003	 7.92501608213992E-0001	
 3.37650000000000E+0003	 7.93072993876543E-0001	
 3.37850000000000E+0003	 7.93625379539095E-0001	
 3.38050000000000E+0003	 7.94154765201646E-0001	
 3.38250000000000E+0003	 7.94630650864198E-0001	
 3.38450000000000E+0003	 7.95101536526749E-0001	
 3.38650000000000E+0003	 7.95597422189300E-0001	
 3.38850000000000E+0003	 7.96212307851852E-0001	
 3.39050000000000E+0003	 7.96924693514403E-0001	
 3.39250000000000E+0003	 7.97402579176955E-0001	
 3.39450000000000E+0003	 7.97565464839506E-0001	
 3.39650000000000E+0003	 7.97852850502058E-0001	
 3.39850000000000E+0003	 7.98463736164609E-0001	
 3.40050000000000E+0003	 7.99019121827160E-0001	
 3.40250000000000E+0003	 7.99048507489712E-0001	
 3.40450000000000E+0003	 7.98865393152263E-0001	
 3.40650000000000E+0003	 7.98898778814815E-0001	
 3.40850000000000E+0003	 7.99076664477366E-0001	
 3.41050000000000E+0003	 7.99159550139918E-0001	
 3.41250000000000E+0003	 7.99120935802469E-0001	
 3.41450000000000E+0003	 7.98901821465021E-0001	
 3.41650000000000E+0003	 7.98602207127572E-0001	
 3.41850000000000E+0003	 7.98335592790123E-0001	
 3.42050000000000E+0003	 7.98041478452675E-0001	
 3.42250000000000E+0003	 7.97615364115226E-0001	
 3.42450000000000E+0003	 7.97144249777778E-0001	
 3.42650000000000E+0003	 7.96713135440329E-0001	
 3.42850000000000E+0003	 7.96294021102881E-0001	
 3.43050000000000E+0003	 7.95681906765432E-0001	
 3.43250000000000E+0003	 7.94979292427984E-0001	
 3.43450000000000E+0003	 7.94338178090535E-0001	
 3.43650000000000E+0003	 7.93446563753086E-0001	
 3.43850000000000E+0003	 7.92132449415638E-0001	
 3.44050000000000E+0003	 7.90749835078189E-0001	
 3.44250000000000E+0003	 7.89492720740741E-0001	
 3.44450000000000E+0003	 7.88295106403292E-0001	
 3.44650000000000E+0003	 7.87043992065844E-0001	
 3.44850000000000E+0003	 7.85658877728395E-0001	
 3.45050000000000E+0003	 7.84184763390947E-0001	
 3.45250000000000E+0003	 7.82700649053498E-0001	
 3.45450000000000E+0003	 7.81156534716049E-0001	
 3.45650000000000E+0003	 7.79601920378601E-0001	
 3.45850000000000E+0003	 7.78067806041152E-0001	
 3.46050000000000E+0003	 7.76388191703704E-0001	
 3.46250000000000E+0003	 7.74512577366255E-0001	
 3.46450000000000E+0003	 7.72840463028807E-0001	
 3.46650000000000E+0003	 7.71415848691358E-0001	
 3.46850000000000E+0003	 7.69648234353909E-0001	
 3.47050000000000E+0003	 7.67177620016461E-0001	
 3.47250000000000E+0003	 7.64541505679012E-0001	
 3.47450000000000E+0003	 7.62176891341564E-0001	
 3.47650000000000E+0003	 7.60053777004115E-0001	
 3.47850000000000E+0003	 7.58028662666667E-0001	
 3.48050000000000E+0003	 7.55713548329218E-0001	
 3.48250000000000E+0003	 7.53062433991770E-0001	
 3.48450000000000E+0003	 7.50561819654321E-0001	
 3.48650000000000E+0003	 7.48173705316872E-0001	
 3.48850000000000E+0003	 7.45603090979424E-0001	
 3.49050000000000E+0003	 7.42941976641975E-0001	
 3.49250000000000E+0003	 7.40380362304527E-0001	
 3.49450000000000E+0003	 7.37861247967078E-0001	
 3.49650000000000E+0003	 7.35273633629630E-0001	
 3.49850000000000E+0003	 7.32534019292181E-0001	
 3.50050000000000E+0003	 7.29857904954733E-0001	
 3.50250000000000E+0003	 7.27131790617284E-0001	
 3.50450000000000E+0003	 7.23989176279835E-0001	
 3.50650000000000E+0003	 7.20756561942387E-0001	
 3.50850000000000E+0003	 7.17738447604938E-0001	
 3.51050000000000E+0003	 7.14848333267490E-0001	
 3.51250000000000E+0003	 7.12046718930041E-0001	
 3.51450000000000E+0003	 7.09043104592593E-0001	
 3.51650000000000E+0003	 7.05787990255144E-0001	
 3.51850000000000E+0003	 7.02544875917695E-0001	
 3.52050000000000E+0003	 6.99496761580247E-0001	
 3.52250000000000E+0003	 6.96568647242798E-0001	
 3.52450000000000E+0003	 6.93307532905350E-0001	
 3.52650000000000E+0003	 6.89693918567901E-0001	
 3.52850000000000E+0003	 6.86156304230453E-0001	
 3.53050000000000E+0003	 6.82731189893004E-0001	
 3.53250000000000E+0003	 6.79378075555556E-0001	
 3.53450000000000E+0003	 6.76127461218107E-0001	
 3.53650000000000E+0003	 6.72700346880658E-0001	
 3.53850000000000E+0003	 6.68942732543210E-0001	
 3.54050000000000E+0003	 6.65319618205761E-0001	
 3.54250000000000E+0003	 6.61936003868313E-0001	
 3.54450000000000E+0003	 6.58359889530864E-0001	
 3.54650000000000E+0003	 6.54208775193416E-0001	
 3.54850000000000E+0003	 6.49860160855967E-0001	
 3.55050000000000E+0003	 6.45785046518519E-0001	
 3.55250000000000E+0003	 6.41707932181070E-0001	
 3.55450000000000E+0003	 6.37494317843621E-0001	
 3.55650000000000E+0003	 6.33348203506173E-0001	
 3.55850000000000E+0003	 6.29239589168724E-0001	
 3.56050000000000E+0003	 6.25059974831276E-0001	
 3.56250000000000E+0003	 6.20679360493827E-0001	
 3.56450000000000E+0003	 6.16175246156379E-0001	
 3.56650000000000E+0003	 6.11653131818930E-0001	
 3.56850000000000E+0003	 6.07130517481481E-0001	
 3.57050000000000E+0003	 6.02629903144033E-0001	
 3.57250000000000E+0003	 5.98056288806584E-0001	
 3.57450000000000E+0003	 5.93378674469136E-0001	
 3.57650000000000E+0003	 5.88679560131687E-0001	
 3.57850000000000E+0003	 5.84009445794239E-0001	
 3.58050000000000E+0003	 5.79397831456790E-0001	
 3.58250000000000E+0003	 5.74803717119342E-0001	
 3.58450000000000E+0003	 5.70130602781893E-0001	
 3.58650000000000E+0003	 5.65062488444444E-0001	
 3.58850000000000E+0003	 5.59638874106996E-0001	
 3.59050000000000E+0003	 5.54518259769547E-0001	
 3.59250000000000E+0003	 5.49675645432099E-0001	
 3.59450000000000E+0003	 5.44656031094650E-0001	
 3.59650000000000E+0003	 5.39587416757202E-0001	
 3.59850000000000E+0003	 5.34650302419753E-0001	
 3.60050000000000E+0003	 5.29627688082305E-0001	
 3.60250000000000E+0003	 5.24488073744856E-0001	
 3.60450000000000E+0003	 5.19388959407407E-0001	
 3.60650000000000E+0003	 5.14259845069959E-0001	
 3.60850000000000E+0003	 5.08977730732510E-0001	
 3.61050000000000E+0003	 5.03699116395062E-0001	
 3.61250000000000E+0003	 4.98580502057613E-0001	
 3.61450000000000E+0003	 4.93462887720165E-0001	
 3.61650000000000E+0003	 4.88397273382716E-0001	
 3.61850000000000E+0003	 4.83311659045267E-0001	
 3.62050000000000E+0003	 4.78129544707819E-0001	
 3.62250000000000E+0003	 4.73083430370370E-0001	
 3.62450000000000E+0003	 4.68156816032922E-0001	
 3.62650000000000E+0003	 4.63252201695473E-0001	
 3.62850000000000E+0003	 4.58088087358025E-0001	
 3.63050000000000E+0003	 4.52697973020576E-0001	
 3.63250000000000E+0003	 4.47847858683128E-0001	
 3.63450000000000E+0003	 4.43162244345679E-0001	
 3.63650000000000E+0003	 4.38313630008230E-0001	
 3.63850000000000E+0003	 4.33500515670782E-0001	
 3.64050000000000E+0003	 4.28739401333333E-0001	
 3.64250000000000E+0003	 4.24041786995885E-0001	
 3.64450000000000E+0003	 4.19458172658436E-0001	
 3.64650000000000E+0003	 4.14970558320988E-0001	
 3.64850000000000E+0003	 4.10405443983539E-0001	
 3.65050000000000E+0003	 4.05752329646091E-0001	
 3.65250000000000E+0003	 4.01258715308642E-0001	
 3.65450000000000E+0003	 3.97111600971193E-0001	
 3.65650000000000E+0003	 3.93022486633745E-0001	
 3.65850000000000E+0003	 3.88977372296296E-0001	
 3.66050000000000E+0003	 3.85079757958848E-0001	
 3.66250000000000E+0003	 3.81139643621399E-0001	
 3.66450000000000E+0003	 3.77306029283951E-0001	
 3.66650000000000E+0003	 3.73712914946502E-0001	
 3.66850000000000E+0003	 3.70243300609053E-0001	
 3.67050000000000E+0003	 3.66750686271605E-0001	
 3.67250000000000E+0003	 3.63457571934156E-0001	
 3.67450000000000E+0003	 3.60445957596708E-0001	
 3.67650000000000E+0003	 3.57319343259259E-0001	
 3.67850000000000E+0003	 3.54352728921811E-0001	
 3.68050000000000E+0003	 3.51673614584362E-0001	
 3.68250000000000E+0003	 3.49083500246914E-0001	
 3.68450000000000E+0003	 3.46642885909465E-0001	
 3.68650000000000E+0003	 3.44401271572016E-0001	
 3.68850000000000E+0003	 3.42173157234568E-0001	
 3.69050000000000E+0003	 3.39783542897119E-0001	
 3.69250000000000E+0003	 3.37519928559671E-0001	
 3.69450000000000E+0003	 3.35501314222222E-0001	
 3.69650000000000E+0003	 3.33602699884774E-0001	
 3.69850000000000E+0003	 3.31750085547325E-0001	
 3.70050000000000E+0003	 3.29984471209877E-0001	
 3.70250000000000E+0003	 3.28313856872428E-0001	
 3.70450000000000E+0003	 3.26732242534979E-0001	
 3.70650000000000E+0003	 3.25252628197531E-0001	
 3.70850000000000E+0003	 3.23835513860082E-0001	
 3.71050000000000E+0003	 3.22435899522634E-0001	
 3.71250000000000E+0003	 3.21055785185185E-0001	
 3.71450000000000E+0003	 3.19724170847737E-0001	
 3.71650000000000E+0003	 3.18456556510288E-0001	
 3.71850000000000E+0003	 3.17240942172840E-0001	
 3.72050000000000E+0003	 3.16072327835391E-0001	
 3.72250000000000E+0003	 3.14954713497942E-0001	
 3.72450000000000E+0003	 3.13874599160494E-0001	
 3.72650000000000E+0003	 3.12844984823045E-0001	
 3.72850000000000E+0003	 3.11831870485597E-0001	
 3.73050000000000E+0003	 3.10850256148148E-0001	
 3.73250000000000E+0003	 3.09924641810700E-0001	
 3.73450000000000E+0003	 3.09076527473251E-0001	
 3.73650000000000E+0003	 3.08294413135802E-0001	
 3.73850000000000E+0003	 3.07452798798354E-0001	
 3.74050000000000E+0003	 3.06545684460905E-0001	
 3.74250000000000E+0003	 3.05623070123457E-0001	
 3.74450000000000E+0003	 3.04746455786008E-0001	
 3.74650000000000E+0003	 3.03893841448560E-0001	
 3.74850000000000E+0003	 3.03093727111111E-0001	
 3.75050000000000E+0003	 3.02315112773663E-0001	
 3.75250000000000E+0003	 3.01568998436214E-0001	
 3.75450000000000E+0003	 3.00855884098765E-0001	
 3.75650000000000E+0003	 3.00151269761317E-0001	
 3.75850000000000E+0003	 2.99470155423868E-0001	
 3.76050000000000E+0003	 2.98811541086420E-0001	
 3.76250000000000E+0003	 2.98146426748971E-0001	
 3.76450000000000E+0003	 2.97501312411523E-0001	
 3.76650000000000E+0003	 2.96877198074074E-0001	
 3.76850000000000E+0003	 2.96260083736626E-0001	
 3.77050000000000E+0003	 2.95667969399177E-0001	
 3.77250000000000E+0003	 2.95069855061728E-0001	
 3.77450000000000E+0003	 2.94491740724280E-0001	
 3.77650000000000E+0003	 2.93952626386831E-0001	
 3.77850000000000E+0003	 2.93448012049383E-0001	
 3.78050000000000E+0003	 2.92909897711934E-0001	
 3.78250000000000E+0003	 2.92316783374486E-0001	
 3.78450000000000E+0003	 2.91766669037037E-0001	
 3.78650000000000E+0003	 2.91263554699588E-0001	
 3.78850000000000E+0003	 2.90783440362140E-0001	
 3.79050000000000E+0003	 2.90315326024691E-0001	
 3.79250000000000E+0003	 2.89830211687243E-0001	
 3.79450000000000E+0003	 2.89337097349794E-0001	
 3.79650000000000E+0003	 2.88888483012346E-0001	
 3.79850000000000E+0003	 2.88439868674897E-0001	
 3.80050000000000E+0003	 2.87985254337449E-0001	
 3.80250000000000E+0003	 2.87561640000000E-0001	
 3.80450000000000E+0003	 2.87120025662551E-0001	
 3.80650000000000E+0003	 2.86707911325103E-0001	
 3.80850000000000E+0003	 2.86304796987654E-0001	
 3.81050000000000E+0003	 2.85906182650206E-0001	
 3.81250000000000E+0003	 2.85531568312757E-0001	
 3.81450000000000E+0003	 2.85159953975309E-0001	
 3.81650000000000E+0003	 2.84816339637860E-0001	
 3.81850000000000E+0003	 2.84443225300412E-0001	
 3.82050000000000E+0003	 2.84077610962963E-0001	
 3.82250000000000E+0003	 2.83715496625514E-0001	
 3.82450000000000E+0003	 2.83335382288066E-0001	
 3.82650000000000E+0003	 2.83002767950617E-0001	
 3.82850000000000E+0003	 2.82682153613169E-0001	
 3.83050000000000E+0003	 2.82368539275720E-0001	
 3.83250000000000E+0003	 2.82093424938272E-0001	
 3.83450000000000E+0003	 2.81863810600823E-0001	
 3.83650000000000E+0003	 2.81598196263374E-0001	
 3.83850000000000E+0003	 2.81230081925926E-0001	
 3.84050000000000E+0003	 2.80861967588477E-0001	
 3.84250000000000E+0003	 2.80576353251029E-0001	
 3.84450000000000E+0003	 2.80342738913580E-0001	
 3.84650000000000E+0003	 2.80095624576132E-0001	
 3.84850000000000E+0003	 2.79835510238683E-0001	
 3.85050000000000E+0003	 2.79579895901235E-0001	
 3.85250000000000E+0003	 2.79301781563786E-0001	
 3.85450000000000E+0003	 2.79035667226337E-0001	
 3.85650000000000E+0003	 2.78782052888889E-0001	
 3.85850000000000E+0003	 2.78540938551440E-0001	
 3.86050000000000E+0003	 2.78319824213992E-0001	
 3.86250000000000E+0003	 2.78098209876543E-0001	
 3.86450000000000E+0003	 2.77892595539095E-0001	
 3.86650000000000E+0003	 2.77690481201646E-0001	
 3.86850000000000E+0003	 2.77465366864198E-0001	
 3.87050000000000E+0003	 2.77259752526749E-0001	
 3.87250000000000E+0003	 2.77036138189300E-0001	
 3.87450000000000E+0003	 2.76848023851852E-0001	
 3.87650000000000E+0003	 2.76668909514403E-0001	
 3.87850000000000E+0003	 2.76479295176955E-0001	
 3.88050000000000E+0003	 2.76323180839506E-0001	
 3.88250000000000E+0003	 2.76182566502058E-0001	
 3.88450000000000E+0003	 2.76043952164609E-0001	
 3.88650000000000E+0003	 2.75890837827160E-0001	
 3.88850000000000E+0003	 2.75683723489712E-0001	
 3.89050000000000E+0003	 2.75510609152263E-0001	
 3.89250000000000E+0003	 2.75361994814815E-0001	
 3.89450000000000E+0003	 2.75209880477366E-0001	
 3.89650000000000E+0003	 2.75072766139918E-0001	
 3.89850000000000E+0003	 2.74948651802469E-0001	
 3.90050000000000E+0003	 2.74819037465021E-0001	
 3.90250000000000E+0003	 2.74681423127572E-0001	
 3.90450000000000E+0003	 2.74568308790123E-0001	
 3.90650000000000E+0003	 2.74462694452675E-0001	
 3.90850000000000E+0003	 2.74355580115226E-0001	
 3.91050000000000E+0003	 2.74258965777778E-0001	
 3.91250000000000E+0003	 2.74172351440329E-0001	
 3.91450000000000E+0003	 2.74089237102881E-0001	
 3.91650000000000E+0003	 2.74007622765432E-0001	
 3.91850000000000E+0003	 2.73923008427984E-0001	
 3.92050000000000E+0003	 2.73838894090535E-0001	
 3.92250000000000E+0003	 2.73748279753086E-0001	
 3.92450000000000E+0003	 2.73660665415638E-0001	
 3.92650000000000E+0003	 2.73582551078189E-0001	
 3.92850000000000E+0003	 2.73502436740741E-0001	
 3.93050000000000E+0003	 2.73425822403292E-0001	
 3.93250000000000E+0003	 2.73361708065844E-0001	
 3.93450000000000E+0003	 2.73296093728395E-0001	
 3.93650000000000E+0003	 2.73206979390947E-0001	
 3.93850000000000E+0003	 2.73112865053498E-0001	
 3.94050000000000E+0003	 2.73021750716049E-0001	
 3.94250000000000E+0003	 2.72937636378601E-0001	
 3.94450000000000E+0003	 2.72851522041152E-0001	
 3.94650000000000E+0003	 2.72758907703704E-0001	
 3.94850000000000E+0003	 2.72668293366255E-0001	
 3.95050000000000E+0003	 2.72583179028807E-0001	
 3.95250000000000E+0003	 2.72499564691358E-0001	
 3.95450000000000E+0003	 2.72415450353909E-0001	
 3.95650000000000E+0003	 2.72334336016461E-0001	
 3.95850000000000E+0003	 2.72254721679012E-0001	
 3.96050000000000E+0003	 2.72171607341564E-0001	
 3.96250000000000E+0003	 2.72089993004115E-0001	
 3.96450000000000E+0003	 2.72013378666667E-0001	
 3.96650000000000E+0003	 2.71943764329218E-0001	
 3.96850000000000E+0003	 2.71875149991770E-0001	
 3.97050000000000E+0003	 2.71805035654321E-0001	
 3.97250000000000E+0003	 2.71729921316872E-0001	
 3.97450000000000E+0003	 2.71661306979424E-0001	
 3.97650000000000E+0003	 2.71599192641975E-0001	
 3.97850000000000E+0003	 2.71533578304527E-0001	
 3.98050000000000E+0003	 2.71467463967078E-0001	
 3.98250000000000E+0003	 2.71422349629630E-0001	
 3.98450000000000E+0003	 2.71376235292181E-0001	
 3.98650000000000E+0003	 2.71300120954733E-0001	
 3.98850000000000E+0003	 2.71211006617284E-0001	
 3.99050000000000E+0003	 2.71136392279835E-0001	
 3.99250000000000E+0003	 2.71071277942387E-0001	
 3.99450000000000E+0003	 2.71010163604938E-0001	
 3.99650000000000E+0003	 2.70948049267490E-0001	
 3.99850000000000E+0003	 2.70887434930041E-0001	

>1	DATALINE
