*CPCWIN*

>1	DATALINE
DATALINE
1
Operator:

Description:

Remarks:





15.9.2008
11:14


_x	_y
	
	
UNIT	UNIT
 4.50500000000000E+0002	 1.70072606377530E-0001	
 4.52500000000000E+0002	 1.70712929657166E-0001	
 4.54500000000000E+0002	 1.72360252936803E-0001	
 4.56500000000000E+0002	 1.73570076216439E-0001	
 4.58500000000000E+0002	 1.74375399496076E-0001	
 4.60500000000000E+0002	 1.75071222775713E-0001	
 4.62500000000000E+0002	 1.76380546055349E-0001	
 4.64500000000000E+0002	 1.77954369334986E-0001	
 4.66500000000000E+0002	 1.78021192614622E-0001	
 4.68500000000000E+0002	 1.78363515894259E-0001	
 4.70500000000000E+0002	 1.79887339173895E-0001	
 4.72500000000000E+0002	 1.81197162453532E-0001	
 4.74500000000000E+0002	 1.82054985733168E-0001	
 4.76500000000000E+0002	 1.82792809012805E-0001	
 4.78500000000000E+0002	 1.84017132292441E-0001	
 4.80500000000000E+0002	 1.85071955572078E-0001	
 4.82500000000000E+0002	 1.86051778851714E-0001	
 4.84500000000000E+0002	 1.86720602131351E-0001	
 4.86500000000000E+0002	 1.87384925410987E-0001	
 4.88500000000000E+0002	 1.88581748690624E-0001	
 4.90500000000000E+0002	 1.89310071970260E-0001	
 4.92500000000000E+0002	 1.90211395249897E-0001	
 4.94500000000000E+0002	 1.91638718529533E-0001	
 4.96500000000000E+0002	 1.92836541809170E-0001	
 4.98500000000000E+0002	 1.93750865088806E-0001	
 5.00500000000000E+0002	 1.94251188368443E-0001	
 5.02500000000000E+0002	 1.95259011648079E-0001	
 5.04500000000000E+0002	 1.97068834927716E-0001	
 5.06500000000000E+0002	 1.98660658207352E-0001	
 5.08500000000000E+0002	 1.99995981486989E-0001	
 5.10500000000000E+0002	 2.01422304766625E-0001	
 5.12500000000000E+0002	 2.03164128046262E-0001	
 5.14500000000000E+0002	 2.04561951325898E-0001	
 5.16500000000000E+0002	 2.05817274605535E-0001	
 5.18500000000000E+0002	 2.07743097885171E-0001	
 5.20500000000000E+0002	 2.10269921164808E-0001	
 5.22500000000000E+0002	 2.12863244444444E-0001	
 5.24500000000000E+0002	 2.15532067724081E-0001	
 5.26500000000000E+0002	 2.19599891003717E-0001	
 5.28500000000000E+0002	 2.24452714283354E-0001	
 5.30500000000000E+0002	 2.27376037562991E-0001	
 5.32500000000000E+0002	 2.27023360842627E-0001	
 5.34500000000000E+0002	 2.24988184122264E-0001	
 5.36500000000000E+0002	 2.22958007401900E-0001	
 5.38500000000000E+0002	 2.21233330681537E-0001	
 5.40500000000000E+0002	 2.19657653961173E-0001	
 5.42500000000000E+0002	 2.18254477240810E-0001	
 5.44500000000000E+0002	 2.16875800520446E-0001	
 5.46500000000000E+0002	 2.15586623800083E-0001	
 5.48500000000000E+0002	 2.14477447079719E-0001	
 5.50500000000000E+0002	 2.13699270359356E-0001	
 5.52500000000000E+0002	 2.13097093638992E-0001	
 5.54500000000000E+0002	 2.12397416918629E-0001	
 5.56500000000000E+0002	 2.11647740198265E-0001	
 5.58500000000000E+0002	 2.11027563477902E-0001	
 5.60500000000000E+0002	 2.10426886757538E-0001	
 5.62500000000000E+0002	 2.09801210037175E-0001	
 5.64500000000000E+0002	 2.09162033316811E-0001	
 5.66500000000000E+0002	 2.08568856596448E-0001	
 5.68500000000000E+0002	 2.07945179876084E-0001	
 5.70500000000000E+0002	 2.07375003155721E-0001	
 5.72500000000000E+0002	 2.06905826435357E-0001	
 5.74500000000000E+0002	 2.06301149714994E-0001	
 5.76500000000000E+0002	 2.05765972994630E-0001	
 5.78500000000000E+0002	 2.05371796274267E-0001	
 5.80500000000000E+0002	 2.04750119553903E-0001	
 5.82500000000000E+0002	 2.04318942833540E-0001	
 5.84500000000000E+0002	 2.03873766113176E-0001	
 5.86500000000000E+0002	 2.03652589392813E-0001	
 5.88500000000000E+0002	 2.03425912672449E-0001	
 5.90500000000000E+0002	 2.03005235952086E-0001	
 5.92500000000000E+0002	 2.02932059231722E-0001	
 5.94500000000000E+0002	 2.03251382511359E-0001	
 5.96500000000000E+0002	 2.03394205790995E-0001	
 5.98500000000000E+0002	 2.03269029070632E-0001	
 6.00500000000000E+0002	 2.03177852350268E-0001	
 6.02500000000000E+0002	 2.03331675629905E-0001	
 6.04500000000000E+0002	 2.03316498909542E-0001	
 6.06500000000000E+0002	 2.03294822189178E-0001	
 6.08500000000000E+0002	 2.03256645468815E-0001	
 6.10500000000000E+0002	 2.03250968748451E-0001	
 6.12500000000000E+0002	 2.03239792028088E-0001	
 6.14500000000000E+0002	 2.03173115307724E-0001	
 6.16500000000000E+0002	 2.03136938587361E-0001	
 6.18500000000000E+0002	 2.03013261866997E-0001	
 6.20500000000000E+0002	 2.02669585146634E-0001	
 6.22500000000000E+0002	 2.02281908426270E-0001	
 6.24500000000000E+0002	 2.01724231705907E-0001	
 6.26500000000000E+0002	 2.01236554985543E-0001	
 6.28500000000000E+0002	 2.00804878265180E-0001	
 6.30500000000000E+0002	 2.00198201544816E-0001	
 6.32500000000000E+0002	 1.99459524824453E-0001	
 6.34500000000000E+0002	 1.98783348104089E-0001	
 6.36500000000000E+0002	 1.98454671383726E-0001	
 6.38500000000000E+0002	 1.98216994663362E-0001	
 6.40500000000000E+0002	 1.97992817942999E-0001	
 6.42500000000000E+0002	 1.97844641222635E-0001	
 6.44500000000000E+0002	 1.97590964502272E-0001	
 6.46500000000000E+0002	 1.97350787781908E-0001	
 6.48500000000000E+0002	 1.97148111061545E-0001	
 6.50500000000000E+0002	 1.96854934341181E-0001	
 6.52500000000000E+0002	 1.96602257620818E-0001	
 6.54500000000000E+0002	 1.96353580900454E-0001	
 6.56500000000000E+0002	 1.96033404180091E-0001	
 6.58500000000000E+0002	 1.95608727459727E-0001	
 6.60500000000000E+0002	 1.95216550739364E-0001	
 6.62500000000000E+0002	 1.94736874019000E-0001	
 6.64500000000000E+0002	 1.94065197298637E-0001	
 6.66500000000000E+0002	 1.93212020578273E-0001	
 6.68500000000000E+0002	 1.92378843857910E-0001	
 6.70500000000000E+0002	 1.91740667137546E-0001	
 6.72500000000000E+0002	 1.91098490417183E-0001	
 6.74500000000000E+0002	 1.90315813696819E-0001	
 6.76500000000000E+0002	 1.89472136976456E-0001	
 6.78500000000000E+0002	 1.88620460256093E-0001	
 6.80500000000000E+0002	 1.87835283535729E-0001	
 6.82500000000000E+0002	 1.87056106815366E-0001	
 6.84500000000000E+0002	 1.86312930095002E-0001	
 6.86500000000000E+0002	 1.85523753374639E-0001	
 6.88500000000000E+0002	 1.84801576654275E-0001	
 6.90500000000000E+0002	 1.84361399933912E-0001	
 6.92500000000000E+0002	 1.84089223213548E-0001	
 6.94500000000000E+0002	 1.83891546493185E-0001	
 6.96500000000000E+0002	 1.83789869772821E-0001	
 6.98500000000000E+0002	 1.83653693052458E-0001	
 7.00500000000000E+0002	 1.83266516332094E-0001	
 7.02500000000000E+0002	 1.82330839611731E-0001	
 7.04500000000000E+0002	 1.80980662891367E-0001	
 7.06500000000000E+0002	 1.79561986171004E-0001	
 7.08500000000000E+0002	 1.78202809450640E-0001	
 7.10500000000000E+0002	 1.76990132730277E-0001	
 7.12500000000000E+0002	 1.75862456009913E-0001	
 7.14500000000000E+0002	 1.74730279289550E-0001	
 7.16500000000000E+0002	 1.73634102569186E-0001	
 7.18500000000000E+0002	 1.72696925848823E-0001	
 7.20500000000000E+0002	 1.71725749128459E-0001	
 7.22500000000000E+0002	 1.70579072408096E-0001	
 7.24500000000000E+0002	 1.69269395687732E-0001	
 7.26500000000000E+0002	 1.67874218967369E-0001	
 7.28500000000000E+0002	 1.66410042247005E-0001	
 7.30500000000000E+0002	 1.65031365526642E-0001	
 7.32500000000000E+0002	 1.63777688806278E-0001	
 7.34500000000000E+0002	 1.62761012085915E-0001	
 7.36500000000000E+0002	 1.61910335365551E-0001	
 7.38500000000000E+0002	 1.61245158645188E-0001	
 7.40500000000000E+0002	 1.60625481924824E-0001	
 7.42500000000000E+0002	 1.60022805204461E-0001	
 7.44500000000000E+0002	 1.59364128484097E-0001	
 7.46500000000000E+0002	 1.58737451763734E-0001	
 7.48500000000000E+0002	 1.57960275043371E-0001	
 7.50500000000000E+0002	 1.57105598323007E-0001	
 7.52500000000000E+0002	 1.56175421602644E-0001	
 7.54500000000000E+0002	 1.55283244882280E-0001	
 7.56500000000000E+0002	 1.54413568161917E-0001	
 7.58500000000000E+0002	 1.53601891441553E-0001	
 7.60500000000000E+0002	 1.52823714721190E-0001	
 7.62500000000000E+0002	 1.52248038000826E-0001	
 7.64500000000000E+0002	 1.51799861280463E-0001	
 7.66500000000000E+0002	 1.51369184560099E-0001	
 7.68500000000000E+0002	 1.50798007839736E-0001	
 7.70500000000000E+0002	 1.50253831119372E-0001	
 7.72500000000000E+0002	 1.49854654399009E-0001	
 7.74500000000000E+0002	 1.49741477678645E-0001	
 7.76500000000000E+0002	 1.50015300958282E-0001	
 7.78500000000000E+0002	 1.50547624237918E-0001	
 7.80500000000000E+0002	 1.50533447517555E-0001	
 7.82500000000000E+0002	 1.49613270797191E-0001	
 7.84500000000000E+0002	 1.48277594076828E-0001	
 7.86500000000000E+0002	 1.47015417356464E-0001	
 7.88500000000000E+0002	 1.45833240636101E-0001	
 7.90500000000000E+0002	 1.44790063915737E-0001	
 7.92500000000000E+0002	 1.44068387195374E-0001	
 7.94500000000000E+0002	 1.43695210475010E-0001	
 7.96500000000000E+0002	 1.43392033754647E-0001	
 7.98500000000000E+0002	 1.42846357034283E-0001	
 8.00500000000000E+0002	 1.42088180313920E-0001	
 8.02500000000000E+0002	 1.41380003593556E-0001	
 8.04500000000000E+0002	 1.40991826873193E-0001	
 8.06500000000000E+0002	 1.40816150152829E-0001	
 8.08500000000000E+0002	 1.40702973432466E-0001	
 8.10500000000000E+0002	 1.40499796712102E-0001	
 8.12500000000000E+0002	 1.40138119991739E-0001	
 8.14500000000000E+0002	 1.39589943271375E-0001	
 8.16500000000000E+0002	 1.38940766551012E-0001	
 8.18500000000000E+0002	 1.38231089830648E-0001	
 8.20500000000000E+0002	 1.37555413110285E-0001	
 8.22500000000000E+0002	 1.36930236389922E-0001	
 8.24500000000000E+0002	 1.36414559669558E-0001	
 8.26500000000000E+0002	 1.35941882949195E-0001	
 8.28500000000000E+0002	 1.35532706228831E-0001	
 8.30500000000000E+0002	 1.35116029508468E-0001	
 8.32500000000000E+0002	 1.34663852788104E-0001	
 8.34500000000000E+0002	 1.34132676067741E-0001	
 8.36500000000000E+0002	 1.33608999347377E-0001	
 8.38500000000000E+0002	 1.33102822627014E-0001	
 8.40500000000000E+0002	 1.32707645906650E-0001	
 8.42500000000000E+0002	 1.32444469186287E-0001	
 8.44500000000000E+0002	 1.32410792465923E-0001	
 8.46500000000000E+0002	 1.32623115745560E-0001	
 8.48500000000000E+0002	 1.33051939025196E-0001	
 8.50500000000000E+0002	 1.33566262304833E-0001	
 8.52500000000000E+0002	 1.34128085584469E-0001	
 8.54500000000000E+0002	 1.34642908864106E-0001	
 8.56500000000000E+0002	 1.35070732143742E-0001	
 8.58500000000000E+0002	 1.35367555423379E-0001	
 8.60500000000000E+0002	 1.35564878703015E-0001	
 8.62500000000000E+0002	 1.35649701982652E-0001	
 8.64500000000000E+0002	 1.35674525262288E-0001	
 8.66500000000000E+0002	 1.35714348541925E-0001	
 8.68500000000000E+0002	 1.36095671821561E-0001	
 8.70500000000000E+0002	 1.37199495101198E-0001	
 8.72500000000000E+0002	 1.38393818380834E-0001	
 8.74500000000000E+0002	 1.38340641660471E-0001	
 8.76500000000000E+0002	 1.37393964940107E-0001	
 8.78500000000000E+0002	 1.36354788219744E-0001	
 8.80500000000000E+0002	 1.35335111499380E-0001	
 8.82500000000000E+0002	 1.34248934779017E-0001	
 8.84500000000000E+0002	 1.33108258058653E-0001	
 8.86500000000000E+0002	 1.31931581338290E-0001	
 8.88500000000000E+0002	 1.30837904617926E-0001	
 8.90500000000000E+0002	 1.29916727897563E-0001	
 8.92500000000000E+0002	 1.29237551177200E-0001	
 8.94500000000000E+0002	 1.28795374456836E-0001	
 8.96500000000000E+0002	 1.28567697736473E-0001	
 8.98500000000000E+0002	 1.28494521016109E-0001	
 9.00500000000000E+0002	 1.28607844295746E-0001	
 9.02500000000000E+0002	 1.28922167575382E-0001	
 9.04500000000000E+0002	 1.29465990855019E-0001	
 9.06500000000000E+0002	 1.30208814134655E-0001	
 9.08500000000000E+0002	 1.31082137414292E-0001	
 9.10500000000000E+0002	 1.31921960693928E-0001	
 9.12500000000000E+0002	 1.32582783973565E-0001	
 9.14500000000000E+0002	 1.32888107253201E-0001	
 9.16500000000000E+0002	 1.32811430532838E-0001	
 9.18500000000000E+0002	 1.32393753812474E-0001	
 9.20500000000000E+0002	 1.31798077092111E-0001	
 9.22500000000000E+0002	 1.31197400371747E-0001	
 9.24500000000000E+0002	 1.30765723651384E-0001	
 9.26500000000000E+0002	 1.30536546931020E-0001	
 9.28500000000000E+0002	 1.30539370210657E-0001	
 9.30500000000000E+0002	 1.30699693490293E-0001	
 9.32500000000000E+0002	 1.30972016769930E-0001	
 9.34500000000000E+0002	 1.31312840049566E-0001	
 9.36500000000000E+0002	 1.31779163329203E-0001	
 9.38500000000000E+0002	 1.32380486608839E-0001	
 9.40500000000000E+0002	 1.33179809888476E-0001	
 9.42500000000000E+0002	 1.34163633168112E-0001	
 9.44500000000000E+0002	 1.35335456447749E-0001	
 9.46500000000000E+0002	 1.36639279727385E-0001	
 9.48500000000000E+0002	 1.38054603007022E-0001	
 9.50500000000000E+0002	 1.39553426286658E-0001	
 9.52500000000000E+0002	 1.41208249566295E-0001	
 9.54500000000000E+0002	 1.43049572845931E-0001	
 9.56500000000000E+0002	 1.45101896125568E-0001	
 9.58500000000000E+0002	 1.47249719405204E-0001	
 9.60500000000000E+0002	 1.49374042684841E-0001	
 9.62500000000000E+0002	 1.51312865964477E-0001	
 9.64500000000000E+0002	 1.52998689244114E-0001	
 9.66500000000000E+0002	 1.54386012523751E-0001	
 9.68500000000000E+0002	 1.55530835803387E-0001	
 9.70500000000000E+0002	 1.56503159083024E-0001	
 9.72500000000000E+0002	 1.57433982362660E-0001	
 9.74500000000000E+0002	 1.58415305642297E-0001	
 9.76500000000000E+0002	 1.59562628921933E-0001	
 9.78500000000000E+0002	 1.60932952201570E-0001	
 9.80500000000000E+0002	 1.62563775481206E-0001	
 9.82500000000000E+0002	 1.64396598760843E-0001	
 9.84500000000000E+0002	 1.66358422040479E-0001	
 9.86500000000000E+0002	 1.68334245320116E-0001	
 9.88500000000000E+0002	 1.70275068599752E-0001	
 9.90500000000000E+0002	 1.72095391879389E-0001	
 9.92500000000000E+0002	 1.73741715159025E-0001	
 9.94500000000000E+0002	 1.75194038438662E-0001	
 9.96500000000000E+0002	 1.76551361718298E-0001	
 9.98500000000000E+0002	 1.77983684997935E-0001	
 1.00050000000000E+0003	 1.79701508277571E-0001	
 1.00250000000000E+0003	 1.81831831557208E-0001	
 1.00450000000000E+0003	 1.84433654836844E-0001	
 1.00650000000000E+0003	 1.87515478116481E-0001	
 1.00850000000000E+0003	 1.91008301396117E-0001	
 1.01050000000000E+0003	 1.94754124675754E-0001	
 1.01250000000000E+0003	 1.98656447955390E-0001	
 1.01450000000000E+0003	 2.02677771235027E-0001	
 1.01650000000000E+0003	 2.06826594514663E-0001	
 1.01850000000000E+0003	 2.11095917794300E-0001	
 1.02050000000000E+0003	 2.15434741073936E-0001	
 1.02250000000000E+0003	 2.19752564353573E-0001	
 1.02450000000000E+0003	 2.24013387633209E-0001	
 1.02650000000000E+0003	 2.28180210912846E-0001	
 1.02850000000000E+0003	 2.32191034192482E-0001	
 1.03050000000000E+0003	 2.35929357472119E-0001	
 1.03250000000000E+0003	 2.39322180751755E-0001	
 1.03450000000000E+0003	 2.42407004031392E-0001	
 1.03650000000000E+0003	 2.45173327311029E-0001	
 1.03850000000000E+0003	 2.47509150590665E-0001	
 1.04050000000000E+0003	 2.49347473870302E-0001	
 1.04250000000000E+0003	 2.50735797149938E-0001	
 1.04450000000000E+0003	 2.51834620429575E-0001	
 1.04650000000000E+0003	 2.52890943709211E-0001	
 1.04850000000000E+0003	 2.54144766988848E-0001	
 1.05050000000000E+0003	 2.55687590268484E-0001	
 1.05250000000000E+0003	 2.57405413548121E-0001	
 1.05450000000000E+0003	 2.59109736827757E-0001	
 1.05650000000000E+0003	 2.60696560107394E-0001	
 1.05850000000000E+0003	 2.62066883387030E-0001	
 1.06050000000000E+0003	 2.63132706666667E-0001	
 1.06250000000000E+0003	 2.63922529946303E-0001	
 1.06450000000000E+0003	 2.64611853225940E-0001	
 1.06650000000000E+0003	 2.65364176505576E-0001	
 1.06850000000000E+0003	 2.66222999785213E-0001	
 1.07050000000000E+0003	 2.67140323064849E-0001	
 1.07250000000000E+0003	 2.68060646344486E-0001	
 1.07450000000000E+0003	 2.68915969624122E-0001	
 1.07650000000000E+0003	 2.69655292903759E-0001	
 1.07850000000000E+0003	 2.70190116183395E-0001	
 1.08050000000000E+0003	 2.70458439463032E-0001	
 1.08250000000000E+0003	 2.70430262742668E-0001	
 1.08450000000000E+0003	 2.70103586022305E-0001	
 1.08650000000000E+0003	 2.69430909301941E-0001	
 1.08850000000000E+0003	 2.68372232581578E-0001	
 1.09050000000000E+0003	 2.66861555861214E-0001	
 1.09250000000000E+0003	 2.64843879140851E-0001	
 1.09450000000000E+0003	 2.62381202420487E-0001	
 1.09650000000000E+0003	 2.59766525700124E-0001	
 1.09850000000000E+0003	 2.57233348979760E-0001	
 1.10050000000000E+0003	 2.54872172259397E-0001	
 1.10250000000000E+0003	 2.52582495539033E-0001	
 1.10450000000000E+0003	 2.50298318818670E-0001	
 1.10650000000000E+0003	 2.47996142098306E-0001	
 1.10850000000000E+0003	 2.45759465377943E-0001	
 1.11050000000000E+0003	 2.43654788657580E-0001	
 1.11250000000000E+0003	 2.41684111937216E-0001	
 1.11450000000000E+0003	 2.39671435216853E-0001	
 1.11650000000000E+0003	 2.37471758496489E-0001	
 1.11850000000000E+0003	 2.34963081776126E-0001	
 1.12050000000000E+0003	 2.32152905055762E-0001	
 1.12250000000000E+0003	 2.29047228335399E-0001	
 1.12450000000000E+0003	 2.25697551615035E-0001	
 1.12650000000000E+0003	 2.22084374894672E-0001	
 1.12850000000000E+0003	 2.18229198174308E-0001	
 1.13050000000000E+0003	 2.14127021453945E-0001	
 1.13250000000000E+0003	 2.10013344733581E-0001	
 1.13450000000000E+0003	 2.06145168013218E-0001	
 1.13650000000000E+0003	 2.02731491292854E-0001	
 1.13850000000000E+0003	 1.99860314572491E-0001	
 1.14050000000000E+0003	 1.97583137852127E-0001	
 1.14250000000000E+0003	 1.95842961131764E-0001	
 1.14450000000000E+0003	 1.94573784411400E-0001	
 1.14650000000000E+0003	 1.93572107691037E-0001	
 1.14850000000000E+0003	 1.92627430970673E-0001	
 1.15050000000000E+0003	 1.91538254250310E-0001	
 1.15250000000000E+0003	 1.90227577529946E-0001	
 1.15450000000000E+0003	 1.88612900809583E-0001	
 1.15650000000000E+0003	 1.86733224089219E-0001	
 1.15850000000000E+0003	 1.84667047368856E-0001	
 1.16050000000000E+0003	 1.82554370648492E-0001	
 1.16250000000000E+0003	 1.80444693928129E-0001	
 1.16450000000000E+0003	 1.78424017207765E-0001	
 1.16650000000000E+0003	 1.76535840487402E-0001	
 1.16850000000000E+0003	 1.74839163767038E-0001	
 1.17050000000000E+0003	 1.73197987046675E-0001	
 1.17250000000000E+0003	 1.71383310326311E-0001	
 1.17450000000000E+0003	 1.69286633605948E-0001	
 1.17650000000000E+0003	 1.67082956885584E-0001	
 1.17850000000000E+0003	 1.64973780165221E-0001	
 1.18050000000000E+0003	 1.63242603444857E-0001	
 1.18250000000000E+0003	 1.62027926724494E-0001	
 1.18450000000000E+0003	 1.61404750004131E-0001	
 1.18650000000000E+0003	 1.61378073283767E-0001	
 1.18850000000000E+0003	 1.62005396563404E-0001	
 1.19050000000000E+0003	 1.63211719843040E-0001	
 1.19250000000000E+0003	 1.64996543122677E-0001	
 1.19450000000000E+0003	 1.67326866402313E-0001	
 1.19650000000000E+0003	 1.70158689681950E-0001	
 1.19850000000000E+0003	 1.73433512961586E-0001	
 1.20050000000000E+0003	 1.77125336241223E-0001	
 1.20250000000000E+0003	 1.81148659520859E-0001	
 1.20450000000000E+0003	 1.85476482800496E-0001	
 1.20650000000000E+0003	 1.90086806080132E-0001	
 1.20850000000000E+0003	 1.95100129359769E-0001	
 1.21050000000000E+0003	 2.00787952639405E-0001	
 1.21250000000000E+0003	 2.07711775919042E-0001	
 1.21450000000000E+0003	 2.16388599198678E-0001	
 1.21650000000000E+0003	 2.26880922478315E-0001	
 1.21850000000000E+0003	 2.38407245757951E-0001	
 1.22050000000000E+0003	 2.48935569037588E-0001	
 1.22250000000000E+0003	 2.55547892317224E-0001	
 1.22450000000000E+0003	 2.56901215596861E-0001	
 1.22650000000000E+0003	 2.55051538876497E-0001	
 1.22850000000000E+0003	 2.52574862156134E-0001	
 1.23050000000000E+0003	 2.50169685435770E-0001	
 1.23250000000000E+0003	 2.47754508715407E-0001	
 1.23450000000000E+0003	 2.45465331995043E-0001	
 1.23650000000000E+0003	 2.43488655274680E-0001	
 1.23850000000000E+0003	 2.41819478554316E-0001	
 1.24050000000000E+0003	 2.40359801833953E-0001	
 1.24250000000000E+0003	 2.38956125113589E-0001	
 1.24450000000000E+0003	 2.37517948393226E-0001	
 1.24650000000000E+0003	 2.35946771672862E-0001	
 1.24850000000000E+0003	 2.34134594952499E-0001	
 1.25050000000000E+0003	 2.32036418232135E-0001	
 1.25250000000000E+0003	 2.29656741511772E-0001	
 1.25450000000000E+0003	 2.27022064791409E-0001	
 1.25650000000000E+0003	 2.24200388071045E-0001	
 1.25850000000000E+0003	 2.21247711350682E-0001	
 1.26050000000000E+0003	 2.18332534630318E-0001	
 1.26250000000000E+0003	 2.15506857909955E-0001	
 1.26450000000000E+0003	 2.12705181189591E-0001	
 1.26650000000000E+0003	 2.10050504469228E-0001	
 1.26850000000000E+0003	 2.07713827748864E-0001	
 1.27050000000000E+0003	 2.05775151028501E-0001	
 1.27250000000000E+0003	 2.04290474308137E-0001	
 1.27450000000000E+0003	 2.03085297587774E-0001	
 1.27650000000000E+0003	 2.02096120867410E-0001	
 1.27850000000000E+0003	 2.01321444147047E-0001	
 1.28050000000000E+0003	 2.00814267426683E-0001	
 1.28250000000000E+0003	 2.00468090706320E-0001	
 1.28450000000000E+0003	 2.00062413985956E-0001	
 1.28650000000000E+0003	 1.99525737265593E-0001	
 1.28850000000000E+0003	 1.99231560545229E-0001	
 1.29050000000000E+0003	 1.99198883824866E-0001	
 1.29250000000000E+0003	 1.99145207104502E-0001	
 1.29450000000000E+0003	 1.98923530384139E-0001	
 1.29650000000000E+0003	 1.98734853663775E-0001	
 1.29850000000000E+0003	 1.98771176943412E-0001	
 1.30050000000000E+0003	 1.98896000223048E-0001	
 1.30250000000000E+0003	 1.99004323502685E-0001	
 1.30450000000000E+0003	 1.99099146782321E-0001	
 1.30650000000000E+0003	 1.99157470061958E-0001	
 1.30850000000000E+0003	 1.99231793341594E-0001	
 1.31050000000000E+0003	 1.99002116621231E-0001	
 1.31250000000000E+0003	 1.98502439900867E-0001	
 1.31450000000000E+0003	 1.98146763180504E-0001	
 1.31650000000000E+0003	 1.97618586460140E-0001	
 1.31850000000000E+0003	 1.97001909739777E-0001	
 1.32050000000000E+0003	 1.96506733019413E-0001	
 1.32250000000000E+0003	 1.95925056299050E-0001	
 1.32450000000000E+0003	 1.95320379578686E-0001	
 1.32650000000000E+0003	 1.94835202858323E-0001	
 1.32850000000000E+0003	 1.94579526137960E-0001	
 1.33050000000000E+0003	 1.94671349417596E-0001	
 1.33250000000000E+0003	 1.95068172697233E-0001	
 1.33450000000000E+0003	 1.95258995976869E-0001	
 1.33650000000000E+0003	 1.94998319256506E-0001	
 1.33850000000000E+0003	 1.95268642536142E-0001	
 1.34050000000000E+0003	 1.97646465815779E-0001	
 1.34250000000000E+0003	 2.00370289095415E-0001	
 1.34450000000000E+0003	 2.02204612375052E-0001	
 1.34650000000000E+0003	 2.04213435654688E-0001	
 1.34850000000000E+0003	 2.07011758934325E-0001	
 1.35050000000000E+0003	 2.10916082213961E-0001	
 1.35250000000000E+0003	 2.15857905493598E-0001	
 1.35450000000000E+0003	 2.21558228773234E-0001	
 1.35650000000000E+0003	 2.27341552052871E-0001	
 1.35850000000000E+0003	 2.32148875332507E-0001	
 1.36050000000000E+0003	 2.35890698612144E-0001	
 1.36250000000000E+0003	 2.39912521891780E-0001	
 1.36450000000000E+0003	 2.43839845171417E-0001	
 1.36650000000000E+0003	 2.44790168451053E-0001	
 1.36850000000000E+0003	 2.43142991730690E-0001	
 1.37050000000000E+0003	 2.40447315010326E-0001	
 1.37250000000000E+0003	 2.37626138289963E-0001	
 1.37450000000000E+0003	 2.36016461569599E-0001	
 1.37650000000000E+0003	 2.35441284849236E-0001	
 1.37850000000000E+0003	 2.35665108128872E-0001	
 1.38050000000000E+0003	 2.37279931408509E-0001	
 1.38250000000000E+0003	 2.39587254688145E-0001	
 1.38450000000000E+0003	 2.41606077967782E-0001	
 1.38650000000000E+0003	 2.43372901247418E-0001	
 1.38850000000000E+0003	 2.46609724527055E-0001	
 1.39050000000000E+0003	 2.49890547806691E-0001	
 1.39250000000000E+0003	 2.52290371086328E-0001	
 1.39450000000000E+0003	 2.54599194365964E-0001	
 1.39650000000000E+0003	 2.57036517645601E-0001	
 1.39850000000000E+0003	 2.59098340925238E-0001	
 1.40050000000000E+0003	 2.60315164204874E-0001	
 1.40250000000000E+0003	 2.60065487484511E-0001	
 1.40450000000000E+0003	 2.59252310764147E-0001	
 1.40650000000000E+0003	 2.58215634043784E-0001	
 1.40850000000000E+0003	 2.56631457323420E-0001	
 1.41050000000000E+0003	 2.54902280603057E-0001	
 1.41250000000000E+0003	 2.53477603882693E-0001	
 1.41450000000000E+0003	 2.51552927162330E-0001	
 1.41650000000000E+0003	 2.48877750441966E-0001	
 1.41850000000000E+0003	 2.46179073721603E-0001	
 1.42050000000000E+0003	 2.43353897001239E-0001	
 1.42250000000000E+0003	 2.39987720280876E-0001	
 1.42450000000000E+0003	 2.35777043560512E-0001	
 1.42650000000000E+0003	 2.32004866840149E-0001	
 1.42850000000000E+0003	 2.29138690119785E-0001	
 1.43050000000000E+0003	 2.26910513399422E-0001	
 1.43250000000000E+0003	 2.25528336679058E-0001	
 1.43450000000000E+0003	 2.25395159958695E-0001	
 1.43650000000000E+0003	 2.26807483238331E-0001	
 1.43850000000000E+0003	 2.28914306517968E-0001	
 1.44050000000000E+0003	 2.30147129797604E-0001	
 1.44250000000000E+0003	 2.30982453077241E-0001	
 1.44450000000000E+0003	 2.31725776356877E-0001	
 1.44650000000000E+0003	 2.32434099636514E-0001	
 1.44850000000000E+0003	 2.32910922916150E-0001	
 1.45050000000000E+0003	 2.32749746195787E-0001	
 1.45250000000000E+0003	 2.32428569475423E-0001	
 1.45450000000000E+0003	 2.31176392755060E-0001	
 1.45650000000000E+0003	 2.29964716034696E-0001	
 1.45850000000000E+0003	 2.28569039314333E-0001	
 1.46050000000000E+0003	 2.25935862593969E-0001	
 1.46250000000000E+0003	 2.23647185873606E-0001	
 1.46450000000000E+0003	 2.21816009153242E-0001	
 1.46650000000000E+0003	 2.19068332432879E-0001	
 1.46850000000000E+0003	 2.16743155712515E-0001	
 1.47050000000000E+0003	 2.14636978992152E-0001	
 1.47250000000000E+0003	 2.11129302271789E-0001	
 1.47450000000000E+0003	 2.07379125551425E-0001	
 1.47650000000000E+0003	 2.04903448831062E-0001	
 1.47850000000000E+0003	 2.03262772110698E-0001	
 1.48050000000000E+0003	 2.02795595390335E-0001	
 1.48250000000000E+0003	 2.03888418669971E-0001	
 1.48450000000000E+0003	 2.06091241949608E-0001	
 1.48650000000000E+0003	 2.09367065229244E-0001	
 1.48850000000000E+0003	 2.12987388508881E-0001	
 1.49050000000000E+0003	 2.18288211788517E-0001	
 1.49250000000000E+0003	 2.23152535068154E-0001	
 1.49450000000000E+0003	 2.27321858347790E-0001	
 1.49650000000000E+0003	 2.34335681627427E-0001	
 1.49850000000000E+0003	 2.41899504907063E-0001	
 1.50050000000000E+0003	 2.46940828186700E-0001	
 1.50250000000000E+0003	 2.52454651466336E-0001	
 1.50450000000000E+0003	 2.58728974745973E-0001	
 1.50650000000000E+0003	 2.65838798025609E-0001	
 1.50850000000000E+0003	 2.74174621305246E-0001	
 1.51050000000000E+0003	 2.81843444584882E-0001	
 1.51250000000000E+0003	 2.89879767864519E-0001	
 1.51450000000000E+0003	 2.98030091144155E-0001	
 1.51650000000000E+0003	 3.05830914423792E-0001	
 1.51850000000000E+0003	 3.10577737703428E-0001	
 1.52050000000000E+0003	 3.13713560983065E-0001	
 1.52250000000000E+0003	 3.19705884262701E-0001	
 1.52450000000000E+0003	 3.23958207542338E-0001	
 1.52650000000000E+0003	 3.28505530821974E-0001	
 1.52850000000000E+0003	 3.34347854101611E-0001	
 1.53050000000000E+0003	 3.39770177381247E-0001	
 1.53250000000000E+0003	 3.46120500660884E-0001	
 1.53450000000000E+0003	 3.51772323940520E-0001	
 1.53650000000000E+0003	 3.55160647220157E-0001	
 1.53850000000000E+0003	 3.60683970499793E-0001	
 1.54050000000000E+0003	 3.67099293779430E-0001	
 1.54250000000000E+0003	 3.67976617059067E-0001	
 1.54450000000000E+0003	 3.67463940338703E-0001	
 1.54650000000000E+0003	 3.67445763618340E-0001	
 1.54850000000000E+0003	 3.65781086897976E-0001	
 1.55050000000000E+0003	 3.63169410177613E-0001	
 1.55250000000000E+0003	 3.59894233457249E-0001	
 1.55450000000000E+0003	 3.56507556736886E-0001	
 1.55650000000000E+0003	 3.55075880016522E-0001	
 1.55850000000000E+0003	 3.50572703296159E-0001	
 1.56050000000000E+0003	 3.38967026575795E-0001	
 1.56250000000000E+0003	 3.33646849855432E-0001	
 1.56450000000000E+0003	 3.30066673135068E-0001	
 1.56650000000000E+0003	 3.26008496414705E-0001	
 1.56850000000000E+0003	 3.23210319694341E-0001	
 1.57050000000000E+0003	 3.18272142973978E-0001	
 1.57250000000000E+0003	 3.13025966253614E-0001	
 1.57450000000000E+0003	 3.08766289533251E-0001	
 1.57650000000000E+0003	 3.04903612812887E-0001	
 1.57850000000000E+0003	 3.01926436092524E-0001	
 1.58050000000000E+0003	 2.99209759372160E-0001	
 1.58250000000000E+0003	 2.96415082651797E-0001	
 1.58450000000000E+0003	 2.94294905931433E-0001	
 1.58650000000000E+0003	 2.92683229211070E-0001	
 1.58850000000000E+0003	 2.91693552490706E-0001	
 1.59050000000000E+0003	 2.91286875770343E-0001	
 1.59250000000000E+0003	 2.91614199049979E-0001	
 1.59450000000000E+0003	 2.92210022329616E-0001	
 1.59650000000000E+0003	 2.93154845609252E-0001	
 1.59850000000000E+0003	 2.94353668888889E-0001	
 1.60050000000000E+0003	 2.96119992168525E-0001	
 1.60250000000000E+0003	 2.98433315448162E-0001	
 1.60450000000000E+0003	 3.01500638727798E-0001	
 1.60650000000000E+0003	 3.05197962007435E-0001	
 1.60850000000000E+0003	 3.10040285287071E-0001	
 1.61050000000000E+0003	 3.15671108566708E-0001	
 1.61250000000000E+0003	 3.22262431846344E-0001	
 1.61450000000000E+0003	 3.28976255125981E-0001	
 1.61650000000000E+0003	 3.37600078405618E-0001	
 1.61850000000000E+0003	 3.47445401685254E-0001	
 1.62050000000000E+0003	 3.56887724964891E-0001	
 1.62250000000000E+0003	 3.68099048244527E-0001	
 1.62450000000000E+0003	 3.79929371524164E-0001	
 1.62650000000000E+0003	 3.90758194803800E-0001	
 1.62850000000000E+0003	 4.01919018083437E-0001	
 1.63050000000000E+0003	 4.12696841363073E-0001	
 1.63250000000000E+0003	 4.23691664642710E-0001	
 1.63450000000000E+0003	 4.35229487922346E-0001	
 1.63650000000000E+0003	 4.44468811201983E-0001	
 1.63850000000000E+0003	 4.49364134481619E-0001	
 1.64050000000000E+0003	 4.52702957761256E-0001	
 1.64250000000000E+0003	 4.56471781040892E-0001	
 1.64450000000000E+0003	 4.60713104320529E-0001	
 1.64650000000000E+0003	 4.66291927600165E-0001	
 1.64850000000000E+0003	 4.69787250879802E-0001	
 1.65050000000000E+0003	 4.69965574159438E-0001	
 1.65250000000000E+0003	 4.73380397439075E-0001	
 1.65450000000000E+0003	 4.75538220718711E-0001	
 1.65650000000000E+0003	 4.75455543998348E-0001	
 1.65850000000000E+0003	 4.74084867277984E-0001	
 1.66050000000000E+0003	 4.72307190557621E-0001	
 1.66250000000000E+0003	 4.68719013837257E-0001	
 1.66450000000000E+0003	 4.62159337116894E-0001	
 1.66650000000000E+0003	 4.57013160396530E-0001	
 1.66850000000000E+0003	 4.52965483676167E-0001	
 1.67050000000000E+0003	 4.46498306955803E-0001	
 1.67250000000000E+0003	 4.39863630235440E-0001	
 1.67450000000000E+0003	 4.34201953515076E-0001	
 1.67650000000000E+0003	 4.26364276794713E-0001	
 1.67850000000000E+0003	 4.19227600074349E-0001	
 1.68050000000000E+0003	 4.14385923353986E-0001	
 1.68250000000000E+0003	 4.10374246633622E-0001	
 1.68450000000000E+0003	 4.02448569913259E-0001	
 1.68650000000000E+0003	 3.94733393192895E-0001	
 1.68850000000000E+0003	 3.89920216472532E-0001	
 1.69050000000000E+0003	 3.84227039752169E-0001	
 1.69250000000000E+0003	 3.78035863031805E-0001	
 1.69450000000000E+0003	 3.71666686311442E-0001	
 1.69650000000000E+0003	 3.67394009591078E-0001	
 1.69850000000000E+0003	 3.67217832870715E-0001	
 1.70050000000000E+0003	 3.66066156150351E-0001	
 1.70250000000000E+0003	 3.64749979429988E-0001	
 1.70450000000000E+0003	 3.67333302709624E-0001	
 1.70650000000000E+0003	 3.70990125989261E-0001	
 1.70850000000000E+0003	 3.73851949268897E-0001	
 1.71050000000000E+0003	 3.77049272548534E-0001	
 1.71250000000000E+0003	 3.79248095828170E-0001	
 1.71450000000000E+0003	 3.76925919107807E-0001	
 1.71650000000000E+0003	 3.67682742387443E-0001	
 1.71850000000000E+0003	 3.49828565667080E-0001	
 1.72050000000000E+0003	 3.28739888946716E-0001	
 1.72250000000000E+0003	 3.08864712226353E-0001	
 1.72450000000000E+0003	 2.90736035505989E-0001	
 1.72650000000000E+0003	 2.76564358785626E-0001	
 1.72850000000000E+0003	 2.65617182065262E-0001	
 1.73050000000000E+0003	 2.56583505344899E-0001	
 1.73250000000000E+0003	 2.49542328624535E-0001	
 1.73450000000000E+0003	 2.44513151904172E-0001	
 1.73650000000000E+0003	 2.41141475183808E-0001	
 1.73850000000000E+0003	 2.38848798463445E-0001	
 1.74050000000000E+0003	 2.34729621743081E-0001	
 1.74250000000000E+0003	 2.29724945022718E-0001	
 1.74450000000000E+0003	 2.26445768302354E-0001	
 1.74650000000000E+0003	 2.24132591581991E-0001	
 1.74850000000000E+0003	 2.20373914861627E-0001	
 1.75050000000000E+0003	 2.15044238141264E-0001	
 1.75250000000000E+0003	 2.10641061420900E-0001	
 1.75450000000000E+0003	 2.06827884700537E-0001	
 1.75650000000000E+0003	 2.01796207980173E-0001	
 1.75850000000000E+0003	 1.96975531259810E-0001	
 1.76050000000000E+0003	 1.92743354539447E-0001	
 1.76250000000000E+0003	 1.88199177819083E-0001	
 1.76450000000000E+0003	 1.83638001098720E-0001	
 1.76650000000000E+0003	 1.79337824378356E-0001	
 1.76850000000000E+0003	 1.76937647657993E-0001	
 1.77050000000000E+0003	 1.75838970937629E-0001	
 1.77250000000000E+0003	 1.72367794217266E-0001	
 1.77450000000000E+0003	 1.68277617496902E-0001	
 1.77650000000000E+0003	 1.65419440776539E-0001	
 1.77850000000000E+0003	 1.63151764056175E-0001	
 1.78050000000000E+0003	 1.61195587335812E-0001	
 1.78250000000000E+0003	 1.58973910615448E-0001	
 1.78450000000000E+0003	 1.56817233895085E-0001	
 1.78650000000000E+0003	 1.55523557174721E-0001	
 1.78850000000000E+0003	 1.54279380454358E-0001	
 1.79050000000000E+0003	 1.53301703733994E-0001	
 1.79250000000000E+0003	 1.52202527013631E-0001	
 1.79450000000000E+0003	 1.50033850293267E-0001	
 1.79650000000000E+0003	 1.48636673572904E-0001	
 1.79850000000000E+0003	 1.47780996852540E-0001	
 1.80050000000000E+0003	 1.45650820132177E-0001	
 1.80250000000000E+0003	 1.44029143411813E-0001	
 1.80450000000000E+0003	 1.43198466691450E-0001	
 1.80650000000000E+0003	 1.42047289971086E-0001	
 1.80850000000000E+0003	 1.41146113250723E-0001	
 1.81050000000000E+0003	 1.40141936530359E-0001	
 1.81250000000000E+0003	 1.38930259809996E-0001	
 1.81450000000000E+0003	 1.37775083089632E-0001	
 1.81650000000000E+0003	 1.36572906369269E-0001	
 1.81850000000000E+0003	 1.35807229648905E-0001	
 1.82050000000000E+0003	 1.35055552928542E-0001	
 1.82250000000000E+0003	 1.34235376208178E-0001	
 1.82450000000000E+0003	 1.33623699487815E-0001	
 1.82650000000000E+0003	 1.33532522767451E-0001	
 1.82850000000000E+0003	 1.33459346047088E-0001	
 1.83050000000000E+0003	 1.32369169326724E-0001	
 1.83250000000000E+0003	 1.30554492606361E-0001	
 1.83450000000000E+0003	 1.29462315885998E-0001	
 1.83650000000000E+0003	 1.28797139165634E-0001	
 1.83850000000000E+0003	 1.28189962445271E-0001	
 1.84050000000000E+0003	 1.27523785724907E-0001	
 1.84250000000000E+0003	 1.27093609004544E-0001	
 1.84450000000000E+0003	 1.26604432284180E-0001	
 1.84650000000000E+0003	 1.25542255563817E-0001	
 1.84850000000000E+0003	 1.24898578843453E-0001	
 1.85050000000000E+0003	 1.24663402123090E-0001	
 1.85250000000000E+0003	 1.24191725402726E-0001	
 1.85450000000000E+0003	 1.23642548682363E-0001	
 1.85650000000000E+0003	 1.22998871961999E-0001	
 1.85850000000000E+0003	 1.22355195241636E-0001	
 1.86050000000000E+0003	 1.21858018521272E-0001	
 1.86250000000000E+0003	 1.21572841800909E-0001	
 1.86450000000000E+0003	 1.21431165080545E-0001	
 1.86650000000000E+0003	 1.21366988360182E-0001	
 1.86850000000000E+0003	 1.21089311639818E-0001	
 1.87050000000000E+0003	 1.20446634919455E-0001	
 1.87250000000000E+0003	 1.19803458199091E-0001	
 1.87450000000000E+0003	 1.19359781478728E-0001	
 1.87650000000000E+0003	 1.18941604758364E-0001	
 1.87850000000000E+0003	 1.18549928038001E-0001	
 1.88050000000000E+0003	 1.18283251317637E-0001	
 1.88250000000000E+0003	 1.18007574597274E-0001	
 1.88450000000000E+0003	 1.17708897876910E-0001	
 1.88650000000000E+0003	 1.17500721156547E-0001	
 1.88850000000000E+0003	 1.17230044436183E-0001	
 1.89050000000000E+0003	 1.16997867715820E-0001	
 1.89250000000000E+0003	 1.16543190995456E-0001	
 1.89450000000000E+0003	 1.16117014275093E-0001	
 1.89650000000000E+0003	 1.15930337554729E-0001	
 1.89850000000000E+0003	 1.15680160834366E-0001	
 1.90050000000000E+0003	 1.15363484114002E-0001	
 1.90250000000000E+0003	 1.15132807393639E-0001	
 1.90450000000000E+0003	 1.14880130673276E-0001	
 1.90650000000000E+0003	 1.14498953952912E-0001	
 1.90850000000000E+0003	 1.14178777232549E-0001	
 1.91050000000000E+0003	 1.14120100512185E-0001	
 1.91250000000000E+0003	 1.13982923791822E-0001	
 1.91450000000000E+0003	 1.13828247071458E-0001	
 1.91650000000000E+0003	 1.13656070351095E-0001	
 1.91850000000000E+0003	 1.13461393630731E-0001	
 1.92050000000000E+0003	 1.12876716910368E-0001	
 1.92250000000000E+0003	 1.12461540190004E-0001	
 1.92450000000000E+0003	 1.12688363469641E-0001	
 1.92650000000000E+0003	 1.12653186749277E-0001	
 1.92850000000000E+0003	 1.12450510028914E-0001	
 1.93050000000000E+0003	 1.12259833308550E-0001	
 1.93250000000000E+0003	 1.12070656588187E-0001	
 1.93450000000000E+0003	 1.11977979867823E-0001	
 1.93650000000000E+0003	 1.11871303147460E-0001	
 1.93850000000000E+0003	 1.11713126427096E-0001	
 1.94050000000000E+0003	 1.11373949706733E-0001	
 1.94250000000000E+0003	 1.11295772986369E-0001	
 1.94450000000000E+0003	 1.11454096266006E-0001	
 1.94650000000000E+0003	 1.11366919545642E-0001	
 1.94850000000000E+0003	 1.11232242825279E-0001	
 1.95050000000000E+0003	 1.11114566104915E-0001	
 1.95250000000000E+0003	 1.10974389384552E-0001	
 1.95450000000000E+0003	 1.10845712664188E-0001	
 1.95650000000000E+0003	 1.10806035943825E-0001	
 1.95850000000000E+0003	 1.10743359223461E-0001	
 1.96050000000000E+0003	 1.10651682503098E-0001	
 1.96250000000000E+0003	 1.10570005782734E-0001	
 1.96450000000000E+0003	 1.10289829062371E-0001	
 1.96650000000000E+0003	 1.10057652342007E-0001	
 1.96850000000000E+0003	 1.10245975621644E-0001	
 1.97050000000000E+0003	 1.10333798901280E-0001	
 1.97250000000000E+0003	 1.10258122180917E-0001	
 1.97450000000000E+0003	 1.10197445460553E-0001	
 1.97650000000000E+0003	 1.10145268740190E-0001	
 1.97850000000000E+0003	 1.10089092019827E-0001	
 1.98050000000000E+0003	 1.10034415299463E-0001	
 1.98250000000000E+0003	 1.09988238579100E-0001	
 1.98450000000000E+0003	 1.09908561858736E-0001	
 1.98650000000000E+0003	 1.09712385138373E-0001	
 1.98850000000000E+0003	 1.09577208418009E-0001	
 1.99050000000000E+0003	 1.09406531697646E-0001	
 1.99250000000000E+0003	 1.09499354977282E-0001	
 1.99450000000000E+0003	 1.09774678256919E-0001	
 1.99650000000000E+0003	 1.09780001536555E-0001	
 1.99850000000000E+0003	 1.09739824816192E-0001	
 2.00050000000000E+0003	 1.09717648095828E-0001	
 2.00250000000000E+0003	 1.09695471375465E-0001	
 2.00450000000000E+0003	 1.09654294655101E-0001	
 2.00650000000000E+0003	 1.09600117934738E-0001	
 2.00850000000000E+0003	 1.09595441214374E-0001	
 2.01050000000000E+0003	 1.09618264494011E-0001	
 2.01250000000000E+0003	 1.09590587773647E-0001	
 2.01450000000000E+0003	 1.09376411053284E-0001	
 2.01650000000000E+0003	 1.09178734332920E-0001	
 2.01850000000000E+0003	 1.09365057612557E-0001	
 2.02050000000000E+0003	 1.09543880892193E-0001	
 2.02250000000000E+0003	 1.09567704171830E-0001	
 2.02450000000000E+0003	 1.09607027451466E-0001	
 2.02650000000000E+0003	 1.09647850731103E-0001	
 2.02850000000000E+0003	 1.09669674010739E-0001	
 2.03050000000000E+0003	 1.09681997290376E-0001	
 2.03250000000000E+0003	 1.09686320570012E-0001	
 2.03450000000000E+0003	 1.09692143849649E-0001	
 2.03650000000000E+0003	 1.09693467129285E-0001	
 2.03850000000000E+0003	 1.09606290408922E-0001	
 2.04050000000000E+0003	 1.09509613688558E-0001	
 2.04250000000000E+0003	 1.09623936968195E-0001	
 2.04450000000000E+0003	 1.09735260247831E-0001	
 2.04650000000000E+0003	 1.09759583527468E-0001	
 2.04850000000000E+0003	 1.09783906807105E-0001	
 2.05050000000000E+0003	 1.09797230086741E-0001	
 2.05250000000000E+0003	 1.09804553366378E-0001	
 2.05450000000000E+0003	 1.09815376646014E-0001	
 2.05650000000000E+0003	 1.09826199925651E-0001	
 2.05850000000000E+0003	 1.09823023205287E-0001	
 2.06050000000000E+0003	 1.09810346484924E-0001	
 2.06250000000000E+0003	 1.09673169764560E-0001	
 2.06450000000000E+0003	 1.09567493044197E-0001	
 2.06650000000000E+0003	 1.09736316323833E-0001	
 2.06850000000000E+0003	 1.09865639603470E-0001	
 2.07050000000000E+0003	 1.09876462883106E-0001	
 2.07250000000000E+0003	 1.09871786162743E-0001	
 2.07450000000000E+0003	 1.09869109442379E-0001	
 2.07650000000000E+0003	 1.09868432722016E-0001	
 2.07850000000000E+0003	 1.09869256001652E-0001	
 2.08050000000000E+0003	 1.09878579281289E-0001	
 2.08250000000000E+0003	 1.09880402560925E-0001	
 2.08450000000000E+0003	 1.09864725840562E-0001	
 2.08650000000000E+0003	 1.09806549120198E-0001	
 2.08850000000000E+0003	 1.09733872399835E-0001	
 2.09050000000000E+0003	 1.09771695679471E-0001	
 2.09250000000000E+0003	 1.09856518959108E-0001	
 2.09450000000000E+0003	 1.09871842238744E-0001	
 2.09650000000000E+0003	 1.09871665518381E-0001	
 2.09850000000000E+0003	 1.09869488798017E-0001	
 2.10050000000000E+0003	 1.09862312077654E-0001	
 2.10250000000000E+0003	 1.09855135357290E-0001	
 2.10450000000000E+0003	 1.09842958636927E-0001	
 2.10650000000000E+0003	 1.09829281916563E-0001	
 2.10850000000000E+0003	 1.09809605196200E-0001	
 2.11050000000000E+0003	 1.09781428475836E-0001	
 2.11250000000000E+0003	 1.09716251755473E-0001	
 2.11450000000000E+0003	 1.09668075035109E-0001	
 2.11650000000000E+0003	 1.09679398314746E-0001	
 2.11850000000000E+0003	 1.09675721594382E-0001	
 2.12050000000000E+0003	 1.09641544874019E-0001	
 2.12250000000000E+0003	 1.09604868153656E-0001	
 2.12450000000000E+0003	 1.09569191433292E-0001	
 2.12650000000000E+0003	 1.09536014712929E-0001	
 2.12850000000000E+0003	 1.09498337992565E-0001	
 2.13050000000000E+0003	 1.09460661272202E-0001	
 2.13250000000000E+0003	 1.09410484551838E-0001	
 2.13450000000000E+0003	 1.09338807831475E-0001	
 2.13650000000000E+0003	 1.09298631111111E-0001	
 2.13850000000000E+0003	 1.09291454390748E-0001	
 2.14050000000000E+0003	 1.09277777670384E-0001	
 2.14250000000000E+0003	 1.09243100950021E-0001	
 2.14450000000000E+0003	 1.09188924229657E-0001	
 2.14650000000000E+0003	 1.09130747509294E-0001	
 2.14850000000000E+0003	 1.09065570788930E-0001	
 2.15050000000000E+0003	 1.08979894068567E-0001	
 2.15250000000000E+0003	 1.08884717348203E-0001	
 2.15450000000000E+0003	 1.08783540627840E-0001	
 2.15650000000000E+0003	 1.08682863907476E-0001	
 2.15850000000000E+0003	 1.08568187187113E-0001	
 2.16050000000000E+0003	 1.08445010466749E-0001	
 2.16250000000000E+0003	 1.08343333746386E-0001	
 2.16450000000000E+0003	 1.08259657026022E-0001	
 2.16650000000000E+0003	 1.08169480305659E-0001	
 2.16850000000000E+0003	 1.08088303585295E-0001	
 2.17050000000000E+0003	 1.07997626864932E-0001	
 2.17250000000000E+0003	 1.07897450144568E-0001	
 2.17450000000000E+0003	 1.07802773424205E-0001	
 2.17650000000000E+0003	 1.07717596703841E-0001	
 2.17850000000000E+0003	 1.07637419983478E-0001	
 2.18050000000000E+0003	 1.07563243263114E-0001	
 2.18250000000000E+0003	 1.07489566542751E-0001	
 2.18450000000000E+0003	 1.07412889822387E-0001	
 2.18650000000000E+0003	 1.07340713102024E-0001	
 2.18850000000000E+0003	 1.07279036381660E-0001	
 2.19050000000000E+0003	 1.07212859661297E-0001	
 2.19250000000000E+0003	 1.07142682940933E-0001	
 2.19450000000000E+0003	 1.07079506220570E-0001	
 2.19650000000000E+0003	 1.07014829500207E-0001	
 2.19850000000000E+0003	 1.06949152779843E-0001	
 2.20050000000000E+0003	 1.06885476059480E-0001	
 2.20250000000000E+0003	 1.06824299339116E-0001	
 2.20450000000000E+0003	 1.06761122618753E-0001	
 2.20650000000000E+0003	 1.06708445898389E-0001	
 2.20850000000000E+0003	 1.06652769178026E-0001	
 2.21050000000000E+0003	 1.06599592457662E-0001	
 2.21250000000000E+0003	 1.06550915737299E-0001	
 2.21450000000000E+0003	 1.06506239016935E-0001	
 2.21650000000000E+0003	 1.06456562296572E-0001	
 2.21850000000000E+0003	 1.06410385576208E-0001	
 2.22050000000000E+0003	 1.06368208855845E-0001	
 2.22250000000000E+0003	 1.06331032135481E-0001	
 2.22450000000000E+0003	 1.06291855415118E-0001	
 2.22650000000000E+0003	 1.06253178694754E-0001	
 2.22850000000000E+0003	 1.06218501974391E-0001	
 2.23050000000000E+0003	 1.06184825254027E-0001	
 2.23250000000000E+0003	 1.06154148533664E-0001	
 2.23450000000000E+0003	 1.06123471813300E-0001	
 2.23650000000000E+0003	 1.06092295092937E-0001	
 2.23850000000000E+0003	 1.06062118372573E-0001	
 2.24050000000000E+0003	 1.06036941652210E-0001	
 2.24250000000000E+0003	 1.06013264931846E-0001	
 2.24450000000000E+0003	 1.05994588211483E-0001	
 2.24650000000000E+0003	 1.05980411491119E-0001	
 2.24850000000000E+0003	 1.05972234770756E-0001	
 2.25050000000000E+0003	 1.05962558050392E-0001	
 2.25250000000000E+0003	 1.05957881330029E-0001	
 2.25450000000000E+0003	 1.05952704609665E-0001	
 2.25650000000000E+0003	 1.05952027889302E-0001	
 2.25850000000000E+0003	 1.05946851168938E-0001	
 2.26050000000000E+0003	 1.05946674448575E-0001	
 2.26250000000000E+0003	 1.05943997728211E-0001	
 2.26450000000000E+0003	 1.05945821007848E-0001	
 2.26650000000000E+0003	 1.05947644287485E-0001	
 2.26850000000000E+0003	 1.05949467567121E-0001	
 2.27050000000000E+0003	 1.05941790846758E-0001	
 2.27250000000000E+0003	 1.05942614126394E-0001	
 2.27450000000000E+0003	 1.05945937406031E-0001	
 2.27650000000000E+0003	 1.05957760685667E-0001	
 2.27850000000000E+0003	 1.05972083965304E-0001	
 2.28050000000000E+0003	 1.05985407244940E-0001	
 2.28250000000000E+0003	 1.05997730524577E-0001	
 2.28450000000000E+0003	 1.06019053804213E-0001	
 2.28650000000000E+0003	 1.06050377083850E-0001	
 2.28850000000000E+0003	 1.06088700363486E-0001	
 2.29050000000000E+0003	 1.06131523643123E-0001	
 2.29250000000000E+0003	 1.06181846922759E-0001	
 2.29450000000000E+0003	 1.06237670202396E-0001	
 2.29650000000000E+0003	 1.06293493482032E-0001	
 2.29850000000000E+0003	 1.06348816761669E-0001	
 2.30050000000000E+0003	 1.06397140041305E-0001	
 2.30250000000000E+0003	 1.06442463320942E-0001	
 2.30450000000000E+0003	 1.06497786600578E-0001	
 2.30650000000000E+0003	 1.06571109880215E-0001	
 2.30850000000000E+0003	 1.06649433159851E-0001	
 2.31050000000000E+0003	 1.06722756439488E-0001	
 2.31250000000000E+0003	 1.06770579719124E-0001	
 2.31450000000000E+0003	 1.06794402998761E-0001	
 2.31650000000000E+0003	 1.06830726278397E-0001	
 2.31850000000000E+0003	 1.06904049558034E-0001	
 2.32050000000000E+0003	 1.07007372837670E-0001	
 2.32250000000000E+0003	 1.07095196117307E-0001	
 2.32450000000000E+0003	 1.07117519396943E-0001	
 2.32650000000000E+0003	 1.07123342676580E-0001	
 2.32850000000000E+0003	 1.07178665956216E-0001	
 2.33050000000000E+0003	 1.07253489235853E-0001	
 2.33250000000000E+0003	 1.07291312515489E-0001	
 2.33450000000000E+0003	 1.07313635795126E-0001	
 2.33650000000000E+0003	 1.07385959074762E-0001	
 2.33850000000000E+0003	 1.07469282354399E-0001	
 2.34050000000000E+0003	 1.07514605634036E-0001	
 2.34250000000000E+0003	 1.07569428913672E-0001	
 2.34450000000000E+0003	 1.07637752193309E-0001	
 2.34650000000000E+0003	 1.07646575472945E-0001	
 2.34850000000000E+0003	 1.07697398752582E-0001	
 2.35050000000000E+0003	 1.07772222032218E-0001	
 2.35250000000000E+0003	 1.07780545311855E-0001	
 2.35450000000000E+0003	 1.07803868591491E-0001	
 2.35650000000000E+0003	 1.07890191871128E-0001	
 2.35850000000000E+0003	 1.07989515150764E-0001	
 2.36050000000000E+0003	 1.08070838430401E-0001	
 2.36250000000000E+0003	 1.08144661710037E-0001	
 2.36450000000000E+0003	 1.08222984989674E-0001	
 2.36650000000000E+0003	 1.08271808269310E-0001	
 2.36850000000000E+0003	 1.08327131548947E-0001	
 2.37050000000000E+0003	 1.08383454828583E-0001	
 2.37250000000000E+0003	 1.08442278108220E-0001	
 2.37450000000000E+0003	 1.08505101387856E-0001	
 2.37650000000000E+0003	 1.08608924667493E-0001	
 2.37850000000000E+0003	 1.08759747947129E-0001	
 2.38050000000000E+0003	 1.08929571226766E-0001	
 2.38250000000000E+0003	 1.09060394506402E-0001	
 2.38450000000000E+0003	 1.09142717786039E-0001	
 2.38650000000000E+0003	 1.09208541065675E-0001	
 2.38850000000000E+0003	 1.09297364345312E-0001	
 2.39050000000000E+0003	 1.09410687624948E-0001	
 2.39250000000000E+0003	 1.09544010904585E-0001	
 2.39450000000000E+0003	 1.09687834184221E-0001	
 2.39650000000000E+0003	 1.09837157463858E-0001	
 2.39850000000000E+0003	 1.09993980743494E-0001	
 2.40050000000000E+0003	 1.10156304023131E-0001	
 2.40250000000000E+0003	 1.10320627302767E-0001	
 2.40450000000000E+0003	 1.10491950582404E-0001	
 2.40650000000000E+0003	 1.10668273862040E-0001	
 2.40850000000000E+0003	 1.10849597141677E-0001	
 2.41050000000000E+0003	 1.11035420421314E-0001	
 2.41250000000000E+0003	 1.11225243700950E-0001	
 2.41450000000000E+0003	 1.11419066980587E-0001	
 2.41650000000000E+0003	 1.11618890260223E-0001	
 2.41850000000000E+0003	 1.11824213539860E-0001	
 2.42050000000000E+0003	 1.12035036819496E-0001	
 2.42250000000000E+0003	 1.12250360099133E-0001	
 2.42450000000000E+0003	 1.12470183378769E-0001	
 2.42650000000000E+0003	 1.12689506658406E-0001	
 2.42850000000000E+0003	 1.12911329938042E-0001	
 2.43050000000000E+0003	 1.13133653217679E-0001	
 2.43250000000000E+0003	 1.13363976497315E-0001	
 2.43450000000000E+0003	 1.13597299776952E-0001	
 2.43650000000000E+0003	 1.13834623056588E-0001	
 2.43850000000000E+0003	 1.14070946336225E-0001	
 2.44050000000000E+0003	 1.14304769615861E-0001	
 2.44250000000000E+0003	 1.14537092895498E-0001	
 2.44450000000000E+0003	 1.14768416175134E-0001	
 2.44650000000000E+0003	 1.14988739454771E-0001	
 2.44850000000000E+0003	 1.15208062734407E-0001	
 2.45050000000000E+0003	 1.15424886014044E-0001	
 2.45250000000000E+0003	 1.15639209293680E-0001	
 2.45450000000000E+0003	 1.15854532573317E-0001	
 2.45650000000000E+0003	 1.16081355852953E-0001	
 2.45850000000000E+0003	 1.16310679132590E-0001	
 2.46050000000000E+0003	 1.16546502412226E-0001	
 2.46250000000000E+0003	 1.16788825691863E-0001	
 2.46450000000000E+0003	 1.17040148971499E-0001	
 2.46650000000000E+0003	 1.17291972251136E-0001	
 2.46850000000000E+0003	 1.17550295530772E-0001	
 2.47050000000000E+0003	 1.17812118810409E-0001	
 2.47250000000000E+0003	 1.18076442090045E-0001	
 2.47450000000000E+0003	 1.18345765369682E-0001	
 2.47650000000000E+0003	 1.18622088649318E-0001	
 2.47850000000000E+0003	 1.18902411928955E-0001	
 2.48050000000000E+0003	 1.19183235208591E-0001	
 2.48250000000000E+0003	 1.19463058488228E-0001	
 2.48450000000000E+0003	 1.19744381767865E-0001	
 2.48650000000000E+0003	 1.20028705047501E-0001	
 2.48850000000000E+0003	 1.20310528327138E-0001	
 2.49050000000000E+0003	 1.20593851606774E-0001	
 2.49250000000000E+0003	 1.20882674886411E-0001	
 2.49450000000000E+0003	 1.21172998166047E-0001	
 2.49650000000000E+0003	 1.21460821445684E-0001	
 2.49850000000000E+0003	 1.21749144725320E-0001	
 2.50050000000000E+0003	 1.22032468004957E-0001	
 2.50250000000000E+0003	 1.22314791284593E-0001	
 2.50450000000000E+0003	 1.22598614564230E-0001	
 2.50650000000000E+0003	 1.22879937843866E-0001	
 2.50850000000000E+0003	 1.23151261123503E-0001	
 2.51050000000000E+0003	 1.23419584403139E-0001	
 2.51250000000000E+0003	 1.23687907682776E-0001	
 2.51450000000000E+0003	 1.23951230962412E-0001	
 2.51650000000000E+0003	 1.24206554242049E-0001	
 2.51850000000000E+0003	 1.24457877521685E-0001	
 2.52050000000000E+0003	 1.24704700801322E-0001	
 2.52250000000000E+0003	 1.24950024080958E-0001	
 2.52450000000000E+0003	 1.25196347360595E-0001	
 2.52650000000000E+0003	 1.25443170640231E-0001	
 2.52850000000000E+0003	 1.25688993919868E-0001	
 2.53050000000000E+0003	 1.25928817199504E-0001	
 2.53250000000000E+0003	 1.26169640479141E-0001	
 2.53450000000000E+0003	 1.26410963758777E-0001	
 2.53650000000000E+0003	 1.26649787038414E-0001	
 2.53850000000000E+0003	 1.26886610318050E-0001	
 2.54050000000000E+0003	 1.27127933597687E-0001	
 2.54250000000000E+0003	 1.27369256877323E-0001	
 2.54450000000000E+0003	 1.27615580156960E-0001	
 2.54650000000000E+0003	 1.27865903436596E-0001	
 2.54850000000000E+0003	 1.28115226716233E-0001	
 2.55050000000000E+0003	 1.28361049995869E-0001	
 2.55250000000000E+0003	 1.28611873275506E-0001	
 2.55450000000000E+0003	 1.28862696555143E-0001	
 2.55650000000000E+0003	 1.29117019834779E-0001	
 2.55850000000000E+0003	 1.29369843114416E-0001	
 2.56050000000000E+0003	 1.29627166394052E-0001	
 2.56250000000000E+0003	 1.29881989673689E-0001	
 2.56450000000000E+0003	 1.30143812953325E-0001	
 2.56650000000000E+0003	 1.30411136232962E-0001	
 2.56850000000000E+0003	 1.30685959512598E-0001	
 2.57050000000000E+0003	 1.30964282792235E-0001	
 2.57250000000000E+0003	 1.31248106071871E-0001	
 2.57450000000000E+0003	 1.31529429351508E-0001	
 2.57650000000000E+0003	 1.31810752631144E-0001	
 2.57850000000000E+0003	 1.32090075910781E-0001	
 2.58050000000000E+0003	 1.32371899190417E-0001	
 2.58250000000000E+0003	 1.32652222470054E-0001	
 2.58450000000000E+0003	 1.32933045749690E-0001	
 2.58650000000000E+0003	 1.33211369029327E-0001	
 2.58850000000000E+0003	 1.33498692308963E-0001	
 2.59050000000000E+0003	 1.33790015588600E-0001	
 2.59250000000000E+0003	 1.34084838868236E-0001	
 2.59450000000000E+0003	 1.34380162147873E-0001	
 2.59650000000000E+0003	 1.34685985427509E-0001	
 2.59850000000000E+0003	 1.34997808707146E-0001	
 2.60050000000000E+0003	 1.35313131986782E-0001	
 2.60250000000000E+0003	 1.35629455266419E-0001	
 2.60450000000000E+0003	 1.35949278546055E-0001	
 2.60650000000000E+0003	 1.36271101825692E-0001	
 2.60850000000000E+0003	 1.36592425105328E-0001	
 2.61050000000000E+0003	 1.36906248384965E-0001	
 2.61250000000000E+0003	 1.37218571664601E-0001	
 2.61450000000000E+0003	 1.37527394944238E-0001	
 2.61650000000000E+0003	 1.37834218223874E-0001	
 2.61850000000000E+0003	 1.38137541503511E-0001	
 2.62050000000000E+0003	 1.38437864783147E-0001	
 2.62250000000000E+0003	 1.38731688062784E-0001	
 2.62450000000000E+0003	 1.39024511342420E-0001	
 2.62650000000000E+0003	 1.39315334622057E-0001	
 2.62850000000000E+0003	 1.39603157901694E-0001	
 2.63050000000000E+0003	 1.39887981181330E-0001	
 2.63250000000000E+0003	 1.40170804460967E-0001	
 2.63450000000000E+0003	 1.40450127740603E-0001	
 2.63650000000000E+0003	 1.40727951020240E-0001	
 2.63850000000000E+0003	 1.41003774299876E-0001	
 2.64050000000000E+0003	 1.41273097579513E-0001	
 2.64250000000000E+0003	 1.41540420859149E-0001	
 2.64450000000000E+0003	 1.41813244138786E-0001	
 2.64650000000000E+0003	 1.42085567418422E-0001	
 2.64850000000000E+0003	 1.42359390698059E-0001	
 2.65050000000000E+0003	 1.42634713977695E-0001	
 2.65250000000000E+0003	 1.42913537257332E-0001	
 2.65450000000000E+0003	 1.43192360536968E-0001	
 2.65650000000000E+0003	 1.43472683816605E-0001	
 2.65850000000000E+0003	 1.43757007096241E-0001	
 2.66050000000000E+0003	 1.44046830375878E-0001	
 2.66250000000000E+0003	 1.44340153655514E-0001	
 2.66450000000000E+0003	 1.44641976935151E-0001	
 2.66650000000000E+0003	 1.44947300214787E-0001	
 2.66850000000000E+0003	 1.45254123494424E-0001	
 2.67050000000000E+0003	 1.45566946774060E-0001	
 2.67250000000000E+0003	 1.45889270053697E-0001	
 2.67450000000000E+0003	 1.46213093333333E-0001	
 2.67650000000000E+0003	 1.46540916612970E-0001	
 2.67850000000000E+0003	 1.46874239892606E-0001	
 2.68050000000000E+0003	 1.47203563172243E-0001	
 2.68250000000000E+0003	 1.47524386451879E-0001	
 2.68450000000000E+0003	 1.47849209731516E-0001	
 2.68650000000000E+0003	 1.48181533011152E-0001	
 2.68850000000000E+0003	 1.48516356290789E-0001	
 2.69050000000000E+0003	 1.48853679570425E-0001	
 2.69250000000000E+0003	 1.49199502850062E-0001	
 2.69450000000000E+0003	 1.49552326129698E-0001	
 2.69650000000000E+0003	 1.49913149409335E-0001	
 2.69850000000000E+0003	 1.50281972688971E-0001	
 2.70050000000000E+0003	 1.50659795968608E-0001	
 2.70250000000000E+0003	 1.51051619248245E-0001	
 2.70450000000000E+0003	 1.51461442527881E-0001	
 2.70650000000000E+0003	 1.51888265807518E-0001	
 2.70850000000000E+0003	 1.52334589087154E-0001	
 2.71050000000000E+0003	 1.52797412366791E-0001	
 2.71250000000000E+0003	 1.53275235646427E-0001	
 2.71450000000000E+0003	 1.53770058926064E-0001	
 2.71650000000000E+0003	 1.54281882205700E-0001	
 2.71850000000000E+0003	 1.54805705485337E-0001	
 2.72050000000000E+0003	 1.55340028764973E-0001	
 2.72250000000000E+0003	 1.55880352044610E-0001	
 2.72450000000000E+0003	 1.56419675324246E-0001	
 2.72650000000000E+0003	 1.56963998603883E-0001	
 2.72850000000000E+0003	 1.57494821883519E-0001	
 2.73050000000000E+0003	 1.58009645163156E-0001	
 2.73250000000000E+0003	 1.58525468442792E-0001	
 2.73450000000000E+0003	 1.59036791722429E-0001	
 2.73650000000000E+0003	 1.59541615002065E-0001	
 2.73850000000000E+0003	 1.60035438281702E-0001	
 2.74050000000000E+0003	 1.60517761561338E-0001	
 2.74250000000000E+0003	 1.60992084840975E-0001	
 2.74450000000000E+0003	 1.61459908120611E-0001	
 2.74650000000000E+0003	 1.61936231400248E-0001	
 2.74850000000000E+0003	 1.62419054679884E-0001	
 2.75050000000000E+0003	 1.62891377959521E-0001	
 2.75250000000000E+0003	 1.63359201239157E-0001	
 2.75450000000000E+0003	 1.63833524518794E-0001	
 2.75650000000000E+0003	 1.64325847798430E-0001	
 2.75850000000000E+0003	 1.64831171078067E-0001	
 2.76050000000000E+0003	 1.65346994357703E-0001	
 2.76250000000000E+0003	 1.65874317637340E-0001	
 2.76450000000000E+0003	 1.66404140916976E-0001	
 2.76650000000000E+0003	 1.66940964196613E-0001	
 2.76850000000000E+0003	 1.67486787476249E-0001	
 2.77050000000000E+0003	 1.68038110755886E-0001	
 2.77250000000000E+0003	 1.68600434035523E-0001	
 2.77450000000000E+0003	 1.69182757315159E-0001	
 2.77650000000000E+0003	 1.69761080594796E-0001	
 2.77850000000000E+0003	 1.70318403874432E-0001	
 2.78050000000000E+0003	 1.70883727154069E-0001	
 2.78250000000000E+0003	 1.71462550433705E-0001	
 2.78450000000000E+0003	 1.72048373713342E-0001	
 2.78650000000000E+0003	 1.72637696992978E-0001	
 2.78850000000000E+0003	 1.73254020272615E-0001	
 2.79050000000000E+0003	 1.73881343552251E-0001	
 2.79250000000000E+0003	 1.74500166831888E-0001	
 2.79450000000000E+0003	 1.75121990111524E-0001	
 2.79650000000000E+0003	 1.75769813391161E-0001	
 2.79850000000000E+0003	 1.76439636670797E-0001	
 2.80050000000000E+0003	 1.77106459950434E-0001	
 2.80250000000000E+0003	 1.77777283230070E-0001	
 2.80450000000000E+0003	 1.78471606509707E-0001	
 2.80650000000000E+0003	 1.79174429789343E-0001	
 2.80850000000000E+0003	 1.79898253068980E-0001	
 2.81050000000000E+0003	 1.80639076348616E-0001	
 2.81250000000000E+0003	 1.81376899628253E-0001	
 2.81450000000000E+0003	 1.82118722907889E-0001	
 2.81650000000000E+0003	 1.82879046187526E-0001	
 2.81850000000000E+0003	 1.83656869467162E-0001	
 2.82050000000000E+0003	 1.84453692746799E-0001	
 2.82250000000000E+0003	 1.85273016026435E-0001	
 2.82450000000000E+0003	 1.86122839306072E-0001	
 2.82650000000000E+0003	 1.87004162585708E-0001	
 2.82850000000000E+0003	 1.87924985865345E-0001	
 2.83050000000000E+0003	 1.88894809144981E-0001	
 2.83250000000000E+0003	 1.89936632424618E-0001	
 2.83450000000000E+0003	 1.91069955704254E-0001	
 2.83650000000000E+0003	 1.92331778983891E-0001	
 2.83850000000000E+0003	 1.93798602263527E-0001	
 2.84050000000000E+0003	 1.95510425543164E-0001	
 2.84250000000000E+0003	 1.97579748822800E-0001	
 2.84450000000000E+0003	 2.00212072102437E-0001	
 2.84650000000000E+0003	 2.03460895382074E-0001	
 2.84850000000000E+0003	 2.07091218661710E-0001	
 2.85050000000000E+0003	 2.10568041941347E-0001	
 2.85250000000000E+0003	 2.13418865220983E-0001	
 2.85450000000000E+0003	 2.15421688500620E-0001	
 2.85650000000000E+0003	 2.16607011780256E-0001	
 2.85850000000000E+0003	 2.17249335059893E-0001	
 2.86050000000000E+0003	 2.17727658339529E-0001	
 2.86250000000000E+0003	 2.18372481619166E-0001	
 2.86450000000000E+0003	 2.19439304898802E-0001	
 2.86650000000000E+0003	 2.20965628178439E-0001	
 2.86850000000000E+0003	 2.22791951458075E-0001	
 2.87050000000000E+0003	 2.24674774737712E-0001	
 2.87250000000000E+0003	 2.26321598017348E-0001	
 2.87450000000000E+0003	 2.27385421296985E-0001	
 2.87650000000000E+0003	 2.27756744576621E-0001	
 2.87850000000000E+0003	 2.27684067856258E-0001	
 2.88050000000000E+0003	 2.27442391135894E-0001	
 2.88250000000000E+0003	 2.27251214415531E-0001	
 2.88450000000000E+0003	 2.27283037695167E-0001	
 2.88650000000000E+0003	 2.27622360974804E-0001	
 2.88850000000000E+0003	 2.28281684254440E-0001	
 2.89050000000000E+0003	 2.29234007534077E-0001	
 2.89250000000000E+0003	 2.30442330813713E-0001	
 2.89450000000000E+0003	 2.31869154093350E-0001	
 2.89650000000000E+0003	 2.33444977372986E-0001	
 2.89850000000000E+0003	 2.35101300652623E-0001	
 2.90050000000000E+0003	 2.36877123932259E-0001	
 2.90250000000000E+0003	 2.38821947211896E-0001	
 2.90450000000000E+0003	 2.40966270491532E-0001	
 2.90650000000000E+0003	 2.43352593771169E-0001	
 2.90850000000000E+0003	 2.46068417050805E-0001	
 2.91050000000000E+0003	 2.49186240330442E-0001	
 2.91250000000000E+0003	 2.52751063610078E-0001	
 2.91450000000000E+0003	 2.56654886889715E-0001	
 2.91650000000000E+0003	 2.60658710169352E-0001	
 2.91850000000000E+0003	 2.64516533448988E-0001	
 2.92050000000000E+0003	 2.68010856728625E-0001	
 2.92250000000000E+0003	 2.71018180008261E-0001	
 2.92450000000000E+0003	 2.73431003287898E-0001	
 2.92650000000000E+0003	 2.75179826567534E-0001	
 2.92850000000000E+0003	 2.76292649847171E-0001	
 2.93050000000000E+0003	 2.76736973126807E-0001	
 2.93250000000000E+0003	 2.76503296406444E-0001	
 2.93450000000000E+0003	 2.75745119686080E-0001	
 2.93650000000000E+0003	 2.74536442965717E-0001	
 2.93850000000000E+0003	 2.72915766245353E-0001	
 2.94050000000000E+0003	 2.71046589524990E-0001	
 2.94250000000000E+0003	 2.69207412804626E-0001	
 2.94450000000000E+0003	 2.67623736084263E-0001	
 2.94650000000000E+0003	 2.66448059363899E-0001	
 2.94850000000000E+0003	 2.65862882643536E-0001	
 2.95050000000000E+0003	 2.66053205923172E-0001	
 2.95250000000000E+0003	 2.66997529202809E-0001	
 2.95450000000000E+0003	 2.68335852482445E-0001	
 2.95650000000000E+0003	 2.69758175762082E-0001	
 2.95850000000000E+0003	 2.70975999041718E-0001	
 2.96050000000000E+0003	 2.71717822321355E-0001	
 2.96250000000000E+0003	 2.71808145600991E-0001	
 2.96450000000000E+0003	 2.71183968880628E-0001	
 2.96650000000000E+0003	 2.69950292160264E-0001	
 2.96850000000000E+0003	 2.68290115439901E-0001	
 2.97050000000000E+0003	 2.66285438719537E-0001	
 2.97250000000000E+0003	 2.64027261999174E-0001	
 2.97450000000000E+0003	 2.61701085278810E-0001	
 2.97650000000000E+0003	 2.59428908558447E-0001	
 2.97850000000000E+0003	 2.57277731838083E-0001	
 2.98050000000000E+0003	 2.55232555117720E-0001	
 2.98250000000000E+0003	 2.53234378397356E-0001	
 2.98450000000000E+0003	 2.51343701676993E-0001	
 2.98650000000000E+0003	 2.49653024956629E-0001	
 2.98850000000000E+0003	 2.48194848236266E-0001	
 2.99050000000000E+0003	 2.47001171515903E-0001	
 2.99250000000000E+0003	 2.46074494795539E-0001	
 2.99450000000000E+0003	 2.45363818075176E-0001	
 2.99650000000000E+0003	 2.44938141354812E-0001	
 2.99850000000000E+0003	 2.44789964634449E-0001	
 3.00050000000000E+0003	 2.44813287914085E-0001	
 3.00250000000000E+0003	 2.44974111193722E-0001	
 3.00450000000000E+0003	 2.45187934473358E-0001	
 3.00650000000000E+0003	 2.45360257752995E-0001	
 3.00850000000000E+0003	 2.45507581032631E-0001	
 3.01050000000000E+0003	 2.45706404312268E-0001	
 3.01250000000000E+0003	 2.45959227591904E-0001	
 3.01450000000000E+0003	 2.46237550871541E-0001	
 3.01650000000000E+0003	 2.46565374151177E-0001	
 3.01850000000000E+0003	 2.46999197430814E-0001	
 3.02050000000000E+0003	 2.47581520710450E-0001	
 3.02250000000000E+0003	 2.48324343990087E-0001	
 3.02450000000000E+0003	 2.49224167269723E-0001	
 3.02650000000000E+0003	 2.50181990549360E-0001	
 3.02850000000000E+0003	 2.51153313828996E-0001	
 3.03050000000000E+0003	 2.52145637108633E-0001	
 3.03250000000000E+0003	 2.53141460388269E-0001	
 3.03450000000000E+0003	 2.54137283667906E-0001	
 3.03650000000000E+0003	 2.55106106947542E-0001	
 3.03850000000000E+0003	 2.56082930227179E-0001	
 3.04050000000000E+0003	 2.57154253506815E-0001	
 3.04250000000000E+0003	 2.58288076786452E-0001	
 3.04450000000000E+0003	 2.59411400066088E-0001	
 3.04650000000000E+0003	 2.60506723345725E-0001	
 3.04850000000000E+0003	 2.61613046625361E-0001	
 3.05050000000000E+0003	 2.62767869904998E-0001	
 3.05250000000000E+0003	 2.63918693184634E-0001	
 3.05450000000000E+0003	 2.65042516464271E-0001	
 3.05650000000000E+0003	 2.66154839743907E-0001	
 3.05850000000000E+0003	 2.67192163023544E-0001	
 3.06050000000000E+0003	 2.68132486303181E-0001	
 3.06250000000000E+0003	 2.69001809582817E-0001	
 3.06450000000000E+0003	 2.69791132862454E-0001	
 3.06650000000000E+0003	 2.70509456142090E-0001	
 3.06850000000000E+0003	 2.71146279421727E-0001	
 3.07050000000000E+0003	 2.71674102701363E-0001	
 3.07250000000000E+0003	 2.72144425981000E-0001	
 3.07450000000000E+0003	 2.72573249260636E-0001	
 3.07650000000000E+0003	 2.72982072540273E-0001	
 3.07850000000000E+0003	 2.73389395819909E-0001	
 3.08050000000000E+0003	 2.73749719099546E-0001	
 3.08250000000000E+0003	 2.74045542379182E-0001	
 3.08450000000000E+0003	 2.74324365658819E-0001	
 3.08650000000000E+0003	 2.74567688938455E-0001	
 3.08850000000000E+0003	 2.74771012218092E-0001	
 3.09050000000000E+0003	 2.74968835497728E-0001	
 3.09250000000000E+0003	 2.75132158777365E-0001	
 3.09450000000000E+0003	 2.75263982057001E-0001	
 3.09650000000000E+0003	 2.75413805336638E-0001	
 3.09850000000000E+0003	 2.75600628616274E-0001	
 3.10050000000000E+0003	 2.75839951895911E-0001	
 3.10250000000000E+0003	 2.76087775175547E-0001	
 3.10450000000000E+0003	 2.76339598455184E-0001	
 3.10650000000000E+0003	 2.76646421734820E-0001	
 3.10850000000000E+0003	 2.77044745014457E-0001	
 3.11050000000000E+0003	 2.77466568294093E-0001	
 3.11250000000000E+0003	 2.77887891573730E-0001	
 3.11450000000000E+0003	 2.78409214853366E-0001	
 3.11650000000000E+0003	 2.79037038133003E-0001	
 3.11850000000000E+0003	 2.79696361412639E-0001	
 3.12050000000000E+0003	 2.80389684692276E-0001	
 3.12250000000000E+0003	 2.81095507971912E-0001	
 3.12450000000000E+0003	 2.81836331251549E-0001	
 3.12650000000000E+0003	 2.82654654531185E-0001	
 3.12850000000000E+0003	 2.83557477810822E-0001	
 3.13050000000000E+0003	 2.84514301090458E-0001	
 3.13250000000000E+0003	 2.85493124370095E-0001	
 3.13450000000000E+0003	 2.86504447649732E-0001	
 3.13650000000000E+0003	 2.87579770929368E-0001	
 3.13850000000000E+0003	 2.88737594209005E-0001	
 3.14050000000000E+0003	 2.89911417488641E-0001	
 3.14250000000000E+0003	 2.91058240768278E-0001	
 3.14450000000000E+0003	 2.92255064047914E-0001	
 3.14650000000000E+0003	 2.93516387327551E-0001	
 3.14850000000000E+0003	 2.94825710607187E-0001	
 3.15050000000000E+0003	 2.96217533886824E-0001	
 3.15250000000000E+0003	 2.97674357166460E-0001	
 3.15450000000000E+0003	 2.99064680446097E-0001	
 3.15650000000000E+0003	 3.00434503725733E-0001	
 3.15850000000000E+0003	 3.01877327005370E-0001	
 3.16050000000000E+0003	 3.03381150285006E-0001	
 3.16250000000000E+0003	 3.04915473564643E-0001	
 3.16450000000000E+0003	 3.06478796844279E-0001	
 3.16650000000000E+0003	 3.08057620123916E-0001	
 3.16850000000000E+0003	 3.09650943403552E-0001	
 3.17050000000000E+0003	 3.11255766683189E-0001	
 3.17250000000000E+0003	 3.12871589962825E-0001	
 3.17450000000000E+0003	 3.14491913242462E-0001	
 3.17650000000000E+0003	 3.16123736522098E-0001	
 3.17850000000000E+0003	 3.17760059801735E-0001	
 3.18050000000000E+0003	 3.19385383081371E-0001	
 3.18250000000000E+0003	 3.20984706361008E-0001	
 3.18450000000000E+0003	 3.22573029640644E-0001	
 3.18650000000000E+0003	 3.24150852920281E-0001	
 3.18850000000000E+0003	 3.25708176199917E-0001	
 3.19050000000000E+0003	 3.27230499479554E-0001	
 3.19250000000000E+0003	 3.28724322759190E-0001	
 3.19450000000000E+0003	 3.30189146038827E-0001	
 3.19650000000000E+0003	 3.31629969318463E-0001	
 3.19850000000000E+0003	 3.33050292598100E-0001	
 3.20050000000000E+0003	 3.34444115877736E-0001	
 3.20250000000000E+0003	 3.35807439157373E-0001	
 3.20450000000000E+0003	 3.37145762437010E-0001	
 3.20650000000000E+0003	 3.38458585716646E-0001	
 3.20850000000000E+0003	 3.39747408996283E-0001	
 3.21050000000000E+0003	 3.41022232275919E-0001	
 3.21250000000000E+0003	 3.42304555555556E-0001	
 3.21450000000000E+0003	 3.43592378835192E-0001	
 3.21650000000000E+0003	 3.44871202114829E-0001	
 3.21850000000000E+0003	 3.46158525394465E-0001	
 3.22050000000000E+0003	 3.47458348674102E-0001	
 3.22250000000000E+0003	 3.48753671953738E-0001	
 3.22450000000000E+0003	 3.50080495233375E-0001	
 3.22650000000000E+0003	 3.51449818513011E-0001	
 3.22850000000000E+0003	 3.52865141792648E-0001	
 3.23050000000000E+0003	 3.54349465072284E-0001	
 3.23250000000000E+0003	 3.55927288351921E-0001	
 3.23450000000000E+0003	 3.57502111631557E-0001	
 3.23650000000000E+0003	 3.59034434911194E-0001	
 3.23850000000000E+0003	 3.60635258190830E-0001	
 3.24050000000000E+0003	 3.62344581470467E-0001	
 3.24250000000000E+0003	 3.64138404750103E-0001	
 3.24450000000000E+0003	 3.66036728029740E-0001	
 3.24650000000000E+0003	 3.68024051309376E-0001	
 3.24850000000000E+0003	 3.70014374589013E-0001	
 3.25050000000000E+0003	 3.72016197868649E-0001	
 3.25250000000000E+0003	 3.74114021148286E-0001	
 3.25450000000000E+0003	 3.76328844427922E-0001	
 3.25650000000000E+0003	 3.78597167707559E-0001	
 3.25850000000000E+0003	 3.80860490987195E-0001	
 3.26050000000000E+0003	 3.83152314266832E-0001	
 3.26250000000000E+0003	 3.85479637546468E-0001	
 3.26450000000000E+0003	 3.87812960826105E-0001	
 3.26650000000000E+0003	 3.90121784105741E-0001	
 3.26850000000000E+0003	 3.92416107385378E-0001	
 3.27050000000000E+0003	 3.94690930665014E-0001	
 3.27250000000000E+0003	 3.96855753944651E-0001	
 3.27450000000000E+0003	 3.98886577224287E-0001	
 3.27650000000000E+0003	 4.00831900503924E-0001	
 3.27850000000000E+0003	 4.02674223783561E-0001	
 3.28050000000000E+0003	 4.04412047063197E-0001	
 3.28250000000000E+0003	 4.06040870342834E-0001	
 3.28450000000000E+0003	 4.07562193622470E-0001	
 3.28650000000000E+0003	 4.08952016902107E-0001	
 3.28850000000000E+0003	 4.10208840181743E-0001	
 3.29050000000000E+0003	 4.11366663461380E-0001	
 3.29250000000000E+0003	 4.12427986741016E-0001	
 3.29450000000000E+0003	 4.13334810020653E-0001	
 3.29650000000000E+0003	 4.14109633300289E-0001	
 3.29850000000000E+0003	 4.14756456579926E-0001	
 3.30050000000000E+0003	 4.15282779859562E-0001	
 3.30250000000000E+0003	 4.15735603139199E-0001	
 3.30450000000000E+0003	 4.16160426418835E-0001	
 3.30650000000000E+0003	 4.16506749698472E-0001	
 3.30850000000000E+0003	 4.16733572978108E-0001	
 3.31050000000000E+0003	 4.16855396257745E-0001	
 3.31250000000000E+0003	 4.16916719537381E-0001	
 3.31450000000000E+0003	 4.16951042817018E-0001	
 3.31650000000000E+0003	 4.16961366096654E-0001	
 3.31850000000000E+0003	 4.16944689376291E-0001	
 3.32050000000000E+0003	 4.16910512655927E-0001	
 3.32250000000000E+0003	 4.16861835935564E-0001	
 3.32450000000000E+0003	 4.16835659215200E-0001	
 3.32650000000000E+0003	 4.16820482494837E-0001	
 3.32850000000000E+0003	 4.16774305774473E-0001	
 3.33050000000000E+0003	 4.16726629054110E-0001	
 3.33250000000000E+0003	 4.16714952333746E-0001	
 3.33450000000000E+0003	 4.16734275613383E-0001	
 3.33650000000000E+0003	 4.16809098893019E-0001	
 3.33850000000000E+0003	 4.16924422172656E-0001	
 3.34050000000000E+0003	 4.17016745452292E-0001	
 3.34250000000000E+0003	 4.17108068731929E-0001	
 3.34450000000000E+0003	 4.17234392011565E-0001	
 3.34650000000000E+0003	 4.17375215291202E-0001	
 3.34850000000000E+0003	 4.17582038570838E-0001	
 3.35050000000000E+0003	 4.17847861850475E-0001	
 3.35250000000000E+0003	 4.18067685130112E-0001	
 3.35450000000000E+0003	 4.18257008409748E-0001	
 3.35650000000000E+0003	 4.18509331689385E-0001	
 3.35850000000000E+0003	 4.18805654969021E-0001	
 3.36050000000000E+0003	 4.19120978248658E-0001	
 3.36250000000000E+0003	 4.19417801528294E-0001	
 3.36450000000000E+0003	 4.19744124807931E-0001	
 3.36650000000000E+0003	 4.20150948087567E-0001	
 3.36850000000000E+0003	 4.20570771367204E-0001	
 3.37050000000000E+0003	 4.20883094646840E-0001	
 3.37250000000000E+0003	 4.21104417926477E-0001	
 3.37450000000000E+0003	 4.21370241206113E-0001	
 3.37650000000000E+0003	 4.21706564485750E-0001	
 3.37850000000000E+0003	 4.22037887765386E-0001	
 3.38050000000000E+0003	 4.22358211045023E-0001	
 3.38250000000000E+0003	 4.22665034324659E-0001	
 3.38450000000000E+0003	 4.22983857604296E-0001	
 3.38650000000000E+0003	 4.23321680883932E-0001	
 3.38850000000000E+0003	 4.23706504163569E-0001	
 3.39050000000000E+0003	 4.24168327443205E-0001	
 3.39250000000000E+0003	 4.24579650722842E-0001	
 3.39450000000000E+0003	 4.24843974002478E-0001	
 3.39650000000000E+0003	 4.25128797282115E-0001	
 3.39850000000000E+0003	 4.25566120561751E-0001	
 3.40050000000000E+0003	 4.26034443841388E-0001	
 3.40250000000000E+0003	 4.26304267121024E-0001	
 3.40450000000000E+0003	 4.26448090400661E-0001	
 3.40650000000000E+0003	 4.26671413680297E-0001	
 3.40850000000000E+0003	 4.26973736959934E-0001	
 3.41050000000000E+0003	 4.27230560239570E-0001	
 3.41250000000000E+0003	 4.27413383519207E-0001	
 3.41450000000000E+0003	 4.27490706798843E-0001	
 3.41650000000000E+0003	 4.27473030078480E-0001	
 3.41850000000000E+0003	 4.27430853358116E-0001	
 3.42050000000000E+0003	 4.27387176637753E-0001	
 3.42250000000000E+0003	 4.27281999917390E-0001	
 3.42450000000000E+0003	 4.27114323197026E-0001	
 3.42650000000000E+0003	 4.26941646476663E-0001	
 3.42850000000000E+0003	 4.26780469756299E-0001	
 3.43050000000000E+0003	 4.26566793035936E-0001	
 3.43250000000000E+0003	 4.26296616315572E-0001	
 3.43450000000000E+0003	 4.26033939595209E-0001	
 3.43650000000000E+0003	 4.25697762874845E-0001	
 3.43850000000000E+0003	 4.25186586154482E-0001	
 3.44050000000000E+0003	 4.24606409434118E-0001	
 3.44250000000000E+0003	 4.24065732713755E-0001	
 3.44450000000000E+0003	 4.23546055993391E-0001	
 3.44650000000000E+0003	 4.23030879273028E-0001	
 3.44850000000000E+0003	 4.22458702552664E-0001	
 3.45050000000000E+0003	 4.21791025832301E-0001	
 3.45250000000000E+0003	 4.21104849111937E-0001	
 3.45450000000000E+0003	 4.20409172391574E-0001	
 3.45650000000000E+0003	 4.19706995671210E-0001	
 3.45850000000000E+0003	 4.19021818950847E-0001	
 3.46050000000000E+0003	 4.18271642230483E-0001	
 3.46250000000000E+0003	 4.17406965510120E-0001	
 3.46450000000000E+0003	 4.16613288789756E-0001	
 3.46650000000000E+0003	 4.15951112069393E-0001	
 3.46850000000000E+0003	 4.15156935349029E-0001	
 3.47050000000000E+0003	 4.14013258628666E-0001	
 3.47250000000000E+0003	 4.12753581908302E-0001	
 3.47450000000000E+0003	 4.11633905187939E-0001	
 3.47650000000000E+0003	 4.10639728467575E-0001	
 3.47850000000000E+0003	 4.09703551747212E-0001	
 3.48050000000000E+0003	 4.08650375026848E-0001	
 3.48250000000000E+0003	 4.07413698306485E-0001	
 3.48450000000000E+0003	 4.06230521586121E-0001	
 3.48650000000000E+0003	 4.05120844865758E-0001	
 3.48850000000000E+0003	 4.03916168145394E-0001	
 3.49050000000000E+0003	 4.02641491425031E-0001	
 3.49250000000000E+0003	 4.01417814704667E-0001	
 3.49450000000000E+0003	 4.00239637984304E-0001	
 3.49650000000000E+0003	 3.99042461263941E-0001	
 3.49850000000000E+0003	 3.97740284543577E-0001	
 3.50050000000000E+0003	 3.96448607823214E-0001	
 3.50250000000000E+0003	 3.95186931102850E-0001	
 3.50450000000000E+0003	 3.93689754382487E-0001	
 3.50650000000000E+0003	 3.92063577662123E-0001	
 3.50850000000000E+0003	 3.90565400941760E-0001	
 3.51050000000000E+0003	 3.89177224221396E-0001	
 3.51250000000000E+0003	 3.87826047501033E-0001	
 3.51450000000000E+0003	 3.86356370780669E-0001	
 3.51650000000000E+0003	 3.84735694060306E-0001	
 3.51850000000000E+0003	 3.83115017339942E-0001	
 3.52050000000000E+0003	 3.81599340619579E-0001	
 3.52250000000000E+0003	 3.80194663899215E-0001	
 3.52450000000000E+0003	 3.78638987178852E-0001	
 3.52650000000000E+0003	 3.76833310458488E-0001	
 3.52850000000000E+0003	 3.75038133738125E-0001	
 3.53050000000000E+0003	 3.73316457017761E-0001	
 3.53250000000000E+0003	 3.71625280297398E-0001	
 3.53450000000000E+0003	 3.70013103577034E-0001	
 3.53650000000000E+0003	 3.68348926856671E-0001	
 3.53850000000000E+0003	 3.66468750136307E-0001	
 3.54050000000000E+0003	 3.64631573415944E-0001	
 3.54250000000000E+0003	 3.62972396695580E-0001	
 3.54450000000000E+0003	 3.61270219975217E-0001	
 3.54650000000000E+0003	 3.59253543254853E-0001	
 3.54850000000000E+0003	 3.57027366534490E-0001	
 3.55050000000000E+0003	 3.54931189814126E-0001	
 3.55250000000000E+0003	 3.52888013093763E-0001	
 3.55450000000000E+0003	 3.50778836373399E-0001	
 3.55650000000000E+0003	 3.48699659653036E-0001	
 3.55850000000000E+0003	 3.46670982932672E-0001	
 3.56050000000000E+0003	 3.44635806212309E-0001	
 3.56250000000000E+0003	 3.42471629491945E-0001	
 3.56450000000000E+0003	 3.40226952771582E-0001	
 3.56650000000000E+0003	 3.38052776051219E-0001	
 3.56850000000000E+0003	 3.35878599330855E-0001	
 3.57050000000000E+0003	 3.33598422610492E-0001	
 3.57250000000000E+0003	 3.31262745890128E-0001	
 3.57450000000000E+0003	 3.28910069169765E-0001	
 3.57650000000000E+0003	 3.26578892449401E-0001	
 3.57850000000000E+0003	 3.24283715729038E-0001	
 3.58050000000000E+0003	 3.22048539008674E-0001	
 3.58250000000000E+0003	 3.19836862288311E-0001	
 3.58450000000000E+0003	 3.17589185567947E-0001	
 3.58650000000000E+0003	 3.15116508847584E-0001	
 3.58850000000000E+0003	 3.12387832127220E-0001	
 3.59050000000000E+0003	 3.09782655406857E-0001	
 3.59250000000000E+0003	 3.07363478686493E-0001	
 3.59450000000000E+0003	 3.04846301966130E-0001	
 3.59650000000000E+0003	 3.02325625245766E-0001	
 3.59850000000000E+0003	 2.99916948525403E-0001	
 3.60050000000000E+0003	 2.97438271805039E-0001	
 3.60250000000000E+0003	 2.94864595084676E-0001	
 3.60450000000000E+0003	 2.92333418364312E-0001	
 3.60650000000000E+0003	 2.89788241643949E-0001	
 3.60850000000000E+0003	 2.87124064923585E-0001	
 3.61050000000000E+0003	 2.84418388203222E-0001	
 3.61250000000000E+0003	 2.81829211482858E-0001	
 3.61450000000000E+0003	 2.79281534762495E-0001	
 3.61650000000000E+0003	 2.76735858042131E-0001	
 3.61850000000000E+0003	 2.74132181321768E-0001	
 3.62050000000000E+0003	 2.71500004601404E-0001	
 3.62250000000000E+0003	 2.68951827881041E-0001	
 3.62450000000000E+0003	 2.66483651160677E-0001	
 3.62650000000000E+0003	 2.64011474440314E-0001	
 3.62850000000000E+0003	 2.61292797719950E-0001	
 3.63050000000000E+0003	 2.58387620999587E-0001	
 3.63250000000000E+0003	 2.55926944279223E-0001	
 3.63450000000000E+0003	 2.53578767558860E-0001	
 3.63650000000000E+0003	 2.51070090838496E-0001	
 3.63850000000000E+0003	 2.48567414118133E-0001	
 3.64050000000000E+0003	 2.46094237397770E-0001	
 3.64250000000000E+0003	 2.43688560677406E-0001	
 3.64450000000000E+0003	 2.41383883957043E-0001	
 3.64650000000000E+0003	 2.39131707236679E-0001	
 3.64850000000000E+0003	 2.36826530516316E-0001	
 3.65050000000000E+0003	 2.34431853795952E-0001	
 3.65250000000000E+0003	 2.32028177075589E-0001	
 3.65450000000000E+0003	 2.29854000355225E-0001	
 3.65650000000000E+0003	 2.27714823634862E-0001	
 3.65850000000000E+0003	 2.25641146914498E-0001	
 3.66050000000000E+0003	 2.23657970194135E-0001	
 3.66250000000000E+0003	 2.21561293473771E-0001	
 3.66450000000000E+0003	 2.19523616753408E-0001	
 3.66650000000000E+0003	 2.17688440033044E-0001	
 3.66850000000000E+0003	 2.15901263312681E-0001	
 3.67050000000000E+0003	 2.14083086592317E-0001	
 3.67250000000000E+0003	 2.12429909871954E-0001	
 3.67450000000000E+0003	 2.10948233151590E-0001	
 3.67650000000000E+0003	 2.09291056431227E-0001	
 3.67850000000000E+0003	 2.07712879710863E-0001	
 3.68050000000000E+0003	 2.06341702990500E-0001	
 3.68250000000000E+0003	 2.04967026270136E-0001	
 3.68450000000000E+0003	 2.03696349549773E-0001	
 3.68650000000000E+0003	 2.02586672829409E-0001	
 3.68850000000000E+0003	 2.01454996109046E-0001	
 3.69050000000000E+0003	 2.00177319388682E-0001	
 3.69250000000000E+0003	 1.98943642668319E-0001	
 3.69450000000000E+0003	 1.97844465947955E-0001	
 3.69650000000000E+0003	 1.96836289227592E-0001	
 3.69850000000000E+0003	 1.95842612507228E-0001	
 3.70050000000000E+0003	 1.94908435786865E-0001	
 3.70250000000000E+0003	 1.94064759066501E-0001	
 3.70450000000000E+0003	 1.93272082346138E-0001	
 3.70650000000000E+0003	 1.92536405625774E-0001	
 3.70850000000000E+0003	 1.91845228905411E-0001	
 3.71050000000000E+0003	 1.91189052185048E-0001	
 3.71250000000000E+0003	 1.90559375464684E-0001	
 3.71450000000000E+0003	 1.89905198744321E-0001	
 3.71650000000000E+0003	 1.89289022023957E-0001	
 3.71850000000000E+0003	 1.88690345303594E-0001	
 3.72050000000000E+0003	 1.88139668583230E-0001	
 3.72250000000000E+0003	 1.87650991862867E-0001	
 3.72450000000000E+0003	 1.87174315142503E-0001	
 3.72650000000000E+0003	 1.86705638422140E-0001	
 3.72850000000000E+0003	 1.86215461701776E-0001	
 3.73050000000000E+0003	 1.85730284981413E-0001	
 3.73250000000000E+0003	 1.85264108261049E-0001	
 3.73450000000000E+0003	 1.84977431540686E-0001	
 3.73650000000000E+0003	 1.84815254820322E-0001	
 3.73850000000000E+0003	 1.84422078099959E-0001	
 3.74050000000000E+0003	 1.83936901379595E-0001	
 3.74250000000000E+0003	 1.83420224659232E-0001	
 3.74450000000000E+0003	 1.82929047938868E-0001	
 3.74650000000000E+0003	 1.82534371218505E-0001	
 3.74850000000000E+0003	 1.82232194498141E-0001	
 3.75050000000000E+0003	 1.81869017777778E-0001	
 3.75250000000000E+0003	 1.81556841057414E-0001	
 3.75450000000000E+0003	 1.81225164337051E-0001	
 3.75650000000000E+0003	 1.80909487616687E-0001	
 3.75850000000000E+0003	 1.80629310896324E-0001	
 3.76050000000000E+0003	 1.80370134175960E-0001	
 3.76250000000000E+0003	 1.80029957455597E-0001	
 3.76450000000000E+0003	 1.79711280735233E-0001	
 3.76650000000000E+0003	 1.79465104014870E-0001	
 3.76850000000000E+0003	 1.79227927294506E-0001	
 3.77050000000000E+0003	 1.78973750574143E-0001	
 3.77250000000000E+0003	 1.78675073853779E-0001	
 3.77450000000000E+0003	 1.78385397133416E-0001	
 3.77650000000000E+0003	 1.78154220413052E-0001	
 3.77850000000000E+0003	 1.78006043692689E-0001	
 3.78050000000000E+0003	 1.77813866972325E-0001	
 3.78250000000000E+0003	 1.77492190251962E-0001	
 3.78450000000000E+0003	 1.77210513531599E-0001	
 3.78650000000000E+0003	 1.77008836811235E-0001	
 3.78850000000000E+0003	 1.76813160090872E-0001	
 3.79050000000000E+0003	 1.76605983370508E-0001	
 3.79250000000000E+0003	 1.76379806650145E-0001	
 3.79450000000000E+0003	 1.76136629929781E-0001	
 3.79650000000000E+0003	 1.75949453209418E-0001	
 3.79850000000000E+0003	 1.75776776489054E-0001	
 3.80050000000000E+0003	 1.75583599768691E-0001	
 3.80250000000000E+0003	 1.75442423048327E-0001	
 3.80450000000000E+0003	 1.75293746327964E-0001	
 3.80650000000000E+0003	 1.75128569607600E-0001	
 3.80850000000000E+0003	 1.74921392887237E-0001	
 3.81050000000000E+0003	 1.74730216166873E-0001	
 3.81250000000000E+0003	 1.74558539446510E-0001	
 3.81450000000000E+0003	 1.74389862726146E-0001	
 3.81650000000000E+0003	 1.74261686005783E-0001	
 3.81850000000000E+0003	 1.74139009285419E-0001	
 3.82050000000000E+0003	 1.74066332565056E-0001	
 3.82250000000000E+0003	 1.73951155844692E-0001	
 3.82450000000000E+0003	 1.73729479124329E-0001	
 3.82650000000000E+0003	 1.73573302403965E-0001	
 3.82850000000000E+0003	 1.73450125683602E-0001	
 3.83050000000000E+0003	 1.73304448963238E-0001	
 3.83250000000000E+0003	 1.73173272242875E-0001	
 3.83450000000000E+0003	 1.73119095522511E-0001	
 3.83650000000000E+0003	 1.73042418802148E-0001	
 3.83850000000000E+0003	 1.72869742081784E-0001	
 3.84050000000000E+0003	 1.72746565361421E-0001	
 3.84250000000000E+0003	 1.72694888641057E-0001	
 3.84450000000000E+0003	 1.72627711920694E-0001	
 3.84650000000000E+0003	 1.72487035200330E-0001	
 3.84850000000000E+0003	 1.72298858479967E-0001	
 3.85050000000000E+0003	 1.72106681759603E-0001	
 3.85250000000000E+0003	 1.71937505039240E-0001	
 3.85450000000000E+0003	 1.71846828318876E-0001	
 3.85650000000000E+0003	 1.71807651598513E-0001	
 3.85850000000000E+0003	 1.71817474878150E-0001	
 3.86050000000000E+0003	 1.71713798157786E-0001	
 3.86250000000000E+0003	 1.71585621437423E-0001	
 3.86450000000000E+0003	 1.71568944717059E-0001	
 3.86650000000000E+0003	 1.71518767996696E-0001	
 3.86850000000000E+0003	 1.71397091276332E-0001	
 3.87050000000000E+0003	 1.71331414555969E-0001	
 3.87250000000000E+0003	 1.71280737835605E-0001	
 3.87450000000000E+0003	 1.71259061115242E-0001	
 3.87650000000000E+0003	 1.71181884394878E-0001	
 3.87850000000000E+0003	 1.71032707674515E-0001	
 3.88050000000000E+0003	 1.70996530954151E-0001	
 3.88250000000000E+0003	 1.71061854233788E-0001	
 3.88450000000000E+0003	 1.71093677513424E-0001	
 3.88650000000000E+0003	 1.71054500793061E-0001	
 3.88850000000000E+0003	 1.70884824072697E-0001	
 3.89050000000000E+0003	 1.70749147352334E-0001	
 3.89250000000000E+0003	 1.70728470631970E-0001	
 3.89450000000000E+0003	 1.70710793911607E-0001	
 3.89650000000000E+0003	 1.70618617191243E-0001	
 3.89850000000000E+0003	 1.70553940470880E-0001	
 3.90050000000000E+0003	 1.70573763750516E-0001	
 3.90250000000000E+0003	 1.70568587030153E-0001	
 3.90450000000000E+0003	 1.70558910309789E-0001	
 3.90650000000000E+0003	 1.70564733589426E-0001	
 3.90850000000000E+0003	 1.70520556869062E-0001	
 3.91050000000000E+0003	 1.70451380148699E-0001	
 3.91250000000000E+0003	 1.70409203428335E-0001	
 3.91450000000000E+0003	 1.70382526707972E-0001	
 3.91650000000000E+0003	 1.70395349987608E-0001	
 3.91850000000000E+0003	 1.70420173267245E-0001	
 3.92050000000000E+0003	 1.70394496546881E-0001	
 3.92250000000000E+0003	 1.70321819826518E-0001	
 3.92450000000000E+0003	 1.70296143106154E-0001	
 3.92650000000000E+0003	 1.70309966385791E-0001	
 3.92850000000000E+0003	 1.70283789665428E-0001	
 3.93050000000000E+0003	 1.70277112945064E-0001	
 3.93250000000000E+0003	 1.70347936224701E-0001	
 3.93450000000000E+0003	 1.70363759504337E-0001	
 3.93650000000000E+0003	 1.70280082783974E-0001	
 3.93850000000000E+0003	 1.70195906063610E-0001	
 3.94050000000000E+0003	 1.70138729343247E-0001	
 3.94250000000000E+0003	 1.70140552622883E-0001	
 3.94450000000000E+0003	 1.70175375902520E-0001	
 3.94650000000000E+0003	 1.70152199182156E-0001	
 3.94850000000000E+0003	 1.70124522461793E-0001	
 3.95050000000000E+0003	 1.70126845741429E-0001	
 3.95250000000000E+0003	 1.70103169021066E-0001	
 3.95450000000000E+0003	 1.70063492300702E-0001	
 3.95650000000000E+0003	 1.70041815580339E-0001	
 3.95850000000000E+0003	 1.70029638859975E-0001	
 3.96050000000000E+0003	 1.70015962139612E-0001	
 3.96250000000000E+0003	 1.70017785419248E-0001	
 3.96450000000000E+0003	 1.70014108698885E-0001	
 3.96650000000000E+0003	 1.69991431978521E-0001	
 3.96850000000000E+0003	 1.69976255258158E-0001	
 3.97050000000000E+0003	 1.69972078537794E-0001	
 3.97250000000000E+0003	 1.69969401817431E-0001	
 3.97450000000000E+0003	 1.69986225097067E-0001	
 3.97650000000000E+0003	 1.70011048376704E-0001	
 3.97850000000000E+0003	 1.70003871656340E-0001	
 3.98050000000000E+0003	 1.69991194935977E-0001	
 3.98250000000000E+0003	 1.70019518215613E-0001	
 3.98450000000000E+0003	 1.70042841495250E-0001	
 3.98650000000000E+0003	 1.70010164774886E-0001	
 3.98850000000000E+0003	 1.69963988054523E-0001	
 3.99050000000000E+0003	 1.69951311334159E-0001	
 3.99250000000000E+0003	 1.69950134613796E-0001	
 3.99450000000000E+0003	 1.69945957893432E-0001	
 3.99650000000000E+0003	 1.69946781173069E-0001	
 3.99850000000000E+0003	 1.69944604452705E-0001	

>1	DATALINE
