*CPCWIN*

>1	DATALINE
DATALINE
1
Operator:

Description:

Remarks:





15.9.2008
11:11


_x	_y
	
	
UNIT	UNIT
 4.50500000000000E+0002	 1.53543245557617E-0001	
 4.52500000000000E+0002	 1.53750255617398E-0001	
 4.54500000000000E+0002	 1.54010765677180E-0001	
 4.56500000000000E+0002	 1.54540775736961E-0001	
 4.58500000000000E+0002	 1.55018285796743E-0001	
 4.60500000000000E+0002	 1.55760295856524E-0001	
 4.62500000000000E+0002	 1.56782305916306E-0001	
 4.64500000000000E+0002	 1.57907815976087E-0001	
 4.66500000000000E+0002	 1.58110826035869E-0001	
 4.68500000000000E+0002	 1.58286836095650E-0001	
 4.70500000000000E+0002	 1.59343846155432E-0001	
 4.72500000000000E+0002	 1.60196856215213E-0001	
 4.74500000000000E+0002	 1.60728366274995E-0001	
 4.76500000000000E+0002	 1.61162876334776E-0001	
 4.78500000000000E+0002	 1.61943386394558E-0001	
 4.80500000000000E+0002	 1.62671396454339E-0001	
 4.82500000000000E+0002	 1.63434906514121E-0001	
 4.84500000000000E+0002	 1.63907916573902E-0001	
 4.86500000000000E+0002	 1.64283926633684E-0001	
 4.88500000000000E+0002	 1.64942436693465E-0001	
 4.90500000000000E+0002	 1.65411946753247E-0001	
 4.92500000000000E+0002	 1.65919456813028E-0001	
 4.94500000000000E+0002	 1.66781466872810E-0001	
 4.96500000000000E+0002	 1.67607476932591E-0001	
 4.98500000000000E+0002	 1.68327986992373E-0001	
 5.00500000000000E+0002	 1.68673497052154E-0001	
 5.02500000000000E+0002	 1.69152007111936E-0001	
 5.04500000000000E+0002	 1.70291517171717E-0001	
 5.06500000000000E+0002	 1.71439027231499E-0001	
 5.08500000000000E+0002	 1.72204537291280E-0001	
 5.10500000000000E+0002	 1.73065547351062E-0001	
 5.12500000000000E+0002	 1.74155557410843E-0001	
 5.14500000000000E+0002	 1.75003567470625E-0001	
 5.16500000000000E+0002	 1.75642577530406E-0001	
 5.18500000000000E+0002	 1.76491087590188E-0001	
 5.20500000000000E+0002	 1.77506097649969E-0001	
 5.22500000000000E+0002	 1.78458607709751E-0001	
 5.24500000000000E+0002	 1.78970617769532E-0001	
 5.26500000000000E+0002	 1.79655127829314E-0001	
 5.28500000000000E+0002	 1.80749637889095E-0001	
 5.30500000000000E+0002	 1.81548147948877E-0001	
 5.32500000000000E+0002	 1.81818658008658E-0001	
 5.34500000000000E+0002	 1.81959168068439E-0001	
 5.36500000000000E+0002	 1.82004678128221E-0001	
 5.38500000000000E+0002	 1.81924188188002E-0001	
 5.40500000000000E+0002	 1.81675698247784E-0001	
 5.42500000000000E+0002	 1.81373708307565E-0001	
 5.44500000000000E+0002	 1.81019218367347E-0001	
 5.46500000000000E+0002	 1.80627728427128E-0001	
 5.48500000000000E+0002	 1.80173238486910E-0001	
 5.50500000000000E+0002	 1.79913748546691E-0001	
 5.52500000000000E+0002	 1.79711758606473E-0001	
 5.54500000000000E+0002	 1.79435768666254E-0001	
 5.56500000000000E+0002	 1.79102278726036E-0001	
 5.58500000000000E+0002	 1.78833788785817E-0001	
 5.60500000000000E+0002	 1.78474298845599E-0001	
 5.62500000000000E+0002	 1.78042808905380E-0001	
 5.64500000000000E+0002	 1.77561318965162E-0001	
 5.66500000000000E+0002	 1.77158829024943E-0001	
 5.68500000000000E+0002	 1.76732839084725E-0001	
 5.70500000000000E+0002	 1.76279349144506E-0001	
 5.72500000000000E+0002	 1.75915859204288E-0001	
 5.74500000000000E+0002	 1.75533369264069E-0001	
 5.76500000000000E+0002	 1.75145879323851E-0001	
 5.78500000000000E+0002	 1.74949389383632E-0001	
 5.80500000000000E+0002	 1.74589899443414E-0001	
 5.82500000000000E+0002	 1.74213909503195E-0001	
 5.84500000000000E+0002	 1.73846419562977E-0001	
 5.86500000000000E+0002	 1.73643929622758E-0001	
 5.88500000000000E+0002	 1.73493439682540E-0001	
 5.90500000000000E+0002	 1.73288949742321E-0001	
 5.92500000000000E+0002	 1.73180959802103E-0001	
 5.94500000000000E+0002	 1.73265469861884E-0001	
 5.96500000000000E+0002	 1.73291979921666E-0001	
 5.98500000000000E+0002	 1.73177489981447E-0001	
 6.00500000000000E+0002	 1.73034000041229E-0001	
 6.02500000000000E+0002	 1.73042510101010E-0001	
 6.04500000000000E+0002	 1.73008520160792E-0001	
 6.06500000000000E+0002	 1.72992030220573E-0001	
 6.08500000000000E+0002	 1.72981040280355E-0001	
 6.10500000000000E+0002	 1.72997550340136E-0001	
 6.12500000000000E+0002	 1.73017560399918E-0001	
 6.14500000000000E+0002	 1.73065070459699E-0001	
 6.16500000000000E+0002	 1.73055080519481E-0001	
 6.18500000000000E+0002	 1.72907590579262E-0001	
 6.20500000000000E+0002	 1.72597100639043E-0001	
 6.22500000000000E+0002	 1.72315110698825E-0001	
 6.24500000000000E+0002	 1.71953620758606E-0001	
 6.26500000000000E+0002	 1.71602130818388E-0001	
 6.28500000000000E+0002	 1.71264640878169E-0001	
 6.30500000000000E+0002	 1.70842150937951E-0001	
 6.32500000000000E+0002	 1.70297160997732E-0001	
 6.34500000000000E+0002	 1.69765171057514E-0001	
 6.36500000000000E+0002	 1.69421681117295E-0001	
 6.38500000000000E+0002	 1.69211691177077E-0001	
 6.40500000000000E+0002	 1.69006701236858E-0001	
 6.42500000000000E+0002	 1.68871711296640E-0001	
 6.44500000000000E+0002	 1.68679221356421E-0001	
 6.46500000000000E+0002	 1.68477731416203E-0001	
 6.48500000000000E+0002	 1.68247741475984E-0001	
 6.50500000000000E+0002	 1.67998251535766E-0001	
 6.52500000000000E+0002	 1.67794761595547E-0001	
 6.54500000000000E+0002	 1.67654271655329E-0001	
 6.56500000000000E+0002	 1.67493281715110E-0001	
 6.58500000000000E+0002	 1.67291791774892E-0001	
 6.60500000000000E+0002	 1.67096301834673E-0001	
 6.62500000000000E+0002	 1.66857311894455E-0001	
 6.64500000000000E+0002	 1.66416321954236E-0001	
 6.66500000000000E+0002	 1.66037832014018E-0001	
 6.68500000000000E+0002	 1.65597342073799E-0001	
 6.70500000000000E+0002	 1.65075852133581E-0001	
 6.72500000000000E+0002	 1.64562362193362E-0001	
 6.74500000000000E+0002	 1.64031872253144E-0001	
 6.76500000000000E+0002	 1.63394382312925E-0001	
 6.78500000000000E+0002	 1.62761892372707E-0001	
 6.80500000000000E+0002	 1.62166902432488E-0001	
 6.82500000000000E+0002	 1.61615412492270E-0001	
 6.84500000000000E+0002	 1.61082922552051E-0001	
 6.86500000000000E+0002	 1.60593432611833E-0001	
 6.88500000000000E+0002	 1.60134442671614E-0001	
 6.90500000000000E+0002	 1.59872952731396E-0001	
 6.92500000000000E+0002	 1.59726962791177E-0001	
 6.94500000000000E+0002	 1.59611972850959E-0001	
 6.96500000000000E+0002	 1.59538482910740E-0001	
 6.98500000000000E+0002	 1.59467492970522E-0001	
 7.00500000000000E+0002	 1.59227503030303E-0001	
 7.02500000000000E+0002	 1.58636513090085E-0001	
 7.04500000000000E+0002	 1.57767523149866E-0001	
 7.06500000000000E+0002	 1.56852533209647E-0001	
 7.08500000000000E+0002	 1.55996543269429E-0001	
 7.10500000000000E+0002	 1.55291553329210E-0001	
 7.12500000000000E+0002	 1.54660063388992E-0001	
 7.14500000000000E+0002	 1.53914573448773E-0001	
 7.16500000000000E+0002	 1.53125583508555E-0001	
 7.18500000000000E+0002	 1.52418593568336E-0001	
 7.20500000000000E+0002	 1.51656603628118E-0001	
 7.22500000000000E+0002	 1.50741113687899E-0001	
 7.24500000000000E+0002	 1.49759123747681E-0001	
 7.26500000000000E+0002	 1.48720633807462E-0001	
 7.28500000000000E+0002	 1.47633643867244E-0001	
 7.30500000000000E+0002	 1.46582153927025E-0001	
 7.32500000000000E+0002	 1.45607663986807E-0001	
 7.34500000000000E+0002	 1.44789674046588E-0001	
 7.36500000000000E+0002	 1.44116684106370E-0001	
 7.38500000000000E+0002	 1.43552194166151E-0001	
 7.40500000000000E+0002	 1.43024204225933E-0001	
 7.42500000000000E+0002	 1.42508714285714E-0001	
 7.44500000000000E+0002	 1.41946224345496E-0001	
 7.46500000000000E+0002	 1.41401234405277E-0001	
 7.48500000000000E+0002	 1.40834244465059E-0001	
 7.50500000000000E+0002	 1.40237254524840E-0001	
 7.52500000000000E+0002	 1.39622264584622E-0001	
 7.54500000000000E+0002	 1.39015274644403E-0001	
 7.56500000000000E+0002	 1.38364784704185E-0001	
 7.58500000000000E+0002	 1.37643294763966E-0001	
 7.60500000000000E+0002	 1.36922304823748E-0001	
 7.62500000000000E+0002	 1.36342814883529E-0001	
 7.64500000000000E+0002	 1.35861824943311E-0001	
 7.66500000000000E+0002	 1.35324335003092E-0001	
 7.68500000000000E+0002	 1.34684345062874E-0001	
 7.70500000000000E+0002	 1.34045855122655E-0001	
 7.72500000000000E+0002	 1.33553365182437E-0001	
 7.74500000000000E+0002	 1.33296375242218E-0001	
 7.76500000000000E+0002	 1.33379385302000E-0001	
 7.78500000000000E+0002	 1.33647895361781E-0001	
 7.80500000000000E+0002	 1.33498405421563E-0001	
 7.82500000000000E+0002	 1.32683915481344E-0001	
 7.84500000000000E+0002	 1.31624925541126E-0001	
 7.86500000000000E+0002	 1.30663435600907E-0001	
 7.88500000000000E+0002	 1.29796945660689E-0001	
 7.90500000000000E+0002	 1.29042955720470E-0001	
 7.92500000000000E+0002	 1.28517465780251E-0001	
 7.94500000000000E+0002	 1.28241475840033E-0001	
 7.96500000000000E+0002	 1.27946985899814E-0001	
 7.98500000000000E+0002	 1.27431995959596E-0001	
 8.00500000000000E+0002	 1.26799006019377E-0001	
 8.02500000000000E+0002	 1.26264516079159E-0001	
 8.04500000000000E+0002	 1.25940026138940E-0001	
 8.06500000000000E+0002	 1.25789036198722E-0001	
 8.08500000000000E+0002	 1.25690046258503E-0001	
 8.10500000000000E+0002	 1.25528056318285E-0001	
 8.12500000000000E+0002	 1.25218566378066E-0001	
 8.14500000000000E+0002	 1.24767576437848E-0001	
 8.16500000000000E+0002	 1.24216086497629E-0001	
 8.18500000000000E+0002	 1.23578596557411E-0001	
 8.20500000000000E+0002	 1.22934606617192E-0001	
 8.22500000000000E+0002	 1.22299616676974E-0001	
 8.24500000000000E+0002	 1.21750626736755E-0001	
 8.26500000000000E+0002	 1.21268136796537E-0001	
 8.28500000000000E+0002	 1.20855646856318E-0001	
 8.30500000000000E+0002	 1.20455156916100E-0001	
 8.32500000000000E+0002	 1.20083166975881E-0001	
 8.34500000000000E+0002	 1.19690177035663E-0001	
 8.36500000000000E+0002	 1.19309687095444E-0001	
 8.38500000000000E+0002	 1.18931197155226E-0001	
 8.40500000000000E+0002	 1.18631707215007E-0001	
 8.42500000000000E+0002	 1.18393717274789E-0001	
 8.44500000000000E+0002	 1.18293727334570E-0001	
 8.46500000000000E+0002	 1.18349737394352E-0001	
 8.48500000000000E+0002	 1.18537747454133E-0001	
 8.50500000000000E+0002	 1.18818257513915E-0001	
 8.52500000000000E+0002	 1.19244267573696E-0001	
 8.54500000000000E+0002	 1.19759777633478E-0001	
 8.56500000000000E+0002	 1.20290787693259E-0001	
 8.58500000000000E+0002	 1.20789797753041E-0001	
 8.60500000000000E+0002	 1.21168307812822E-0001	
 8.62500000000000E+0002	 1.21404817872604E-0001	
 8.64500000000000E+0002	 1.21517327932385E-0001	
 8.66500000000000E+0002	 1.21603337992167E-0001	
 8.68500000000000E+0002	 1.21995848051948E-0001	
 8.70500000000000E+0002	 1.23212858111730E-0001	
 8.72500000000000E+0002	 1.24421368171511E-0001	
 8.74500000000000E+0002	 1.24207878231293E-0001	
 8.76500000000000E+0002	 1.23096888291074E-0001	
 8.78500000000000E+0002	 1.22032898350855E-0001	
 8.80500000000000E+0002	 1.21105908410637E-0001	
 8.82500000000000E+0002	 1.20205418470418E-0001	
 8.84500000000000E+0002	 1.19269928530200E-0001	
 8.86500000000000E+0002	 1.18297438589981E-0001	
 8.88500000000000E+0002	 1.17365948649763E-0001	
 8.90500000000000E+0002	 1.16524458709544E-0001	
 8.92500000000000E+0002	 1.15828968769326E-0001	
 8.94500000000000E+0002	 1.15252478829107E-0001	
 8.96500000000000E+0002	 1.14785988888889E-0001	
 8.98500000000000E+0002	 1.14398998948670E-0001	
 9.00500000000000E+0002	 1.14143009008452E-0001	
 9.02500000000000E+0002	 1.14054519068233E-0001	
 9.04500000000000E+0002	 1.14223029128015E-0001	
 9.06500000000000E+0002	 1.14639539187796E-0001	
 9.08500000000000E+0002	 1.15254049247578E-0001	
 9.10500000000000E+0002	 1.15930559307359E-0001	
 9.12500000000000E+0002	 1.16505069367141E-0001	
 9.14500000000000E+0002	 1.16816079426922E-0001	
 9.16500000000000E+0002	 1.16787589486704E-0001	
 9.18500000000000E+0002	 1.16443599546485E-0001	
 9.20500000000000E+0002	 1.15897109606267E-0001	
 9.22500000000000E+0002	 1.15330619666048E-0001	
 9.24500000000000E+0002	 1.14893629725830E-0001	
 9.26500000000000E+0002	 1.14683139785611E-0001	
 9.28500000000000E+0002	 1.14662649845393E-0001	
 9.30500000000000E+0002	 1.14800159905174E-0001	
 9.32500000000000E+0002	 1.14997669964956E-0001	
 9.34500000000000E+0002	 1.15249680024737E-0001	
 9.36500000000000E+0002	 1.15558690084519E-0001	
 9.38500000000000E+0002	 1.15973700144300E-0001	
 9.40500000000000E+0002	 1.16500710204082E-0001	
 9.42500000000000E+0002	 1.17166720263863E-0001	
 9.44500000000000E+0002	 1.17953730323645E-0001	
 9.46500000000000E+0002	 1.18836740383426E-0001	
 9.48500000000000E+0002	 1.19808250443208E-0001	
 9.50500000000000E+0002	 1.20868760502989E-0001	
 9.52500000000000E+0002	 1.22062770562771E-0001	
 9.54500000000000E+0002	 1.23432780622552E-0001	
 9.56500000000000E+0002	 1.24981790682334E-0001	
 9.58500000000000E+0002	 1.26620800742115E-0001	
 9.60500000000000E+0002	 1.28285810801897E-0001	
 9.62500000000000E+0002	 1.29854820861678E-0001	
 9.64500000000000E+0002	 1.31238830921459E-0001	
 9.66500000000000E+0002	 1.32361840981241E-0001	
 9.68500000000000E+0002	 1.33264351041022E-0001	
 9.70500000000000E+0002	 1.33998361100804E-0001	
 9.72500000000000E+0002	 1.34661371160585E-0001	
 9.74500000000000E+0002	 1.35349881220367E-0001	
 9.76500000000000E+0002	 1.36160891280148E-0001	
 9.78500000000000E+0002	 1.37159401339930E-0001	
 9.80500000000000E+0002	 1.38341411399711E-0001	
 9.82500000000000E+0002	 1.39651421459493E-0001	
 9.84500000000000E+0002	 1.40994431519274E-0001	
 9.86500000000000E+0002	 1.42306941579056E-0001	
 9.88500000000000E+0002	 1.43549451638837E-0001	
 9.90500000000000E+0002	 1.44713961698619E-0001	
 9.92500000000000E+0002	 1.45716471758400E-0001	
 9.94500000000000E+0002	 1.46563981818182E-0001	
 9.96500000000000E+0002	 1.47303491877963E-0001	
 9.98500000000000E+0002	 1.48044001937745E-0001	
 1.00050000000000E+0003	 1.48895511997526E-0001	
 1.00250000000000E+0003	 1.50027522057308E-0001	
 1.00450000000000E+0003	 1.51521032117089E-0001	
 1.00650000000000E+0003	 1.53374042176871E-0001	
 1.00850000000000E+0003	 1.55507552236652E-0001	
 1.01050000000000E+0003	 1.57822562296434E-0001	
 1.01250000000000E+0003	 1.60268572356215E-0001	
 1.01450000000000E+0003	 1.62808582415997E-0001	
 1.01650000000000E+0003	 1.65451592475778E-0001	
 1.01850000000000E+0003	 1.68161602535560E-0001	
 1.02050000000000E+0003	 1.70897612595341E-0001	
 1.02250000000000E+0003	 1.73568622655123E-0001	
 1.02450000000000E+0003	 1.76169632714904E-0001	
 1.02650000000000E+0003	 1.78674642774686E-0001	
 1.02850000000000E+0003	 1.81066152834467E-0001	
 1.03050000000000E+0003	 1.83280662894249E-0001	
 1.03250000000000E+0003	 1.85311172954030E-0001	
 1.03450000000000E+0003	 1.87157683013812E-0001	
 1.03650000000000E+0003	 1.88819693073593E-0001	
 1.03850000000000E+0003	 1.90261203133375E-0001	
 1.04050000000000E+0003	 1.91434213193156E-0001	
 1.04250000000000E+0003	 1.92370723252938E-0001	
 1.04450000000000E+0003	 1.93177233312719E-0001	
 1.04650000000000E+0003	 1.94031243372501E-0001	
 1.04850000000000E+0003	 1.95010253432282E-0001	
 1.05050000000000E+0003	 1.96160263492063E-0001	
 1.05250000000000E+0003	 1.97362773551845E-0001	
 1.05450000000000E+0003	 1.98503783611626E-0001	
 1.05650000000000E+0003	 1.99494293671408E-0001	
 1.05850000000000E+0003	 2.00329803731189E-0001	
 1.06050000000000E+0003	 2.00930313790971E-0001	
 1.06250000000000E+0003	 2.01358323850752E-0001	
 1.06450000000000E+0003	 2.01748833910534E-0001	
 1.06650000000000E+0003	 2.02244843970315E-0001	
 1.06850000000000E+0003	 2.02840854030097E-0001	
 1.07050000000000E+0003	 2.03513864089878E-0001	
 1.07250000000000E+0003	 2.04191874149660E-0001	
 1.07450000000000E+0003	 2.04847884209441E-0001	
 1.07650000000000E+0003	 2.05445894269223E-0001	
 1.07850000000000E+0003	 2.05946404329004E-0001	
 1.08050000000000E+0003	 2.06290914388786E-0001	
 1.08250000000000E+0003	 2.06393424448567E-0001	
 1.08450000000000E+0003	 2.06161934508349E-0001	
 1.08650000000000E+0003	 2.05496444568130E-0001	
 1.08850000000000E+0003	 2.04342454627912E-0001	
 1.09050000000000E+0003	 2.02774964687693E-0001	
 1.09250000000000E+0003	 2.01050974747475E-0001	
 1.09450000000000E+0003	 1.99434984807256E-0001	
 1.09650000000000E+0003	 1.98030494867038E-0001	
 1.09850000000000E+0003	 1.96752004926819E-0001	
 1.10050000000000E+0003	 1.95461014986601E-0001	
 1.10250000000000E+0003	 1.94107525046382E-0001	
 1.10450000000000E+0003	 1.92686535106164E-0001	
 1.10650000000000E+0003	 1.91255045165945E-0001	
 1.10850000000000E+0003	 1.89896055225727E-0001	
 1.11050000000000E+0003	 1.88712565285508E-0001	
 1.11250000000000E+0003	 1.87690075345290E-0001	
 1.11450000000000E+0003	 1.86749585405071E-0001	
 1.11650000000000E+0003	 1.85713595464853E-0001	
 1.11850000000000E+0003	 1.84455105524634E-0001	
 1.12050000000000E+0003	 1.82863615584416E-0001	
 1.12250000000000E+0003	 1.81028625644197E-0001	
 1.12450000000000E+0003	 1.79000135703979E-0001	
 1.12650000000000E+0003	 1.76755645763760E-0001	
 1.12850000000000E+0003	 1.74246155823542E-0001	
 1.13050000000000E+0003	 1.71531165883323E-0001	
 1.13250000000000E+0003	 1.68765175943105E-0001	
 1.13450000000000E+0003	 1.66138186002886E-0001	
 1.13650000000000E+0003	 1.63737196062667E-0001	
 1.13850000000000E+0003	 1.61657706122449E-0001	
 1.14050000000000E+0003	 1.59967216182230E-0001	
 1.14250000000000E+0003	 1.58683726242012E-0001	
 1.14450000000000E+0003	 1.57748236301793E-0001	
 1.14650000000000E+0003	 1.57041746361575E-0001	
 1.14850000000000E+0003	 1.56418756421356E-0001	
 1.15050000000000E+0003	 1.55737266481138E-0001	
 1.15250000000000E+0003	 1.54934276540919E-0001	
 1.15450000000000E+0003	 1.53955286600701E-0001	
 1.15650000000000E+0003	 1.52810296660482E-0001	
 1.15850000000000E+0003	 1.51535806720264E-0001	
 1.16050000000000E+0003	 1.50217316780045E-0001	
 1.16250000000000E+0003	 1.48879326839827E-0001	
 1.16450000000000E+0003	 1.47555336899608E-0001	
 1.16650000000000E+0003	 1.46279346959390E-0001	
 1.16850000000000E+0003	 1.45092357019171E-0001	
 1.17050000000000E+0003	 1.43938367078953E-0001	
 1.17250000000000E+0003	 1.42692877138734E-0001	
 1.17450000000000E+0003	 1.41253387198516E-0001	
 1.17650000000000E+0003	 1.39696897258297E-0001	
 1.17850000000000E+0003	 1.38148407318079E-0001	
 1.18050000000000E+0003	 1.36760917377860E-0001	
 1.18250000000000E+0003	 1.35649427437642E-0001	
 1.18450000000000E+0003	 1.34871937497423E-0001	
 1.18650000000000E+0003	 1.34453447557205E-0001	
 1.18850000000000E+0003	 1.34454957616986E-0001	
 1.19050000000000E+0003	 1.34848467676768E-0001	
 1.19250000000000E+0003	 1.35623977736549E-0001	
 1.19450000000000E+0003	 1.36770487796331E-0001	
 1.19650000000000E+0003	 1.38289497856112E-0001	
 1.19850000000000E+0003	 1.40114507915894E-0001	
 1.20050000000000E+0003	 1.42208517975675E-0001	
 1.20250000000000E+0003	 1.44477028035457E-0001	
 1.20450000000000E+0003	 1.46862038095238E-0001	
 1.20650000000000E+0003	 1.49263548155020E-0001	
 1.20850000000000E+0003	 1.51658058214801E-0001	
 1.21050000000000E+0003	 1.54063568274583E-0001	
 1.21250000000000E+0003	 1.56636578334364E-0001	
 1.21450000000000E+0003	 1.59466588394146E-0001	
 1.21650000000000E+0003	 1.62480098453927E-0001	
 1.21850000000000E+0003	 1.65449108513709E-0001	
 1.22050000000000E+0003	 1.68089118573490E-0001	
 1.22250000000000E+0003	 1.70213628633271E-0001	
 1.22450000000000E+0003	 1.71900638693053E-0001	
 1.22650000000000E+0003	 1.73428648752834E-0001	
 1.22850000000000E+0003	 1.74921658812616E-0001	
 1.23050000000000E+0003	 1.76293168872397E-0001	
 1.23250000000000E+0003	 1.77449678932179E-0001	
 1.23450000000000E+0003	 1.78396188991960E-0001	
 1.23650000000000E+0003	 1.79137199051742E-0001	
 1.23850000000000E+0003	 1.79694709111523E-0001	
 1.24050000000000E+0003	 1.80053719171305E-0001	
 1.24250000000000E+0003	 1.80201729231086E-0001	
 1.24450000000000E+0003	 1.80090239290868E-0001	
 1.24650000000000E+0003	 1.79708749350649E-0001	
 1.24850000000000E+0003	 1.79001759410431E-0001	
 1.25050000000000E+0003	 1.77968269470212E-0001	
 1.25250000000000E+0003	 1.76637279529994E-0001	
 1.25450000000000E+0003	 1.75082289589775E-0001	
 1.25650000000000E+0003	 1.73415299649557E-0001	
 1.25850000000000E+0003	 1.71724309709338E-0001	
 1.26050000000000E+0003	 1.70047819769120E-0001	
 1.26250000000000E+0003	 1.68362329828901E-0001	
 1.26450000000000E+0003	 1.66671839888683E-0001	
 1.26650000000000E+0003	 1.65059349948464E-0001	
 1.26850000000000E+0003	 1.63663360008246E-0001	
 1.27050000000000E+0003	 1.62509870068027E-0001	
 1.27250000000000E+0003	 1.61623880127809E-0001	
 1.27450000000000E+0003	 1.60916390187590E-0001	
 1.27650000000000E+0003	 1.60378900247372E-0001	
 1.27850000000000E+0003	 1.59982910307153E-0001	
 1.28050000000000E+0003	 1.59734420366935E-0001	
 1.28250000000000E+0003	 1.59523930426716E-0001	
 1.28450000000000E+0003	 1.59224440486498E-0001	
 1.28650000000000E+0003	 1.58769950546279E-0001	
 1.28850000000000E+0003	 1.58362460606061E-0001	
 1.29050000000000E+0003	 1.58115470665842E-0001	
 1.29250000000000E+0003	 1.57887980725624E-0001	
 1.29450000000000E+0003	 1.57575490785405E-0001	
 1.29650000000000E+0003	 1.57261500845187E-0001	
 1.29850000000000E+0003	 1.57116010904968E-0001	
 1.30050000000000E+0003	 1.57075520964750E-0001	
 1.30250000000000E+0003	 1.57067531024531E-0001	
 1.30450000000000E+0003	 1.57061041084313E-0001	
 1.30650000000000E+0003	 1.57056051144094E-0001	
 1.30850000000000E+0003	 1.57058061203875E-0001	
 1.31050000000000E+0003	 1.56976571263657E-0001	
 1.31250000000000E+0003	 1.56701581323438E-0001	
 1.31450000000000E+0003	 1.56462091383220E-0001	
 1.31650000000000E+0003	 1.56188101443001E-0001	
 1.31850000000000E+0003	 1.55808111502783E-0001	
 1.32050000000000E+0003	 1.55334121562564E-0001	
 1.32250000000000E+0003	 1.54802631622346E-0001	
 1.32450000000000E+0003	 1.54267141682127E-0001	
 1.32650000000000E+0003	 1.53788651741909E-0001	
 1.32850000000000E+0003	 1.53433661801690E-0001	
 1.33050000000000E+0003	 1.53278671861472E-0001	
 1.33250000000000E+0003	 1.53339681921253E-0001	
 1.33450000000000E+0003	 1.53351191981035E-0001	
 1.33650000000000E+0003	 1.53094702040816E-0001	
 1.33850000000000E+0003	 1.52892212100598E-0001	
 1.34050000000000E+0003	 1.53459222160379E-0001	
 1.34250000000000E+0003	 1.54366232220161E-0001	
 1.34450000000000E+0003	 1.54693742279942E-0001	
 1.34650000000000E+0003	 1.54694752339724E-0001	
 1.34850000000000E+0003	 1.54759762399505E-0001	
 1.35050000000000E+0003	 1.54935272459287E-0001	
 1.35250000000000E+0003	 1.55264282519068E-0001	
 1.35450000000000E+0003	 1.55738792578850E-0001	
 1.35650000000000E+0003	 1.56334802638631E-0001	
 1.35850000000000E+0003	 1.56853812698413E-0001	
 1.36050000000000E+0003	 1.57182322758194E-0001	
 1.36250000000000E+0003	 1.57994332817976E-0001	
 1.36450000000000E+0003	 1.59994842877757E-0001	
 1.36650000000000E+0003	 1.62196352937539E-0001	
 1.36850000000000E+0003	 1.63823862997320E-0001	
 1.37050000000000E+0003	 1.65197873057102E-0001	
 1.37250000000000E+0003	 1.66445383116883E-0001	
 1.37450000000000E+0003	 1.68047893176665E-0001	
 1.37650000000000E+0003	 1.69779903236446E-0001	
 1.37850000000000E+0003	 1.71389413296228E-0001	
 1.38050000000000E+0003	 1.73425423356009E-0001	
 1.38250000000000E+0003	 1.75728933415791E-0001	
 1.38450000000000E+0003	 1.77803943475572E-0001	
 1.38650000000000E+0003	 1.79206953535354E-0001	
 1.38850000000000E+0003	 1.81346963595135E-0001	
 1.39050000000000E+0003	 1.84251973654917E-0001	
 1.39250000000000E+0003	 1.86425483714698E-0001	
 1.39450000000000E+0003	 1.88264993774479E-0001	
 1.39650000000000E+0003	 1.90398003834261E-0001	
 1.39850000000000E+0003	 1.92044513894042E-0001	
 1.40050000000000E+0003	 1.93106523953824E-0001	
 1.40250000000000E+0003	 1.93450034013605E-0001	
 1.40450000000000E+0003	 1.92923044073387E-0001	
 1.40650000000000E+0003	 1.92129554133168E-0001	
 1.40850000000000E+0003	 1.91177564192950E-0001	
 1.41050000000000E+0003	 1.89899074252731E-0001	
 1.41250000000000E+0003	 1.88655584312513E-0001	
 1.41450000000000E+0003	 1.87242094372294E-0001	
 1.41650000000000E+0003	 1.85269104432076E-0001	
 1.41850000000000E+0003	 1.82570114491857E-0001	
 1.42050000000000E+0003	 1.80504124551639E-0001	
 1.42250000000000E+0003	 1.79308634611420E-0001	
 1.42450000000000E+0003	 1.76956144671202E-0001	
 1.42650000000000E+0003	 1.74623654730983E-0001	
 1.42850000000000E+0003	 1.72936164790765E-0001	
 1.43050000000000E+0003	 1.71605674850546E-0001	
 1.43250000000000E+0003	 1.70814184910328E-0001	
 1.43450000000000E+0003	 1.70270194970109E-0001	
 1.43650000000000E+0003	 1.69940205029891E-0001	
 1.43850000000000E+0003	 1.71562215089672E-0001	
 1.44050000000000E+0003	 1.73512225149454E-0001	
 1.44250000000000E+0003	 1.74508235209235E-0001	
 1.44450000000000E+0003	 1.75438245269017E-0001	
 1.44650000000000E+0003	 1.76197755328798E-0001	
 1.44850000000000E+0003	 1.76888265388580E-0001	
 1.45050000000000E+0003	 1.77577275448361E-0001	
 1.45250000000000E+0003	 1.78228285508143E-0001	
 1.45450000000000E+0003	 1.77988295567924E-0001	
 1.45650000000000E+0003	 1.76755305627706E-0001	
 1.45850000000000E+0003	 1.76049315687487E-0001	
 1.46050000000000E+0003	 1.75500825747269E-0001	
 1.46250000000000E+0003	 1.74508335807050E-0001	
 1.46450000000000E+0003	 1.73305845866832E-0001	
 1.46650000000000E+0003	 1.71861355926613E-0001	
 1.46850000000000E+0003	 1.70778365986395E-0001	
 1.47050000000000E+0003	 1.69227376046176E-0001	
 1.47250000000000E+0003	 1.66651386105958E-0001	
 1.47450000000000E+0003	 1.63901396165739E-0001	
 1.47650000000000E+0003	 1.62122906225521E-0001	
 1.47850000000000E+0003	 1.61305916285302E-0001	
 1.48050000000000E+0003	 1.61192926345083E-0001	
 1.48250000000000E+0003	 1.61578436404865E-0001	
 1.48450000000000E+0003	 1.62646946464646E-0001	
 1.48650000000000E+0003	 1.64436456524428E-0001	
 1.48850000000000E+0003	 1.66352966584209E-0001	
 1.49050000000000E+0003	 1.68483976643991E-0001	
 1.49250000000000E+0003	 1.71323486703772E-0001	
 1.49450000000000E+0003	 1.74101496763554E-0001	
 1.49650000000000E+0003	 1.77482006823335E-0001	
 1.49850000000000E+0003	 1.81201016883117E-0001	
 1.50050000000000E+0003	 1.84102526942898E-0001	
 1.50250000000000E+0003	 1.87391537002680E-0001	
 1.50450000000000E+0003	 1.90861547062461E-0001	
 1.50650000000000E+0003	 1.95067557122243E-0001	
 1.50850000000000E+0003	 1.98299567182024E-0001	
 1.51050000000000E+0003	 2.02126077241806E-0001	
 1.51250000000000E+0003	 2.06662087301587E-0001	
 1.51450000000000E+0003	 2.11459597361369E-0001	
 1.51650000000000E+0003	 2.15842607421150E-0001	
 1.51850000000000E+0003	 2.18545117480932E-0001	
 1.52050000000000E+0003	 2.20147627540713E-0001	
 1.52250000000000E+0003	 2.23246637600495E-0001	
 1.52450000000000E+0003	 2.25886147660276E-0001	
 1.52650000000000E+0003	 2.28204657720058E-0001	
 1.52850000000000E+0003	 2.31454667779839E-0001	
 1.53050000000000E+0003	 2.34622177839621E-0001	
 1.53250000000000E+0003	 2.37940687899402E-0001	
 1.53450000000000E+0003	 2.41071697959184E-0001	
 1.53650000000000E+0003	 2.43822708018965E-0001	
 1.53850000000000E+0003	 2.47194218078747E-0001	
 1.54050000000000E+0003	 2.50867728138528E-0001	
 1.54250000000000E+0003	 2.51054238198310E-0001	
 1.54450000000000E+0003	 2.50564748258091E-0001	
 1.54650000000000E+0003	 2.50950258317873E-0001	
 1.54850000000000E+0003	 2.50968268377654E-0001	
 1.55050000000000E+0003	 2.50015778437436E-0001	
 1.55250000000000E+0003	 2.48733288497217E-0001	
 1.55450000000000E+0003	 2.47100298556999E-0001	
 1.55650000000000E+0003	 2.46353808616780E-0001	
 1.55850000000000E+0003	 2.44357318676562E-0001	
 1.56050000000000E+0003	 2.37858828736343E-0001	
 1.56250000000000E+0003	 2.35774338796125E-0001	
 1.56450000000000E+0003	 2.34325348855906E-0001	
 1.56650000000000E+0003	 2.31999858915687E-0001	
 1.56850000000000E+0003	 2.30135368975469E-0001	
 1.57050000000000E+0003	 2.27366379035250E-0001	
 1.57250000000000E+0003	 2.24870889095032E-0001	
 1.57450000000000E+0003	 2.22964899154813E-0001	
 1.57650000000000E+0003	 2.20448409214595E-0001	
 1.57850000000000E+0003	 2.18163419274376E-0001	
 1.58050000000000E+0003	 2.16547929334158E-0001	
 1.58250000000000E+0003	 2.14912939393939E-0001	
 1.58450000000000E+0003	 2.13743449453721E-0001	
 1.58650000000000E+0003	 2.13006959513502E-0001	
 1.58850000000000E+0003	 2.12711969573284E-0001	
 1.59050000000000E+0003	 2.12799979633065E-0001	
 1.59250000000000E+0003	 2.13390489692847E-0001	
 1.59450000000000E+0003	 2.14274999752628E-0001	
 1.59650000000000E+0003	 2.15270509812410E-0001	
 1.59850000000000E+0003	 2.16522519872191E-0001	
 1.60050000000000E+0003	 2.18274529931973E-0001	
 1.60250000000000E+0003	 2.20355539991754E-0001	
 1.60450000000000E+0003	 2.22766550051536E-0001	
 1.60650000000000E+0003	 2.25681060111317E-0001	
 1.60850000000000E+0003	 2.29219070171099E-0001	
 1.61050000000000E+0003	 2.33086580230880E-0001	
 1.61250000000000E+0003	 2.37557590290662E-0001	
 1.61450000000000E+0003	 2.42512100350443E-0001	
 1.61650000000000E+0003	 2.48000110410225E-0001	
 1.61850000000000E+0003	 2.53611120470006E-0001	
 1.62050000000000E+0003	 2.59348130529788E-0001	
 1.62250000000000E+0003	 2.65744640589569E-0001	
 1.62450000000000E+0003	 2.72080150649351E-0001	
 1.62650000000000E+0003	 2.77931660709132E-0001	
 1.62850000000000E+0003	 2.83579170768914E-0001	
 1.63050000000000E+0003	 2.88640680828695E-0001	
 1.63250000000000E+0003	 2.93735190888477E-0001	
 1.63450000000000E+0003	 2.99034200948258E-0001	
 1.63650000000000E+0003	 3.03304211008040E-0001	
 1.63850000000000E+0003	 3.05210221067821E-0001	
 1.64050000000000E+0003	 3.06479731127603E-0001	
 1.64250000000000E+0003	 3.07971741187384E-0001	
 1.64450000000000E+0003	 3.09606251247166E-0001	
 1.64650000000000E+0003	 3.12164761306947E-0001	
 1.64850000000000E+0003	 3.13822271366729E-0001	
 1.65050000000000E+0003	 3.13915281426510E-0001	
 1.65250000000000E+0003	 3.13930791486291E-0001	
 1.65450000000000E+0003	 3.13767301546073E-0001	
 1.65650000000000E+0003	 3.14205311605854E-0001	
 1.65850000000000E+0003	 3.13949821665636E-0001	
 1.66050000000000E+0003	 3.12976831725417E-0001	
 1.66250000000000E+0003	 3.11255841785199E-0001	
 1.66450000000000E+0003	 3.08323351844980E-0001	
 1.66650000000000E+0003	 3.05891861904762E-0001	
 1.66850000000000E+0003	 3.03764871964543E-0001	
 1.67050000000000E+0003	 3.00911382024325E-0001	
 1.67250000000000E+0003	 2.97583392084106E-0001	
 1.67450000000000E+0003	 2.93960902143888E-0001	
 1.67650000000000E+0003	 2.90220912203669E-0001	
 1.67850000000000E+0003	 2.87506922263451E-0001	
 1.68050000000000E+0003	 2.85160432323232E-0001	
 1.68250000000000E+0003	 2.83145942383014E-0001	
 1.68450000000000E+0003	 2.79283952442795E-0001	
 1.68650000000000E+0003	 2.75123462502577E-0001	
 1.68850000000000E+0003	 2.72554972562358E-0001	
 1.69050000000000E+0003	 2.69139982622140E-0001	
 1.69250000000000E+0003	 2.65666492681921E-0001	
 1.69450000000000E+0003	 2.61429002741703E-0001	
 1.69650000000000E+0003	 2.57713512801484E-0001	
 1.69850000000000E+0003	 2.54920522861266E-0001	
 1.70050000000000E+0003	 2.49792532921047E-0001	
 1.70250000000000E+0003	 2.46054042980829E-0001	
 1.70450000000000E+0003	 2.44191053040610E-0001	
 1.70650000000000E+0003	 2.40831563100392E-0001	
 1.70850000000000E+0003	 2.36897573160173E-0001	
 1.71050000000000E+0003	 2.33472583219955E-0001	
 1.71250000000000E+0003	 2.30408093279736E-0001	
 1.71450000000000E+0003	 2.27075103339518E-0001	
 1.71650000000000E+0003	 2.22604113399299E-0001	
 1.71850000000000E+0003	 2.16909623459081E-0001	
 1.72050000000000E+0003	 2.11845133518862E-0001	
 1.72250000000000E+0003	 2.07136643578644E-0001	
 1.72450000000000E+0003	 2.02370153638425E-0001	
 1.72650000000000E+0003	 1.98398163698207E-0001	
 1.72850000000000E+0003	 1.94911173757988E-0001	
 1.73050000000000E+0003	 1.91927683817770E-0001	
 1.73250000000000E+0003	 1.88503693877551E-0001	
 1.73450000000000E+0003	 1.85037703937333E-0001	
 1.73650000000000E+0003	 1.83725213997114E-0001	
 1.73850000000000E+0003	 1.82809724056895E-0001	
 1.74050000000000E+0003	 1.80554734116677E-0001	
 1.74250000000000E+0003	 1.77973244176458E-0001	
 1.74450000000000E+0003	 1.75882754236240E-0001	
 1.74650000000000E+0003	 1.74457264296021E-0001	
 1.74850000000000E+0003	 1.72289774355803E-0001	
 1.75050000000000E+0003	 1.68504784415584E-0001	
 1.75250000000000E+0003	 1.65526294475366E-0001	
 1.75450000000000E+0003	 1.63814804535147E-0001	
 1.75650000000000E+0003	 1.61099314594929E-0001	
 1.75850000000000E+0003	 1.58546324654710E-0001	
 1.76050000000000E+0003	 1.56112334714492E-0001	
 1.76250000000000E+0003	 1.53353344774273E-0001	
 1.76450000000000E+0003	 1.51126854834055E-0001	
 1.76650000000000E+0003	 1.48499364893836E-0001	
 1.76850000000000E+0003	 1.46496874953618E-0001	
 1.77050000000000E+0003	 1.46159885013399E-0001	
 1.77250000000000E+0003	 1.44448395073181E-0001	
 1.77450000000000E+0003	 1.41839905132962E-0001	
 1.77650000000000E+0003	 1.40071415192744E-0001	
 1.77850000000000E+0003	 1.38617425252525E-0001	
 1.78050000000000E+0003	 1.37267435312307E-0001	
 1.78250000000000E+0003	 1.35665445372088E-0001	
 1.78450000000000E+0003	 1.33898955431870E-0001	
 1.78650000000000E+0003	 1.32948465491651E-0001	
 1.78850000000000E+0003	 1.32377975551433E-0001	
 1.79050000000000E+0003	 1.31452985611214E-0001	
 1.79250000000000E+0003	 1.30450495670996E-0001	
 1.79450000000000E+0003	 1.29433505730777E-0001	
 1.79650000000000E+0003	 1.28630015790559E-0001	
 1.79850000000000E+0003	 1.27947525850340E-0001	
 1.80050000000000E+0003	 1.26481035910122E-0001	
 1.80250000000000E+0003	 1.25016045969903E-0001	
 1.80450000000000E+0003	 1.24525556029685E-0001	
 1.80650000000000E+0003	 1.23934566089466E-0001	
 1.80850000000000E+0003	 1.23314576149248E-0001	
 1.81050000000000E+0003	 1.22668586209029E-0001	
 1.81250000000000E+0003	 1.21708596268811E-0001	
 1.81450000000000E+0003	 1.20852606328592E-0001	
 1.81650000000000E+0003	 1.19981616388374E-0001	
 1.81850000000000E+0003	 1.19336126448155E-0001	
 1.82050000000000E+0003	 1.18908136507937E-0001	
 1.82250000000000E+0003	 1.18345146567718E-0001	
 1.82450000000000E+0003	 1.17610156627499E-0001	
 1.82650000000000E+0003	 1.17403166687281E-0001	
 1.82850000000000E+0003	 1.17507176747062E-0001	
 1.83050000000000E+0003	 1.16687186806844E-0001	
 1.83250000000000E+0003	 1.15545196866625E-0001	
 1.83450000000000E+0003	 1.14927706926407E-0001	
 1.83650000000000E+0003	 1.14500716986188E-0001	
 1.83850000000000E+0003	 1.14020227045970E-0001	
 1.84050000000000E+0003	 1.13547237105751E-0001	
 1.84250000000000E+0003	 1.12878247165533E-0001	
 1.84450000000000E+0003	 1.12146757225314E-0001	
 1.84650000000000E+0003	 1.11800267285096E-0001	
 1.84850000000000E+0003	 1.11491277344877E-0001	
 1.85050000000000E+0003	 1.11239287404659E-0001	
 1.85250000000000E+0003	 1.10932297464440E-0001	
 1.85450000000000E+0003	 1.10547307524222E-0001	
 1.85650000000000E+0003	 1.10128317584003E-0001	
 1.85850000000000E+0003	 1.09688327643785E-0001	
 1.86050000000000E+0003	 1.09267837703566E-0001	
 1.86250000000000E+0003	 1.09006347763348E-0001	
 1.86450000000000E+0003	 1.08977857823129E-0001	
 1.86650000000000E+0003	 1.09043367882911E-0001	
 1.86850000000000E+0003	 1.08563877942692E-0001	
 1.87050000000000E+0003	 1.07809888002474E-0001	
 1.87250000000000E+0003	 1.07517398062255E-0001	
 1.87450000000000E+0003	 1.07283908122037E-0001	
 1.87650000000000E+0003	 1.06984418181818E-0001	
 1.87850000000000E+0003	 1.06674928241600E-0001	
 1.88050000000000E+0003	 1.06435438301381E-0001	
 1.88250000000000E+0003	 1.06267948361163E-0001	
 1.88450000000000E+0003	 1.06052458420944E-0001	
 1.88650000000000E+0003	 1.05870968480726E-0001	
 1.88850000000000E+0003	 1.05601478540507E-0001	
 1.89050000000000E+0003	 1.05312988600289E-0001	
 1.89250000000000E+0003	 1.05130998660070E-0001	
 1.89450000000000E+0003	 1.04913008719852E-0001	
 1.89650000000000E+0003	 1.04657518779633E-0001	
 1.89850000000000E+0003	 1.04436028839415E-0001	
 1.90050000000000E+0003	 1.04211038899196E-0001	
 1.90250000000000E+0003	 1.04042048958978E-0001	
 1.90450000000000E+0003	 1.03887559018759E-0001	
 1.90650000000000E+0003	 1.03719569078541E-0001	
 1.90850000000000E+0003	 1.03522079138322E-0001	
 1.91050000000000E+0003	 1.03342589198103E-0001	
 1.91250000000000E+0003	 1.03150099257885E-0001	
 1.91450000000000E+0003	 1.03024109317666E-0001	
 1.91650000000000E+0003	 1.02748619377448E-0001	
 1.91850000000000E+0003	 1.02463129437229E-0001	
 1.92050000000000E+0003	 1.02409639497011E-0001	
 1.92250000000000E+0003	 1.02227149556792E-0001	
 1.92450000000000E+0003	 1.02123659616574E-0001	
 1.92650000000000E+0003	 1.02091669676355E-0001	
 1.92850000000000E+0003	 1.01963679736137E-0001	
 1.93050000000000E+0003	 1.01840189795918E-0001	
 1.93250000000000E+0003	 1.01697699855700E-0001	
 1.93450000000000E+0003	 1.01599709915481E-0001	
 1.93650000000000E+0003	 1.01513719975263E-0001	
 1.93850000000000E+0003	 1.01449230035044E-0001	
 1.94050000000000E+0003	 1.01306240094826E-0001	
 1.94250000000000E+0003	 1.01131750154607E-0001	
 1.94450000000000E+0003	 1.01174260214389E-0001	
 1.94650000000000E+0003	 1.01182270274170E-0001	
 1.94850000000000E+0003	 1.01040780333952E-0001	
 1.95050000000000E+0003	 1.00935790393733E-0001	
 1.95250000000000E+0003	 1.00851300453515E-0001	
 1.95450000000000E+0003	 1.00768310513296E-0001	
 1.95650000000000E+0003	 1.00694320573078E-0001	
 1.95850000000000E+0003	 1.00648830632859E-0001	
 1.96050000000000E+0003	 1.00589340692641E-0001	
 1.96250000000000E+0003	 1.00545350752422E-0001	
 1.96450000000000E+0003	 1.00465860812204E-0001	
 1.96650000000000E+0003	 1.00309370871985E-0001	
 1.96850000000000E+0003	 1.00249380931767E-0001	
 1.97050000000000E+0003	 1.00292390991548E-0001	
 1.97250000000000E+0003	 1.00261901051330E-0001	
 1.97450000000000E+0003	 1.00223411111111E-0001	
 1.97650000000000E+0003	 1.00171421170893E-0001	
 1.97850000000000E+0003	 1.00128931230674E-0001	
 1.98050000000000E+0003	 1.00084441290456E-0001	
 1.98250000000000E+0003	 1.00053451350237E-0001	
 1.98450000000000E+0003	 1.00024461410019E-0001	
 1.98650000000000E+0003	 9.99594714698000E-0002	
 1.98850000000000E+0003	 9.98834815295815E-0002	
 1.99050000000000E+0003	 9.97744915893630E-0002	
 1.99250000000000E+0003	 9.96895016491445E-0002	
 1.99450000000000E+0003	 9.98200117089260E-0002	
 1.99650000000000E+0003	 9.98890217687075E-0002	
 1.99850000000000E+0003	 9.98780318284890E-0002	
 2.00050000000000E+0003	 9.98545418882705E-0002	
 2.00250000000000E+0003	 9.98330519480519E-0002	
 2.00450000000000E+0003	 9.98155620078334E-0002	
 2.00650000000000E+0003	 9.97980720676149E-0002	
 2.00850000000000E+0003	 9.97935821273964E-0002	
 2.01050000000000E+0003	 9.98100921871779E-0002	
 2.01250000000000E+0003	 9.98216022469594E-0002	
 2.01450000000000E+0003	 9.97831123067409E-0002	
 2.01650000000000E+0003	 9.96691223665224E-0002	
 2.01850000000000E+0003	 9.96896324263039E-0002	
 2.02050000000000E+0003	 9.98016424860853E-0002	
 2.02250000000000E+0003	 9.98446525458668E-0002	
 2.02450000000000E+0003	 9.98766626056483E-0002	
 2.02650000000000E+0003	 9.99151726654298E-0002	
 2.02850000000000E+0003	 9.99361827252113E-0002	
 2.03050000000000E+0003	 9.99566927849928E-0002	
 2.03250000000000E+0003	 9.99697028447743E-0002	
 2.03450000000000E+0003	 9.99847129045558E-0002	
 2.03650000000000E+0003	 9.99987229643373E-0002	
 2.03850000000000E+0003	 9.99957330241187E-0002	
 2.04050000000000E+0003	 9.99482430839002E-0002	
 2.04250000000000E+0003	 9.99747531436817E-0002	
 2.04450000000000E+0003	 1.00051263203463E-0001	
 2.04650000000000E+0003	 1.00076773263245E-0001	
 2.04850000000000E+0003	 1.00087783323026E-0001	
 2.05050000000000E+0003	 1.00101793382808E-0001	
 2.05250000000000E+0003	 1.00115303442589E-0001	
 2.05450000000000E+0003	 1.00130313502371E-0001	
 2.05650000000000E+0003	 1.00144823562152E-0001	
 2.05850000000000E+0003	 1.00157333621934E-0001	
 2.06050000000000E+0003	 1.00159843681715E-0001	
 2.06250000000000E+0003	 1.00124853741497E-0001	
 2.06450000000000E+0003	 1.00043363801278E-0001	
 2.06650000000000E+0003	 1.00078873861060E-0001	
 2.06850000000000E+0003	 1.00167383920841E-0001	
 2.07050000000000E+0003	 1.00193393980623E-0001	
 2.07250000000000E+0003	 1.00192404040404E-0001	
 2.07450000000000E+0003	 1.00190914100186E-0001	
 2.07650000000000E+0003	 1.00185424159967E-0001	
 2.07850000000000E+0003	 1.00185434219749E-0001	
 2.08050000000000E+0003	 1.00186944279530E-0001	
 2.08250000000000E+0003	 1.00193954339311E-0001	
 2.08450000000000E+0003	 1.00187464399093E-0001	
 2.08650000000000E+0003	 1.00169474458874E-0001	
 2.08850000000000E+0003	 1.00122484518656E-0001	
 2.09050000000000E+0003	 1.00111994578437E-0001	
 2.09250000000000E+0003	 1.00150504638219E-0001	
 2.09450000000000E+0003	 1.00170514698000E-0001	
 2.09650000000000E+0003	 1.00156024757782E-0001	
 2.09850000000000E+0003	 1.00147034817563E-0001	
 2.10050000000000E+0003	 1.00132044877345E-0001	
 2.10250000000000E+0003	 1.00118554937126E-0001	
 2.10450000000000E+0003	 1.00101064996908E-0001	
 2.10650000000000E+0003	 1.00086575056689E-0001	
 2.10850000000000E+0003	 1.00065085116471E-0001	
 2.11050000000000E+0003	 1.00041095176252E-0001	
 2.11250000000000E+0003	 1.00002105236034E-0001	
 2.11450000000000E+0003	 9.99596152958153E-0002	
 2.11650000000000E+0003	 9.99471253555968E-0002	
 2.11850000000000E+0003	 9.99431354153783E-0002	
 2.12050000000000E+0003	 9.99166454751598E-0002	
 2.12250000000000E+0003	 9.98846555349412E-0002	
 2.12450000000000E+0003	 9.98521655947227E-0002	
 2.12650000000000E+0003	 9.98231756545042E-0002	
 2.12850000000000E+0003	 9.97916857142857E-0002	
 2.13050000000000E+0003	 9.97586957740672E-0002	
 2.13250000000000E+0003	 9.97207058338487E-0002	
 2.13450000000000E+0003	 9.96692158936302E-0002	
 2.13650000000000E+0003	 9.96112259534117E-0002	
 2.13850000000000E+0003	 9.95757360131932E-0002	
 2.14050000000000E+0003	 9.95437460729746E-0002	
 2.14250000000000E+0003	 9.95107561327561E-0002	
 2.14450000000000E+0003	 9.94592661925376E-0002	
 2.14650000000000E+0003	 9.94132762523191E-0002	
 2.14850000000000E+0003	 9.93652863121006E-0002	
 2.15050000000000E+0003	 9.93157963718821E-0002	
 2.15250000000000E+0003	 9.92568064316636E-0002	
 2.15450000000000E+0003	 9.92038164914451E-0002	
 2.15650000000000E+0003	 9.91458265512266E-0002	
 2.15850000000000E+0003	 9.90888366110080E-0002	
 2.16050000000000E+0003	 9.90178466707895E-0002	
 2.16250000000000E+0003	 9.89548567305710E-0002	
 2.16450000000000E+0003	 9.89008667903525E-0002	
 2.16650000000000E+0003	 9.88528768501340E-0002	
 2.16850000000000E+0003	 9.88033869099155E-0002	
 2.17050000000000E+0003	 9.87468969696970E-0002	
 2.17250000000000E+0003	 9.86699070294785E-0002	
 2.17450000000000E+0003	 9.85989170892599E-0002	
 2.17650000000000E+0003	 9.85344271490414E-0002	
 2.17850000000000E+0003	 9.84764372088229E-0002	
 2.18050000000000E+0003	 9.84169472686044E-0002	
 2.18250000000000E+0003	 9.83579573283859E-0002	
 2.18450000000000E+0003	 9.82979673881674E-0002	
 2.18650000000000E+0003	 9.82404774479489E-0002	
 2.18850000000000E+0003	 9.81844875077304E-0002	
 2.19050000000000E+0003	 9.81294975675119E-0002	
 2.19250000000000E+0003	 9.80710076272933E-0002	
 2.19450000000000E+0003	 9.80140176870748E-0002	
 2.19650000000000E+0003	 9.79555277468563E-0002	
 2.19850000000000E+0003	 9.79010378066378E-0002	
 2.20050000000000E+0003	 9.78445478664193E-0002	
 2.20250000000000E+0003	 9.77885579262008E-0002	
 2.20450000000000E+0003	 9.77270679859823E-0002	
 2.20650000000000E+0003	 9.76725780457638E-0002	
 2.20850000000000E+0003	 9.76200881055452E-0002	
 2.21050000000000E+0003	 9.75705981653267E-0002	
 2.21250000000000E+0003	 9.75176082251082E-0002	
 2.21450000000000E+0003	 9.74716182848897E-0002	
 2.21650000000000E+0003	 9.74186283446712E-0002	
 2.21850000000000E+0003	 9.73716384044527E-0002	
 2.22050000000000E+0003	 9.73186484642342E-0002	
 2.22250000000000E+0003	 9.72726585240157E-0002	
 2.22450000000000E+0003	 9.72261685837972E-0002	
 2.22650000000000E+0003	 9.71856786435786E-0002	
 2.22850000000000E+0003	 9.71396887033601E-0002	
 2.23050000000000E+0003	 9.70976987631416E-0002	
 2.23250000000000E+0003	 9.70562088229231E-0002	
 2.23450000000000E+0003	 9.70187188827046E-0002	
 2.23650000000000E+0003	 9.69792289424861E-0002	
 2.23850000000000E+0003	 9.69422390022676E-0002	
 2.24050000000000E+0003	 9.69042490620491E-0002	
 2.24250000000000E+0003	 9.68727591218306E-0002	
 2.24450000000000E+0003	 9.68407691816120E-0002	
 2.24650000000000E+0003	 9.68057792413935E-0002	
 2.24850000000000E+0003	 9.67757893011750E-0002	
 2.25050000000000E+0003	 9.67492993609565E-0002	
 2.25250000000000E+0003	 9.67218094207380E-0002	
 2.25450000000000E+0003	 9.66983194805195E-0002	
 2.25650000000000E+0003	 9.66753295403010E-0002	
 2.25850000000000E+0003	 9.66463396000825E-0002	
 2.26050000000000E+0003	 9.66173496598639E-0002	
 2.26250000000000E+0003	 9.65943597196454E-0002	
 2.26450000000000E+0003	 9.65723697794269E-0002	
 2.26650000000000E+0003	 9.65508798392084E-0002	
 2.26850000000000E+0003	 9.65333898989899E-0002	
 2.27050000000000E+0003	 9.65213999587714E-0002	
 2.27250000000000E+0003	 9.65054100185529E-0002	
 2.27450000000000E+0003	 9.64984200783344E-0002	
 2.27650000000000E+0003	 9.64894301381159E-0002	
 2.27850000000000E+0003	 9.64794401978973E-0002	
 2.28050000000000E+0003	 9.64724502576788E-0002	
 2.28250000000000E+0003	 9.64749603174603E-0002	
 2.28450000000000E+0003	 9.64814703772418E-0002	
 2.28650000000000E+0003	 9.64974804370233E-0002	
 2.28850000000000E+0003	 9.65144904968048E-0002	
 2.29050000000000E+0003	 9.65355005565863E-0002	
 2.29250000000000E+0003	 9.65580106163678E-0002	
 2.29450000000000E+0003	 9.65885206761492E-0002	
 2.29650000000000E+0003	 9.66175307359307E-0002	
 2.29850000000000E+0003	 9.66470407957122E-0002	
 2.30050000000000E+0003	 9.66785508554937E-0002	
 2.30250000000000E+0003	 9.67105609152752E-0002	
 2.30450000000000E+0003	 9.67510709750567E-0002	
 2.30650000000000E+0003	 9.68040810348382E-0002	
 2.30850000000000E+0003	 9.68570910946197E-0002	
 2.31050000000000E+0003	 9.68991011544012E-0002	
 2.31250000000000E+0003	 9.69201112141826E-0002	
 2.31450000000000E+0003	 9.69376212739641E-0002	
 2.31650000000000E+0003	 9.69756313337456E-0002	
 2.31850000000000E+0003	 9.70446413935271E-0002	
 2.32050000000000E+0003	 9.70961514533086E-0002	
 2.32250000000000E+0003	 9.71176615130901E-0002	
 2.32450000000000E+0003	 9.71131715728716E-0002	
 2.32650000000000E+0003	 9.71076816326531E-0002	
 2.32850000000000E+0003	 9.71376916924345E-0002	
 2.33050000000000E+0003	 9.71807017522160E-0002	
 2.33250000000000E+0003	 9.71787118119975E-0002	
 2.33450000000000E+0003	 9.71767218717790E-0002	
 2.33650000000000E+0003	 9.72062319315605E-0002	
 2.33850000000000E+0003	 9.72417419913420E-0002	
 2.34050000000000E+0003	 9.72467520511235E-0002	
 2.34250000000000E+0003	 9.72502621109050E-0002	
 2.34450000000000E+0003	 9.72627721706865E-0002	
 2.34650000000000E+0003	 9.73092822304679E-0002	
 2.34850000000000E+0003	 9.73112922902494E-0002	
 2.35050000000000E+0003	 9.73008023500309E-0002	
 2.35250000000000E+0003	 9.73163124098124E-0002	
 2.35450000000000E+0003	 9.73428224695939E-0002	
 2.35650000000000E+0003	 9.73783325293754E-0002	
 2.35850000000000E+0003	 9.74243425891569E-0002	
 2.36050000000000E+0003	 9.74388526489384E-0002	
 2.36250000000000E+0003	 9.74368627087199E-0002	
 2.36450000000000E+0003	 9.74423727685013E-0002	
 2.36650000000000E+0003	 9.74393828282828E-0002	
 2.36850000000000E+0003	 9.74473928880643E-0002	
 2.37050000000000E+0003	 9.74774029478458E-0002	
 2.37250000000000E+0003	 9.75289130076273E-0002	
 2.37450000000000E+0003	 9.75864230674088E-0002	
 2.37650000000000E+0003	 9.76504331271903E-0002	
 2.37850000000000E+0003	 9.77184431869718E-0002	
 2.38050000000000E+0003	 9.77819532467532E-0002	
 2.38250000000000E+0003	 9.78204633065347E-0002	
 2.38450000000000E+0003	 9.78414733663162E-0002	
 2.38650000000000E+0003	 9.78669834260977E-0002	
 2.38850000000000E+0003	 9.79104934858792E-0002	
 2.39050000000000E+0003	 9.79705035456607E-0002	
 2.39250000000000E+0003	 9.80430136054422E-0002	
 2.39450000000000E+0003	 9.81280236652237E-0002	
 2.39650000000000E+0003	 9.82125337250052E-0002	
 2.39850000000000E+0003	 9.83000437847866E-0002	
 2.40050000000000E+0003	 9.83910538445681E-0002	
 2.40250000000000E+0003	 9.84900639043496E-0002	
 2.40450000000000E+0003	 9.85900739641311E-0002	
 2.40650000000000E+0003	 9.86930840239126E-0002	
 2.40850000000000E+0003	 9.87965940836941E-0002	
 2.41050000000000E+0003	 9.89046041434756E-0002	
 2.41250000000000E+0003	 9.90151142032571E-0002	
 2.41450000000000E+0003	 9.91286242630385E-0002	
 2.41650000000000E+0003	 9.92421343228200E-0002	
 2.41850000000000E+0003	 9.93561443826015E-0002	
 2.42050000000000E+0003	 9.94761544423830E-0002	
 2.42250000000000E+0003	 9.96051645021645E-0002	
 2.42450000000000E+0003	 9.97356745619460E-0002	
 2.42650000000000E+0003	 9.98651846217275E-0002	
 2.42850000000000E+0003	 9.99986946815090E-0002	
 2.43050000000000E+0003	 1.00133204741290E-0001	
 2.43250000000000E+0003	 1.00266714801072E-0001	
 2.43450000000000E+0003	 1.00401224860853E-0001	
 2.43650000000000E+0003	 1.00538234920635E-0001	
 2.43850000000000E+0003	 1.00677744980416E-0001	
 2.44050000000000E+0003	 1.00818255040198E-0001	
 2.44250000000000E+0003	 1.00960765099979E-0001	
 2.44450000000000E+0003	 1.01100775159761E-0001	
 2.44650000000000E+0003	 1.01241285219542E-0001	
 2.44850000000000E+0003	 1.01381295279324E-0001	
 2.45050000000000E+0003	 1.01527305339105E-0001	
 2.45250000000000E+0003	 1.01672315398887E-0001	
 2.45450000000000E+0003	 1.01820325458668E-0001	
 2.45650000000000E+0003	 1.01969835518450E-0001	
 2.45850000000000E+0003	 1.02124845578231E-0001	
 2.46050000000000E+0003	 1.02279355638013E-0001	
 2.46250000000000E+0003	 1.02438365697794E-0001	
 2.46450000000000E+0003	 1.02600375757576E-0001	
 2.46650000000000E+0003	 1.02766885817357E-0001	
 2.46850000000000E+0003	 1.02932895877139E-0001	
 2.47050000000000E+0003	 1.03104405936920E-0001	
 2.47250000000000E+0003	 1.03280415996702E-0001	
 2.47450000000000E+0003	 1.03456426056483E-0001	
 2.47650000000000E+0003	 1.03634436116265E-0001	
 2.47850000000000E+0003	 1.03816946176046E-0001	
 2.48050000000000E+0003	 1.03998956235828E-0001	
 2.48250000000000E+0003	 1.04181966295609E-0001	
 2.48450000000000E+0003	 1.04367976355391E-0001	
 2.48650000000000E+0003	 1.04550986415172E-0001	
 2.48850000000000E+0003	 1.04733996474954E-0001	
 2.49050000000000E+0003	 1.04921006534735E-0001	
 2.49250000000000E+0003	 1.05111016594517E-0001	
 2.49450000000000E+0003	 1.05301026654298E-0001	
 2.49650000000000E+0003	 1.05494036714080E-0001	
 2.49850000000000E+0003	 1.05688546773861E-0001	
 2.50050000000000E+0003	 1.05879056833643E-0001	
 2.50250000000000E+0003	 1.06069066893424E-0001	
 2.50450000000000E+0003	 1.06263576953206E-0001	
 2.50650000000000E+0003	 1.06454087012987E-0001	
 2.50850000000000E+0003	 1.06640097072769E-0001	
 2.51050000000000E+0003	 1.06822107132550E-0001	
 2.51250000000000E+0003	 1.06998617192331E-0001	
 2.51450000000000E+0003	 1.07168627252113E-0001	
 2.51650000000000E+0003	 1.07333137311894E-0001	
 2.51850000000000E+0003	 1.07498147371676E-0001	
 2.52050000000000E+0003	 1.07658657431457E-0001	
 2.52250000000000E+0003	 1.07814667491239E-0001	
 2.52450000000000E+0003	 1.07968677551020E-0001	
 2.52650000000000E+0003	 1.08125687610802E-0001	
 2.52850000000000E+0003	 1.08280197670583E-0001	
 2.53050000000000E+0003	 1.08432707730365E-0001	
 2.53250000000000E+0003	 1.08585217790146E-0001	
 2.53450000000000E+0003	 1.08735727849928E-0001	
 2.53650000000000E+0003	 1.08883737909709E-0001	
 2.53850000000000E+0003	 1.09037247969491E-0001	
 2.54050000000000E+0003	 1.09191258029272E-0001	
 2.54250000000000E+0003	 1.09343268089054E-0001	
 2.54450000000000E+0003	 1.09495778148835E-0001	
 2.54650000000000E+0003	 1.09649288208617E-0001	
 2.54850000000000E+0003	 1.09806298268398E-0001	
 2.55050000000000E+0003	 1.09964808328180E-0001	
 2.55250000000000E+0003	 1.10123318387961E-0001	
 2.55450000000000E+0003	 1.10280828447743E-0001	
 2.55650000000000E+0003	 1.10438838507524E-0001	
 2.55850000000000E+0003	 1.10596848567306E-0001	
 2.56050000000000E+0003	 1.10754858627087E-0001	
 2.56250000000000E+0003	 1.10914368686869E-0001	
 2.56450000000000E+0003	 1.11075378746650E-0001	
 2.56650000000000E+0003	 1.11235388806432E-0001	
 2.56850000000000E+0003	 1.11396398866213E-0001	
 2.57050000000000E+0003	 1.11560408925995E-0001	
 2.57250000000000E+0003	 1.11728918985776E-0001	
 2.57450000000000E+0003	 1.11904429045558E-0001	
 2.57650000000000E+0003	 1.12081939105339E-0001	
 2.57850000000000E+0003	 1.12266449165121E-0001	
 2.58050000000000E+0003	 1.12458459224902E-0001	
 2.58250000000000E+0003	 1.12653969284684E-0001	
 2.58450000000000E+0003	 1.12847479344465E-0001	
 2.58650000000000E+0003	 1.13046989404247E-0001	
 2.58850000000000E+0003	 1.13254499464028E-0001	
 2.59050000000000E+0003	 1.13466509523810E-0001	
 2.59250000000000E+0003	 1.13679019583591E-0001	
 2.59450000000000E+0003	 1.13897029643373E-0001	
 2.59650000000000E+0003	 1.14116539703154E-0001	
 2.59850000000000E+0003	 1.14336049762935E-0001	
 2.60050000000000E+0003	 1.14562059822717E-0001	
 2.60250000000000E+0003	 1.14788569882498E-0001	
 2.60450000000000E+0003	 1.15011079942280E-0001	
 2.60650000000000E+0003	 1.15232090002061E-0001	
 2.60850000000000E+0003	 1.15454600061843E-0001	
 2.61050000000000E+0003	 1.15677610121624E-0001	
 2.61250000000000E+0003	 1.15898120181406E-0001	
 2.61450000000000E+0003	 1.16112130241187E-0001	
 2.61650000000000E+0003	 1.16325140300969E-0001	
 2.61850000000000E+0003	 1.16539150360750E-0001	
 2.62050000000000E+0003	 1.16749660420532E-0001	
 2.62250000000000E+0003	 1.16955170480313E-0001	
 2.62450000000000E+0003	 1.17160180540095E-0001	
 2.62650000000000E+0003	 1.17362190599876E-0001	
 2.62850000000000E+0003	 1.17561200659658E-0001	
 2.63050000000000E+0003	 1.17757710719439E-0001	
 2.63250000000000E+0003	 1.17951220779221E-0001	
 2.63450000000000E+0003	 1.18144730839002E-0001	
 2.63650000000000E+0003	 1.18335740898784E-0001	
 2.63850000000000E+0003	 1.18525250958565E-0001	
 2.64050000000000E+0003	 1.18712261018347E-0001	
 2.64250000000000E+0003	 1.18895771078128E-0001	
 2.64450000000000E+0003	 1.19078281137910E-0001	
 2.64650000000000E+0003	 1.19266791197691E-0001	
 2.64850000000000E+0003	 1.19454801257473E-0001	
 2.65050000000000E+0003	 1.19640811317254E-0001	
 2.65250000000000E+0003	 1.19828321377036E-0001	
 2.65450000000000E+0003	 1.20015331436817E-0001	
 2.65650000000000E+0003	 1.20203841496599E-0001	
 2.65850000000000E+0003	 1.20394851556380E-0001	
 2.66050000000000E+0003	 1.20591861616162E-0001	
 2.66250000000000E+0003	 1.20788371675943E-0001	
 2.66450000000000E+0003	 1.20984881735725E-0001	
 2.66650000000000E+0003	 1.21185891795506E-0001	
 2.66850000000000E+0003	 1.21391901855288E-0001	
 2.67050000000000E+0003	 1.21602911915069E-0001	
 2.67250000000000E+0003	 1.21822421974851E-0001	
 2.67450000000000E+0003	 1.22043432034632E-0001	
 2.67650000000000E+0003	 1.22261942094414E-0001	
 2.67850000000000E+0003	 1.22485452154195E-0001	
 2.68050000000000E+0003	 1.22706962213977E-0001	
 2.68250000000000E+0003	 1.22918972273758E-0001	
 2.68450000000000E+0003	 1.23129982333539E-0001	
 2.68650000000000E+0003	 1.23353492393321E-0001	
 2.68850000000000E+0003	 1.23581502453102E-0001	
 2.69050000000000E+0003	 1.23809512512884E-0001	
 2.69250000000000E+0003	 1.24040522572665E-0001	
 2.69450000000000E+0003	 1.24280032632447E-0001	
 2.69650000000000E+0003	 1.24523042692228E-0001	
 2.69850000000000E+0003	 1.24775052752010E-0001	
 2.70050000000000E+0003	 1.25035562811791E-0001	
 2.70250000000000E+0003	 1.25304572871573E-0001	
 2.70450000000000E+0003	 1.25581582931354E-0001	
 2.70650000000000E+0003	 1.25870592991136E-0001	
 2.70850000000000E+0003	 1.26172603050917E-0001	
 2.71050000000000E+0003	 1.26485113110699E-0001	
 2.71250000000000E+0003	 1.26803623170480E-0001	
 2.71450000000000E+0003	 1.27136633230262E-0001	
 2.71650000000000E+0003	 1.27480143290043E-0001	
 2.71850000000000E+0003	 1.27831653349825E-0001	
 2.72050000000000E+0003	 1.28194163409606E-0001	
 2.72250000000000E+0003	 1.28562173469388E-0001	
 2.72450000000000E+0003	 1.28926683529169E-0001	
 2.72650000000000E+0003	 1.29294693588951E-0001	
 2.72850000000000E+0003	 1.29646203648732E-0001	
 2.73050000000000E+0003	 1.29987713708514E-0001	
 2.73250000000000E+0003	 1.30332723768295E-0001	
 2.73450000000000E+0003	 1.30675733828077E-0001	
 2.73650000000000E+0003	 1.31019243887858E-0001	
 2.73850000000000E+0003	 1.31354253947640E-0001	
 2.74050000000000E+0003	 1.31679264007421E-0001	
 2.74250000000000E+0003	 1.32000274067203E-0001	
 2.74450000000000E+0003	 1.32322284126984E-0001	
 2.74650000000000E+0003	 1.32651794186766E-0001	
 2.74850000000000E+0003	 1.32975804246547E-0001	
 2.75050000000000E+0003	 1.33281814306329E-0001	
 2.75250000000000E+0003	 1.33582824366110E-0001	
 2.75450000000000E+0003	 1.33901834425892E-0001	
 2.75650000000000E+0003	 1.34234344485673E-0001	
 2.75850000000000E+0003	 1.34568354545455E-0001	
 2.76050000000000E+0003	 1.34907864605236E-0001	
 2.76250000000000E+0003	 1.35253374665018E-0001	
 2.76450000000000E+0003	 1.35599384724799E-0001	
 2.76650000000000E+0003	 1.35948894784580E-0001	
 2.76850000000000E+0003	 1.36302904844362E-0001	
 2.77050000000000E+0003	 1.36657914904143E-0001	
 2.77250000000000E+0003	 1.37024924963925E-0001	
 2.77450000000000E+0003	 1.37408435023706E-0001	
 2.77650000000000E+0003	 1.37777445083488E-0001	
 2.77850000000000E+0003	 1.38131955143269E-0001	
 2.78050000000000E+0003	 1.38504965203051E-0001	
 2.78250000000000E+0003	 1.38895975262832E-0001	
 2.78450000000000E+0003	 1.39293485322614E-0001	
 2.78650000000000E+0003	 1.39705495382395E-0001	
 2.78850000000000E+0003	 1.40144505442177E-0001	
 2.79050000000000E+0003	 1.40581015501958E-0001	
 2.79250000000000E+0003	 1.41001525561740E-0001	
 2.79450000000000E+0003	 1.41434035621521E-0001	
 2.79650000000000E+0003	 1.41890545681303E-0001	
 2.79850000000000E+0003	 1.42361055741084E-0001	
 2.80050000000000E+0003	 1.42816565800866E-0001	
 2.80250000000000E+0003	 1.43272075860647E-0001	
 2.80450000000000E+0003	 1.43749085920429E-0001	
 2.80650000000000E+0003	 1.44239595980210E-0001	
 2.80850000000000E+0003	 1.44749106039992E-0001	
 2.81050000000000E+0003	 1.45267116099773E-0001	
 2.81250000000000E+0003	 1.45773126159555E-0001	
 2.81450000000000E+0003	 1.46285136219336E-0001	
 2.81650000000000E+0003	 1.46815146279118E-0001	
 2.81850000000000E+0003	 1.47357656338899E-0001	
 2.82050000000000E+0003	 1.47915666398681E-0001	
 2.82250000000000E+0003	 1.48488176458462E-0001	
 2.82450000000000E+0003	 1.49081186518244E-0001	
 2.82650000000000E+0003	 1.49695196578025E-0001	
 2.82850000000000E+0003	 1.50338206637807E-0001	
 2.83050000000000E+0003	 1.51023716697588E-0001	
 2.83250000000000E+0003	 1.51764226757370E-0001	
 2.83450000000000E+0003	 1.52569236817151E-0001	
 2.83650000000000E+0003	 1.53481246876933E-0001	
 2.83850000000000E+0003	 1.54551756936714E-0001	
 2.84050000000000E+0003	 1.55787266996496E-0001	
 2.84250000000000E+0003	 1.57318277056277E-0001	
 2.84450000000000E+0003	 1.59346787116059E-0001	
 2.84650000000000E+0003	 1.61915797175840E-0001	
 2.84850000000000E+0003	 1.64692307235622E-0001	
 2.85050000000000E+0003	 1.67038317295403E-0001	
 2.85250000000000E+0003	 1.68576327355184E-0001	
 2.85450000000000E+0003	 1.69394837414966E-0001	
 2.85650000000000E+0003	 1.69748347474747E-0001	
 2.85850000000000E+0003	 1.69903857534529E-0001	
 2.86050000000000E+0003	 1.70071367594310E-0001	
 2.86250000000000E+0003	 1.70423377654092E-0001	
 2.86450000000000E+0003	 1.71093887713873E-0001	
 2.86650000000000E+0003	 1.72073397773655E-0001	
 2.86850000000000E+0003	 1.73242407833436E-0001	
 2.87050000000000E+0003	 1.74452417893218E-0001	
 2.87250000000000E+0003	 1.75513427952999E-0001	
 2.87450000000000E+0003	 1.76171438012781E-0001	
 2.87650000000000E+0003	 1.76383448072562E-0001	
 2.87850000000000E+0003	 1.76381458132344E-0001	
 2.88050000000000E+0003	 1.76334968192125E-0001	
 2.88250000000000E+0003	 1.76346978251907E-0001	
 2.88450000000000E+0003	 1.76503988311688E-0001	
 2.88650000000000E+0003	 1.76849998371470E-0001	
 2.88850000000000E+0003	 1.77394008431251E-0001	
 2.89050000000000E+0003	 1.78111518491033E-0001	
 2.89250000000000E+0003	 1.78970528550814E-0001	
 2.89450000000000E+0003	 1.79951038610596E-0001	
 2.89650000000000E+0003	 1.81001548670377E-0001	
 2.89850000000000E+0003	 1.82071058730159E-0001	
 2.90050000000000E+0003	 1.83203068789940E-0001	
 2.90250000000000E+0003	 1.84439078849722E-0001	
 2.90450000000000E+0003	 1.85793088909503E-0001	
 2.90650000000000E+0003	 1.87301598969285E-0001	
 2.90850000000000E+0003	 1.89058109029066E-0001	
 2.91050000000000E+0003	 1.91162619088848E-0001	
 2.91250000000000E+0003	 1.93684629148629E-0001	
 2.91450000000000E+0003	 1.96477139208411E-0001	
 2.91650000000000E+0003	 1.99209149268192E-0001	
 2.91850000000000E+0003	 2.01594659327974E-0001	
 2.92050000000000E+0003	 2.03502669387755E-0001	
 2.92250000000000E+0003	 2.04976179447537E-0001	
 2.92450000000000E+0003	 2.06056189507318E-0001	
 2.92650000000000E+0003	 2.06770699567100E-0001	
 2.92850000000000E+0003	 2.07180209626881E-0001	
 2.93050000000000E+0003	 2.07251219686663E-0001	
 2.93250000000000E+0003	 2.06957729746444E-0001	
 2.93450000000000E+0003	 2.06409239806226E-0001	
 2.93650000000000E+0003	 2.05643749866007E-0001	
 2.93850000000000E+0003	 2.04680259925788E-0001	
 2.94050000000000E+0003	 2.03614269985570E-0001	
 2.94250000000000E+0003	 2.02606780045351E-0001	
 2.94450000000000E+0003	 2.01758790105133E-0001	
 2.94650000000000E+0003	 2.01149300164914E-0001	
 2.94850000000000E+0003	 2.00891310224696E-0001	
 2.95050000000000E+0003	 2.01104320284477E-0001	
 2.95250000000000E+0003	 2.01755330344259E-0001	
 2.95450000000000E+0003	 2.02586340404040E-0001	
 2.95650000000000E+0003	 2.03407850463822E-0001	
 2.95850000000000E+0003	 2.04072360523603E-0001	
 2.96050000000000E+0003	 2.04418370583385E-0001	
 2.96250000000000E+0003	 2.04359380643166E-0001	
 2.96450000000000E+0003	 2.03884890702948E-0001	
 2.96650000000000E+0003	 2.03063400762729E-0001	
 2.96850000000000E+0003	 2.01985910822511E-0001	
 2.97050000000000E+0003	 2.00736920882292E-0001	
 2.97250000000000E+0003	 1.99423930942074E-0001	
 2.97450000000000E+0003	 1.98109941001855E-0001	
 2.97650000000000E+0003	 1.96821951061637E-0001	
 2.97850000000000E+0003	 1.95615461121418E-0001	
 2.98050000000000E+0003	 1.94479471181200E-0001	
 2.98250000000000E+0003	 1.93352481240981E-0001	
 2.98450000000000E+0003	 1.92281491300763E-0001	
 2.98650000000000E+0003	 1.91327001360544E-0001	
 2.98850000000000E+0003	 1.90501511420326E-0001	
 2.99050000000000E+0003	 1.89828021480107E-0001	
 2.99250000000000E+0003	 1.89294031539889E-0001	
 2.99450000000000E+0003	 1.88839541599670E-0001	
 2.99650000000000E+0003	 1.88539051659452E-0001	
 2.99850000000000E+0003	 1.88401061719233E-0001	
 3.00050000000000E+0003	 1.88368071779015E-0001	
 3.00250000000000E+0003	 1.88466081838796E-0001	
 3.00450000000000E+0003	 1.88664591898578E-0001	
 3.00650000000000E+0003	 1.88925101958359E-0001	
 3.00850000000000E+0003	 1.89277612018141E-0001	
 3.01050000000000E+0003	 1.89749122077922E-0001	
 3.01250000000000E+0003	 1.90269632137704E-0001	
 3.01450000000000E+0003	 1.90769642197485E-0001	
 3.01650000000000E+0003	 1.91257652257267E-0001	
 3.01850000000000E+0003	 1.91801662317048E-0001	
 3.02050000000000E+0003	 1.92420672376830E-0001	
 3.02250000000000E+0003	 1.93120682436611E-0001	
 3.02450000000000E+0003	 1.93900692496392E-0001	
 3.02650000000000E+0003	 1.94680202556174E-0001	
 3.02850000000000E+0003	 1.95458212615955E-0001	
 3.03050000000000E+0003	 1.96253722675737E-0001	
 3.03250000000000E+0003	 1.97050232735518E-0001	
 3.03450000000000E+0003	 1.97830742795300E-0001	
 3.03650000000000E+0003	 1.98558752855081E-0001	
 3.03850000000000E+0003	 1.99307762914863E-0001	
 3.04050000000000E+0003	 2.00158272974644E-0001	
 3.04250000000000E+0003	 2.01029783034426E-0001	
 3.04450000000000E+0003	 2.01847793094207E-0001	
 3.04650000000000E+0003	 2.02628303153989E-0001	
 3.04850000000000E+0003	 2.03431813213770E-0001	
 3.05050000000000E+0003	 2.04286323273552E-0001	
 3.05250000000000E+0003	 2.05127333333333E-0001	
 3.05450000000000E+0003	 2.05945343393115E-0001	
 3.05650000000000E+0003	 2.06749853452896E-0001	
 3.05850000000000E+0003	 2.07503863512678E-0001	
 3.06050000000000E+0003	 2.08217373572459E-0001	
 3.06250000000000E+0003	 2.08909883632241E-0001	
 3.06450000000000E+0003	 2.09569893692022E-0001	
 3.06650000000000E+0003	 2.10204903751804E-0001	
 3.06850000000000E+0003	 2.10765413811585E-0001	
 3.07050000000000E+0003	 2.11236923871367E-0001	
 3.07250000000000E+0003	 2.11687433931148E-0001	
 3.07450000000000E+0003	 2.12148943990930E-0001	
 3.07650000000000E+0003	 2.12640454050711E-0001	
 3.07850000000000E+0003	 2.13126964110493E-0001	
 3.08050000000000E+0003	 2.13528974170274E-0001	
 3.08250000000000E+0003	 2.13882984230056E-0001	
 3.08450000000000E+0003	 2.14242994289837E-0001	
 3.08650000000000E+0003	 2.14571004349619E-0001	
 3.08850000000000E+0003	 2.14890014409400E-0001	
 3.09050000000000E+0003	 2.15227024469182E-0001	
 3.09250000000000E+0003	 2.15522034528963E-0001	
 3.09450000000000E+0003	 2.15801044588745E-0001	
 3.09650000000000E+0003	 2.16108554648526E-0001	
 3.09850000000000E+0003	 2.16447564708308E-0001	
 3.10050000000000E+0003	 2.16801074768089E-0001	
 3.10250000000000E+0003	 2.17127084827871E-0001	
 3.10450000000000E+0003	 2.17467094887652E-0001	
 3.10650000000000E+0003	 2.17877604947434E-0001	
 3.10850000000000E+0003	 2.18343115007215E-0001	
 3.11050000000000E+0003	 2.18772625066996E-0001	
 3.11250000000000E+0003	 2.19212135126778E-0001	
 3.11450000000000E+0003	 2.19767645186559E-0001	
 3.11650000000000E+0003	 2.20381655246341E-0001	
 3.11850000000000E+0003	 2.20968165306122E-0001	
 3.12050000000000E+0003	 2.21534175365904E-0001	
 3.12250000000000E+0003	 2.22062685425685E-0001	
 3.12450000000000E+0003	 2.22621195485467E-0001	
 3.12650000000000E+0003	 2.23267705545248E-0001	
 3.12850000000000E+0003	 2.23984715605030E-0001	
 3.13050000000000E+0003	 2.24725725664811E-0001	
 3.13250000000000E+0003	 2.25458235724593E-0001	
 3.13450000000000E+0003	 2.26214745784374E-0001	
 3.13650000000000E+0003	 2.27038755844156E-0001	
 3.13850000000000E+0003	 2.27922265903937E-0001	
 3.14050000000000E+0003	 2.28765275963719E-0001	
 3.14250000000000E+0003	 2.29558286023500E-0001	
 3.14450000000000E+0003	 2.30404796083282E-0001	
 3.14650000000000E+0003	 2.31311306143063E-0001	
 3.14850000000000E+0003	 2.32260316202845E-0001	
 3.15050000000000E+0003	 2.33290326262626E-0001	
 3.15250000000000E+0003	 2.34345836322408E-0001	
 3.15450000000000E+0003	 2.35290846382189E-0001	
 3.15650000000000E+0003	 2.36210856441971E-0001	
 3.15850000000000E+0003	 2.37202366501752E-0001	
 3.16050000000000E+0003	 2.38244876561534E-0001	
 3.16250000000000E+0003	 2.39310386621315E-0001	
 3.16450000000000E+0003	 2.40391896681097E-0001	
 3.16650000000000E+0003	 2.41478406740878E-0001	
 3.16850000000000E+0003	 2.42569416800660E-0001	
 3.17050000000000E+0003	 2.43664426860441E-0001	
 3.17250000000000E+0003	 2.44769436920223E-0001	
 3.17450000000000E+0003	 2.45881446980004E-0001	
 3.17650000000000E+0003	 2.46994957039786E-0001	
 3.17850000000000E+0003	 2.48101467099567E-0001	
 3.18050000000000E+0003	 2.49197477159349E-0001	
 3.18250000000000E+0003	 2.50285487219130E-0001	
 3.18450000000000E+0003	 2.51368997278912E-0001	
 3.18650000000000E+0003	 2.52443507338693E-0001	
 3.18850000000000E+0003	 2.53510017398475E-0001	
 3.19050000000000E+0003	 2.54560027458256E-0001	
 3.19250000000000E+0003	 2.55589537518038E-0001	
 3.19450000000000E+0003	 2.56602047577819E-0001	
 3.19650000000000E+0003	 2.57600557637600E-0001	
 3.19850000000000E+0003	 2.58589567697382E-0001	
 3.20050000000000E+0003	 2.59561577757163E-0001	
 3.20250000000000E+0003	 2.60523587816945E-0001	
 3.20450000000000E+0003	 2.61471097876726E-0001	
 3.20650000000000E+0003	 2.62408607936508E-0001	
 3.20850000000000E+0003	 2.63336117996289E-0001	
 3.21050000000000E+0003	 2.64254628056071E-0001	
 3.21250000000000E+0003	 2.65178638115852E-0001	
 3.21450000000000E+0003	 2.66105148175634E-0001	
 3.21650000000000E+0003	 2.67023158235415E-0001	
 3.21850000000000E+0003	 2.67945668295197E-0001	
 3.22050000000000E+0003	 2.68865178354978E-0001	
 3.22250000000000E+0003	 2.69781688414760E-0001	
 3.22450000000000E+0003	 2.70718198474541E-0001	
 3.22650000000000E+0003	 2.71671208534323E-0001	
 3.22850000000000E+0003	 2.72646218594104E-0001	
 3.23050000000000E+0003	 2.73670728653886E-0001	
 3.23250000000000E+0003	 2.74764738713667E-0001	
 3.23450000000000E+0003	 2.75802248773449E-0001	
 3.23650000000000E+0003	 2.76758758833230E-0001	
 3.23850000000000E+0003	 2.77764768893012E-0001	
 3.24050000000000E+0003	 2.78844278952793E-0001	
 3.24250000000000E+0003	 2.79965789012575E-0001	
 3.24450000000000E+0003	 2.81146799072356E-0001	
 3.24650000000000E+0003	 2.82370809132138E-0001	
 3.24850000000000E+0003	 2.83554319191919E-0001	
 3.25050000000000E+0003	 2.84714829251701E-0001	
 3.25250000000000E+0003	 2.85935339311482E-0001	
 3.25450000000000E+0003	 2.87222849371264E-0001	
 3.25650000000000E+0003	 2.88515359431045E-0001	
 3.25850000000000E+0003	 2.89774869490827E-0001	
 3.26050000000000E+0003	 2.91043379550608E-0001	
 3.26250000000000E+0003	 2.92324889610390E-0001	
 3.26450000000000E+0003	 2.93602399670171E-0001	
 3.26650000000000E+0003	 2.94865909729953E-0001	
 3.26850000000000E+0003	 2.96149419789734E-0001	
 3.27050000000000E+0003	 2.97431929849516E-0001	
 3.27250000000000E+0003	 2.98586939909297E-0001	
 3.27450000000000E+0003	 2.99631449969079E-0001	
 3.27650000000000E+0003	 3.00645460028860E-0001	
 3.27850000000000E+0003	 3.01617470088642E-0001	
 3.28050000000000E+0003	 3.02556480148423E-0001	
 3.28250000000000E+0003	 3.03453490208204E-0001	
 3.28450000000000E+0003	 3.04301500267986E-0001	
 3.28650000000000E+0003	 3.05098510327767E-0001	
 3.28850000000000E+0003	 3.05862020387549E-0001	
 3.29050000000000E+0003	 3.06623030447330E-0001	
 3.29250000000000E+0003	 3.07333540507112E-0001	
 3.29450000000000E+0003	 3.07936050566893E-0001	
 3.29650000000000E+0003	 3.08467560626675E-0001	
 3.29850000000000E+0003	 3.08938570686456E-0001	
 3.30050000000000E+0003	 3.09385580746238E-0001	
 3.30250000000000E+0003	 3.09872090806019E-0001	
 3.30450000000000E+0003	 3.10420600865801E-0001	
 3.30650000000000E+0003	 3.10907610925582E-0001	
 3.30850000000000E+0003	 3.11256120985364E-0001	
 3.31050000000000E+0003	 3.11534131045145E-0001	
 3.31250000000000E+0003	 3.11825141104927E-0001	
 3.31450000000000E+0003	 3.12153651164708E-0001	
 3.31650000000000E+0003	 3.12501161224490E-0001	
 3.31850000000000E+0003	 3.12859671284271E-0001	
 3.32050000000000E+0003	 3.13230681344053E-0001	
 3.32250000000000E+0003	 3.13621191403834E-0001	
 3.32450000000000E+0003	 3.14055701463616E-0001	
 3.32650000000000E+0003	 3.14477211523397E-0001	
 3.32850000000000E+0003	 3.14858221583179E-0001	
 3.33050000000000E+0003	 3.15266231642960E-0001	
 3.33250000000000E+0003	 3.15722241702742E-0001	
 3.33450000000000E+0003	 3.16211751762523E-0001	
 3.33650000000000E+0003	 3.16755761822305E-0001	
 3.33850000000000E+0003	 3.17313771882086E-0001	
 3.34050000000000E+0003	 3.17817281941868E-0001	
 3.34250000000000E+0003	 3.18317292001649E-0001	
 3.34450000000000E+0003	 3.18840802061431E-0001	
 3.34650000000000E+0003	 3.19374812121212E-0001	
 3.34850000000000E+0003	 3.19993322180994E-0001	
 3.35050000000000E+0003	 3.20654332240775E-0001	
 3.35250000000000E+0003	 3.21219842300557E-0001	
 3.35450000000000E+0003	 3.21744852360338E-0001	
 3.35650000000000E+0003	 3.22335362420120E-0001	
 3.35850000000000E+0003	 3.22980372479901E-0001	
 3.36050000000000E+0003	 3.23635882539683E-0001	
 3.36250000000000E+0003	 3.24260892599464E-0001	
 3.36450000000000E+0003	 3.24927402659246E-0001	
 3.36650000000000E+0003	 3.25669412719027E-0001	
 3.36850000000000E+0003	 3.26392422778808E-0001	
 3.37050000000000E+0003	 3.26975932838590E-0001	
 3.37250000000000E+0003	 3.27462442898371E-0001	
 3.37450000000000E+0003	 3.28008952958153E-0001	
 3.37650000000000E+0003	 3.28628463017934E-0001	
 3.37850000000000E+0003	 3.29240973077716E-0001	
 3.38050000000000E+0003	 3.29831483137497E-0001	
 3.38250000000000E+0003	 3.30397993197279E-0001	
 3.38450000000000E+0003	 3.30965003257060E-0001	
 3.38650000000000E+0003	 3.31550013316842E-0001	
 3.38850000000000E+0003	 3.32196523376623E-0001	
 3.39050000000000E+0003	 3.32913533436405E-0001	
 3.39250000000000E+0003	 3.33520043496186E-0001	
 3.39450000000000E+0003	 3.33947553555968E-0001	
 3.39650000000000E+0003	 3.34422563615749E-0001	
 3.39850000000000E+0003	 3.35077073675531E-0001	
 3.40050000000000E+0003	 3.35738583735312E-0001	
 3.40250000000000E+0003	 3.36134593795094E-0001	
 3.40450000000000E+0003	 3.36403603854875E-0001	
 3.40650000000000E+0003	 3.36799613914657E-0001	
 3.40850000000000E+0003	 3.37286123974438E-0001	
 3.41050000000000E+0003	 3.37730634034220E-0001	
 3.41250000000000E+0003	 3.38118644094001E-0001	
 3.41450000000000E+0003	 3.38433154153783E-0001	
 3.41650000000000E+0003	 3.38707164213564E-0001	
 3.41850000000000E+0003	 3.39001674273346E-0001	
 3.42050000000000E+0003	 3.39286684333127E-0001	
 3.42250000000000E+0003	 3.39513694392909E-0001	
 3.42450000000000E+0003	 3.39718704452690E-0001	
 3.42650000000000E+0003	 3.39948714512472E-0001	
 3.42850000000000E+0003	 3.40194224572253E-0001	
 3.43050000000000E+0003	 3.40367234632035E-0001	
 3.43250000000000E+0003	 3.40486244691816E-0001	
 3.43450000000000E+0003	 3.40634754751598E-0001	
 3.43650000000000E+0003	 3.40685764811379E-0001	
 3.43850000000000E+0003	 3.40545774871161E-0001	
 3.44050000000000E+0003	 3.40357784930942E-0001	
 3.44250000000000E+0003	 3.40232794990724E-0001	
 3.44450000000000E+0003	 3.40140305050505E-0001	
 3.44650000000000E+0003	 3.40017815110287E-0001	
 3.44850000000000E+0003	 3.39822825170068E-0001	
 3.45050000000000E+0003	 3.39580835229850E-0001	
 3.45250000000000E+0003	 3.39335845289631E-0001	
 3.45450000000000E+0003	 3.39071855349412E-0001	
 3.45650000000000E+0003	 3.38799365409194E-0001	
 3.45850000000000E+0003	 3.38540875468975E-0001	
 3.46050000000000E+0003	 3.38222885528757E-0001	
 3.46250000000000E+0003	 3.37815395588538E-0001	
 3.46450000000000E+0003	 3.37485405648320E-0001	
 3.46650000000000E+0003	 3.37260415708101E-0001	
 3.46850000000000E+0003	 3.36899425767883E-0001	
 3.47050000000000E+0003	 3.36245435827664E-0001	
 3.47250000000000E+0003	 3.35507945887446E-0001	
 3.47450000000000E+0003	 3.34887455947227E-0001	
 3.47650000000000E+0003	 3.34367466007009E-0001	
 3.47850000000000E+0003	 3.33902976066790E-0001	
 3.48050000000000E+0003	 3.33317986126572E-0001	
 3.48250000000000E+0003	 3.32565996186353E-0001	
 3.48450000000000E+0003	 3.31867006246135E-0001	
 3.48650000000000E+0003	 3.31227516305916E-0001	
 3.48850000000000E+0003	 3.30505526365698E-0001	
 3.49050000000000E+0003	 3.29740536425479E-0001	
 3.49250000000000E+0003	 3.29021546485261E-0001	
 3.49450000000000E+0003	 3.28326056545042E-0001	
 3.49650000000000E+0003	 3.27599566604824E-0001	
 3.49850000000000E+0003	 3.26815576664605E-0001	
 3.50050000000000E+0003	 3.26059586724387E-0001	
 3.50250000000000E+0003	 3.25284096784168E-0001	
 3.50450000000000E+0003	 3.24312606843950E-0001	
 3.50650000000000E+0003	 3.23287616903731E-0001	
 3.50850000000000E+0003	 3.22355626963513E-0001	
 3.51050000000000E+0003	 3.21466637023294E-0001	
 3.51250000000000E+0003	 3.20605647083076E-0001	
 3.51450000000000E+0003	 3.19671157142857E-0001	
 3.51650000000000E+0003	 3.18636667202639E-0001	
 3.51850000000000E+0003	 3.17614677262420E-0001	
 3.52050000000000E+0003	 3.16685187322202E-0001	
 3.52250000000000E+0003	 3.15825197381983E-0001	
 3.52450000000000E+0003	 3.14822707441765E-0001	
 3.52650000000000E+0003	 3.13630217501546E-0001	
 3.52850000000000E+0003	 3.12439727561328E-0001	
 3.53050000000000E+0003	 3.11302237621109E-0001	
 3.53250000000000E+0003	 3.10205747680891E-0001	
 3.53450000000000E+0003	 3.09171257740672E-0001	
 3.53650000000000E+0003	 3.08070267800454E-0001	
 3.53850000000000E+0003	 3.06820277860235E-0001	
 3.54050000000000E+0003	 3.05642287920016E-0001	
 3.54250000000000E+0003	 3.04610297979798E-0001	
 3.54450000000000E+0003	 3.03509808039579E-0001	
 3.54650000000000E+0003	 3.02128818099361E-0001	
 3.54850000000000E+0003	 3.00602828159142E-0001	
 3.55050000000000E+0003	 2.99185838218924E-0001	
 3.55250000000000E+0003	 2.97781348278705E-0001	
 3.55450000000000E+0003	 2.96330358338487E-0001	
 3.55650000000000E+0003	 2.94924868398268E-0001	
 3.55850000000000E+0003	 2.93561378458050E-0001	
 3.56050000000000E+0003	 2.92198888517831E-0001	
 3.56250000000000E+0003	 2.90780898577613E-0001	
 3.56450000000000E+0003	 2.89316908637394E-0001	
 3.56650000000000E+0003	 2.87816418697176E-0001	
 3.56850000000000E+0003	 2.86223428756957E-0001	
 3.57050000000000E+0003	 2.84561938816739E-0001	
 3.57250000000000E+0003	 2.82893448876520E-0001	
 3.57450000000000E+0003	 2.81239458936302E-0001	
 3.57650000000000E+0003	 2.79597968996083E-0001	
 3.57850000000000E+0003	 2.77977979055865E-0001	
 3.58050000000000E+0003	 2.76417989115646E-0001	
 3.58250000000000E+0003	 2.74917499175428E-0001	
 3.58450000000000E+0003	 2.73397509235209E-0001	
 3.58650000000000E+0003	 2.71632019294991E-0001	
 3.58850000000000E+0003	 2.69636029354772E-0001	
 3.59050000000000E+0003	 2.67755539414554E-0001	
 3.59250000000000E+0003	 2.65997549474335E-0001	
 3.59450000000000E+0003	 2.64170059534117E-0001	
 3.59650000000000E+0003	 2.62333569593898E-0001	
 3.59850000000000E+0003	 2.60565579653680E-0001	
 3.60050000000000E+0003	 2.58737589713461E-0001	
 3.60250000000000E+0003	 2.56857099773243E-0001	
 3.60450000000000E+0003	 2.55040609833024E-0001	
 3.60650000000000E+0003	 2.53227119892806E-0001	
 3.60850000000000E+0003	 2.51316629952587E-0001	
 3.61050000000000E+0003	 2.49340140012369E-0001	
 3.61250000000000E+0003	 2.47407650072150E-0001	
 3.61450000000000E+0003	 2.45502660131932E-0001	
 3.61650000000000E+0003	 2.43556670191713E-0001	
 3.61850000000000E+0003	 2.41511180251495E-0001	
 3.62050000000000E+0003	 2.39485190311276E-0001	
 3.62250000000000E+0003	 2.37618700371058E-0001	
 3.62450000000000E+0003	 2.35824210430839E-0001	
 3.62650000000000E+0003	 2.33969720490620E-0001	
 3.62850000000000E+0003	 2.31888230550402E-0001	
 3.63050000000000E+0003	 2.29692240610183E-0001	
 3.63250000000000E+0003	 2.27748250669965E-0001	
 3.63450000000000E+0003	 2.25859760729746E-0001	
 3.63650000000000E+0003	 2.23881270789528E-0001	
 3.63850000000000E+0003	 2.21916780849309E-0001	
 3.64050000000000E+0003	 2.20005290909091E-0001	
 3.64250000000000E+0003	 2.18183800968872E-0001	
 3.64450000000000E+0003	 2.16452811028654E-0001	
 3.64650000000000E+0003	 2.14740321088435E-0001	
 3.64850000000000E+0003	 2.12869331148217E-0001	
 3.65050000000000E+0003	 2.10885841207998E-0001	
 3.65250000000000E+0003	 2.08922351267780E-0001	
 3.65450000000000E+0003	 2.07084861327561E-0001	
 3.65650000000000E+0003	 2.05323371387343E-0001	
 3.65850000000000E+0003	 2.03627881447124E-0001	
 3.66050000000000E+0003	 2.01970891506906E-0001	
 3.66250000000000E+0003	 2.00265401566687E-0001	
 3.66450000000000E+0003	 1.98661411626469E-0001	
 3.66650000000000E+0003	 1.97189421686250E-0001	
 3.66850000000000E+0003	 1.95724931746032E-0001	
 3.67050000000000E+0003	 1.94275441805813E-0001	
 3.67250000000000E+0003	 1.92899951865595E-0001	
 3.67450000000000E+0003	 1.91614461925376E-0001	
 3.67650000000000E+0003	 1.90236471985158E-0001	
 3.67850000000000E+0003	 1.88889982044939E-0001	
 3.68050000000000E+0003	 1.87671992104721E-0001	
 3.68250000000000E+0003	 1.86538002164502E-0001	
 3.68450000000000E+0003	 1.85501512224284E-0001	
 3.68650000000000E+0003	 1.84579022284065E-0001	
 3.68850000000000E+0003	 1.83607032343847E-0001	
 3.69050000000000E+0003	 1.82459042403628E-0001	
 3.69250000000000E+0003	 1.81394052463410E-0001	
 3.69450000000000E+0003	 1.80465062523191E-0001	
 3.69650000000000E+0003	 1.79620572582973E-0001	
 3.69850000000000E+0003	 1.78780082642754E-0001	
 3.70050000000000E+0003	 1.77975092702536E-0001	
 3.70250000000000E+0003	 1.77251102762317E-0001	
 3.70450000000000E+0003	 1.76595612822099E-0001	
 3.70650000000000E+0003	 1.76005122881880E-0001	
 3.70850000000000E+0003	 1.75444132941662E-0001	
 3.71050000000000E+0003	 1.74843643001443E-0001	
 3.71250000000000E+0003	 1.74222153061224E-0001	
 3.71450000000000E+0003	 1.73590663121006E-0001	
 3.71650000000000E+0003	 1.73008173180787E-0001	
 3.71850000000000E+0003	 1.72494683240569E-0001	
 3.72050000000000E+0003	 1.72027193300350E-0001	
 3.72250000000000E+0003	 1.71589703360132E-0001	
 3.72450000000000E+0003	 1.71146713419913E-0001	
 3.72650000000000E+0003	 1.70740723479695E-0001	
 3.72850000000000E+0003	 1.70290233539476E-0001	
 3.73050000000000E+0003	 1.69868243599258E-0001	
 3.73250000000000E+0003	 1.69530753659039E-0001	
 3.73450000000000E+0003	 1.69280763718821E-0001	
 3.73650000000000E+0003	 1.69066273778602E-0001	
 3.73850000000000E+0003	 1.68720783838384E-0001	
 3.74050000000000E+0003	 1.68243793898165E-0001	
 3.74250000000000E+0003	 1.67758303957947E-0001	
 3.74450000000000E+0003	 1.67422814017728E-0001	
 3.74650000000000E+0003	 1.67068824077510E-0001	
 3.74850000000000E+0003	 1.66706834137291E-0001	
 3.75050000000000E+0003	 1.66335844197073E-0001	
 3.75250000000000E+0003	 1.65979354256854E-0001	
 3.75450000000000E+0003	 1.65613864316636E-0001	
 3.75650000000000E+0003	 1.65265874376417E-0001	
 3.75850000000000E+0003	 1.64954884436199E-0001	
 3.76050000000000E+0003	 1.64667394495980E-0001	
 3.76250000000000E+0003	 1.64346904555762E-0001	
 3.76450000000000E+0003	 1.64082914615543E-0001	
 3.76650000000000E+0003	 1.63838424675325E-0001	
 3.76850000000000E+0003	 1.63567434735106E-0001	
 3.77050000000000E+0003	 1.63291944794888E-0001	
 3.77250000000000E+0003	 1.62992954854669E-0001	
 3.77450000000000E+0003	 1.62729964914451E-0001	
 3.77650000000000E+0003	 1.62522974974232E-0001	
 3.77850000000000E+0003	 1.62364485034014E-0001	
 3.78050000000000E+0003	 1.62144995093795E-0001	
 3.78250000000000E+0003	 1.61846005153577E-0001	
 3.78450000000000E+0003	 1.61586015213358E-0001	
 3.78650000000000E+0003	 1.61366525273140E-0001	
 3.78850000000000E+0003	 1.61160535332921E-0001	
 3.79050000000000E+0003	 1.60985545392703E-0001	
 3.79250000000000E+0003	 1.60805055452484E-0001	
 3.79450000000000E+0003	 1.60631565512266E-0001	
 3.79650000000000E+0003	 1.60518075572047E-0001	
 3.79850000000000E+0003	 1.60308585631828E-0001	
 3.80050000000000E+0003	 1.60108595691610E-0001	
 3.80250000000000E+0003	 1.59980605751391E-0001	
 3.80450000000000E+0003	 1.59766115811173E-0001	
 3.80650000000000E+0003	 1.59559125870954E-0001	
 3.80850000000000E+0003	 1.59365135930736E-0001	
 3.81050000000000E+0003	 1.59208145990517E-0001	
 3.81250000000000E+0003	 1.59053656050299E-0001	
 3.81450000000000E+0003	 1.58935666110080E-0001	
 3.81650000000000E+0003	 1.58872176169862E-0001	
 3.81850000000000E+0003	 1.58694186229643E-0001	
 3.82050000000000E+0003	 1.58539196289425E-0001	
 3.82250000000000E+0003	 1.58401706349206E-0001	
 3.82450000000000E+0003	 1.58206716408988E-0001	
 3.82650000000000E+0003	 1.58063226468769E-0001	
 3.82850000000000E+0003	 1.57940736528551E-0001	
 3.83050000000000E+0003	 1.57819746588332E-0001	
 3.83250000000000E+0003	 1.57732256648114E-0001	
 3.83450000000000E+0003	 1.57650766707895E-0001	
 3.83650000000000E+0003	 1.57544276767677E-0001	
 3.83850000000000E+0003	 1.57395286827458E-0001	
 3.84050000000000E+0003	 1.57243796887240E-0001	
 3.84250000000000E+0003	 1.57129806947021E-0001	
 3.84450000000000E+0003	 1.57032317006803E-0001	
 3.84650000000000E+0003	 1.56945827066584E-0001	
 3.84850000000000E+0003	 1.56876837126366E-0001	
 3.85050000000000E+0003	 1.56741847186147E-0001	
 3.85250000000000E+0003	 1.56489357245929E-0001	
 3.85450000000000E+0003	 1.56310867305710E-0001	
 3.85650000000000E+0003	 1.56285877365492E-0001	
 3.85850000000000E+0003	 1.56269387425273E-0001	
 3.86050000000000E+0003	 1.56217397485055E-0001	
 3.86250000000000E+0003	 1.56106407544836E-0001	
 3.86450000000000E+0003	 1.56056417604618E-0001	
 3.86650000000000E+0003	 1.55970927664399E-0001	
 3.86850000000000E+0003	 1.55875937724181E-0001	
 3.87050000000000E+0003	 1.55811447783962E-0001	
 3.87250000000000E+0003	 1.55690457843744E-0001	
 3.87450000000000E+0003	 1.55619967903525E-0001	
 3.87650000000000E+0003	 1.55552477963307E-0001	
 3.87850000000000E+0003	 1.55463488023088E-0001	
 3.88050000000000E+0003	 1.55449998082870E-0001	
 3.88250000000000E+0003	 1.55415508142651E-0001	
 3.88450000000000E+0003	 1.55401018202432E-0001	
 3.88650000000000E+0003	 1.55373528262214E-0001	
 3.88850000000000E+0003	 1.55189538321995E-0001	
 3.89050000000000E+0003	 1.55023048381777E-0001	
 3.89250000000000E+0003	 1.54971558441558E-0001	
 3.89450000000000E+0003	 1.54957568501340E-0001	
 3.89650000000000E+0003	 1.54927078561121E-0001	
 3.89850000000000E+0003	 1.54946088620903E-0001	
 3.90050000000000E+0003	 1.54992098680684E-0001	
 3.90250000000000E+0003	 1.54928108740466E-0001	
 3.90450000000000E+0003	 1.54770618800247E-0001	
 3.90650000000000E+0003	 1.54647128860029E-0001	
 3.90850000000000E+0003	 1.54572138919810E-0001	
 3.91050000000000E+0003	 1.54528148979592E-0001	
 3.91250000000000E+0003	 1.54507659039373E-0001	
 3.91450000000000E+0003	 1.54509169099155E-0001	
 3.91650000000000E+0003	 1.54538179158936E-0001	
 3.91850000000000E+0003	 1.54531689218718E-0001	
 3.92050000000000E+0003	 1.54465699278499E-0001	
 3.92250000000000E+0003	 1.54378209338281E-0001	
 3.92450000000000E+0003	 1.54323719398062E-0001	
 3.92650000000000E+0003	 1.54293229457844E-0001	
 3.92850000000000E+0003	 1.54271239517625E-0001	
 3.93050000000000E+0003	 1.54274249577407E-0001	
 3.93250000000000E+0003	 1.54304259637188E-0001	
 3.93450000000000E+0003	 1.54265769696970E-0001	
 3.93650000000000E+0003	 1.54182779756751E-0001	
 3.93850000000000E+0003	 1.54120289816533E-0001	
 3.94050000000000E+0003	 1.54081299876314E-0001	
 3.94250000000000E+0003	 1.54065809936096E-0001	
 3.94450000000000E+0003	 1.54065319995877E-0001	
 3.94650000000000E+0003	 1.54052830055659E-0001	
 3.94850000000000E+0003	 1.54021840115440E-0001	
 3.95050000000000E+0003	 1.53970350175222E-0001	
 3.95250000000000E+0003	 1.53922360235003E-0001	
 3.95450000000000E+0003	 1.53884870294785E-0001	
 3.95650000000000E+0003	 1.53856380354566E-0001	
 3.95850000000000E+0003	 1.53832890414348E-0001	
 3.96050000000000E+0003	 1.53818400474129E-0001	
 3.96250000000000E+0003	 1.53801410533911E-0001	
 3.96450000000000E+0003	 1.53770920593692E-0001	
 3.96650000000000E+0003	 1.53742930653474E-0001	
 3.96850000000000E+0003	 1.53727440713255E-0001	
 3.97050000000000E+0003	 1.53706950773036E-0001	
 3.97250000000000E+0003	 1.53687460832818E-0001	
 3.97450000000000E+0003	 1.53677970892599E-0001	
 3.97650000000000E+0003	 1.53670480952381E-0001	
 3.97850000000000E+0003	 1.53642491012162E-0001	
 3.98050000000000E+0003	 1.53616501071944E-0001	
 3.98250000000000E+0003	 1.53619011131725E-0001	
 3.98450000000000E+0003	 1.53620021191507E-0001	
 3.98650000000000E+0003	 1.53583531251288E-0001	
 3.98850000000000E+0003	 1.53545041311070E-0001	
 3.99050000000000E+0003	 1.53521551370851E-0001	
 3.99250000000000E+0003	 1.53500561430633E-0001	
 3.99450000000000E+0003	 1.53479071490414E-0001	
 3.99650000000000E+0003	 1.53464081550196E-0001	
 3.99850000000000E+0003	 1.53448591609977E-0001	

>1	DATALINE
