*CPCWIN*

>1	DATALINE
DATALINE
1
Operator:

Description:

Remarks:





15.9.2008
11:18


_x	_y
	
	
UNIT	UNIT
 4.50500000000000E+0002	 1.42676112160264E-0001	
 4.52500000000000E+0002	 1.43287003180504E-0001	
 4.54500000000000E+0002	 1.44241394200743E-0001	
 4.56500000000000E+0002	 1.44928785220983E-0001	
 4.58500000000000E+0002	 1.45945176241223E-0001	
 4.60500000000000E+0002	 1.46935567261462E-0001	
 4.62500000000000E+0002	 1.48083458281702E-0001	
 4.64500000000000E+0002	 1.49137349301941E-0001	
 4.66500000000000E+0002	 1.49882240322181E-0001	
 4.68500000000000E+0002	 1.50476131342420E-0001	
 4.70500000000000E+0002	 1.51501522362660E-0001	
 4.72500000000000E+0002	 1.52585913382900E-0001	
 4.74500000000000E+0002	 1.53631804403139E-0001	
 4.76500000000000E+0002	 1.54385195423379E-0001	
 4.78500000000000E+0002	 1.55354586443618E-0001	
 4.80500000000000E+0002	 1.56311977463858E-0001	
 4.82500000000000E+0002	 1.57338368484097E-0001	
 4.84500000000000E+0002	 1.58047259504337E-0001	
 4.86500000000000E+0002	 1.58895150524577E-0001	
 4.88500000000000E+0002	 1.59878541544816E-0001	
 4.90500000000000E+0002	 1.60765432565056E-0001	
 4.92500000000000E+0002	 1.61645323585295E-0001	
 4.94500000000000E+0002	 1.62766214605535E-0001	
 4.96500000000000E+0002	 1.63756605625774E-0001	
 4.98500000000000E+0002	 1.64775496646014E-0001	
 5.00500000000000E+0002	 1.65473387666254E-0001	
 5.02500000000000E+0002	 1.66349778686493E-0001	
 5.04500000000000E+0002	 1.67508169706733E-0001	
 5.06500000000000E+0002	 1.68653560726972E-0001	
 5.08500000000000E+0002	 1.69555451747212E-0001	
 5.10500000000000E+0002	 1.70652842767451E-0001	
 5.12500000000000E+0002	 1.71884233787691E-0001	
 5.14500000000000E+0002	 1.73086624807931E-0001	
 5.16500000000000E+0002	 1.74127515828170E-0001	
 5.18500000000000E+0002	 1.75403406848410E-0001	
 5.20500000000000E+0002	 1.76635297868649E-0001	
 5.22500000000000E+0002	 1.77729688888889E-0001	
 5.24500000000000E+0002	 1.78422579909128E-0001	
 5.26500000000000E+0002	 1.79314470929368E-0001	
 5.28500000000000E+0002	 1.80565361949608E-0001	
 5.30500000000000E+0002	 1.81895752969847E-0001	
 5.32500000000000E+0002	 1.82870643990087E-0001	
 5.34500000000000E+0002	 1.83592035010326E-0001	
 5.36500000000000E+0002	 1.84009426030566E-0001	
 5.38500000000000E+0002	 1.84320317050805E-0001	
 5.40500000000000E+0002	 1.84402208071045E-0001	
 5.42500000000000E+0002	 1.84364099091285E-0001	
 5.44500000000000E+0002	 1.84192490111524E-0001	
 5.46500000000000E+0002	 1.84065381131764E-0001	
 5.48500000000000E+0002	 1.83940772152003E-0001	
 5.50500000000000E+0002	 1.83965163172243E-0001	
 5.52500000000000E+0002	 1.84051554192482E-0001	
 5.54500000000000E+0002	 1.84151945212722E-0001	
 5.56500000000000E+0002	 1.84135836232962E-0001	
 5.58500000000000E+0002	 1.84158227253201E-0001	
 5.60500000000000E+0002	 1.84108618273441E-0001	
 5.62500000000000E+0002	 1.84054009293680E-0001	
 5.64500000000000E+0002	 1.83927900313920E-0001	
 5.66500000000000E+0002	 1.83844791334159E-0001	
 5.68500000000000E+0002	 1.83708682354399E-0001	
 5.70500000000000E+0002	 1.83642073374639E-0001	
 5.72500000000000E+0002	 1.83555964394878E-0001	
 5.74500000000000E+0002	 1.83473355415118E-0001	
 5.76500000000000E+0002	 1.83386246435357E-0001	
 5.78500000000000E+0002	 1.83414137455597E-0001	
 5.80500000000000E+0002	 1.83260028475836E-0001	
 5.82500000000000E+0002	 1.83069919496076E-0001	
 5.84500000000000E+0002	 1.82840810516316E-0001	
 5.86500000000000E+0002	 1.82695201536555E-0001	
 5.88500000000000E+0002	 1.82563092556795E-0001	
 5.90500000000000E+0002	 1.82485983577034E-0001	
 5.92500000000000E+0002	 1.82527374597274E-0001	
 5.94500000000000E+0002	 1.82808765617513E-0001	
 5.96500000000000E+0002	 1.83064156637753E-0001	
 5.98500000000000E+0002	 1.83243047657993E-0001	
 6.00500000000000E+0002	 1.83257938678232E-0001	
 6.02500000000000E+0002	 1.83269329698472E-0001	
 6.04500000000000E+0002	 1.83152720718711E-0001	
 6.06500000000000E+0002	 1.83021611738951E-0001	
 6.08500000000000E+0002	 1.82907002759190E-0001	
 6.10500000000000E+0002	 1.82895893779430E-0001	
 6.12500000000000E+0002	 1.82894284799670E-0001	
 6.14500000000000E+0002	 1.82931675819909E-0001	
 6.16500000000000E+0002	 1.82921566840149E-0001	
 6.18500000000000E+0002	 1.83007457860388E-0001	
 6.20500000000000E+0002	 1.83089348880628E-0001	
 6.22500000000000E+0002	 1.83046239900867E-0001	
 6.24500000000000E+0002	 1.82834130921107E-0001	
 6.26500000000000E+0002	 1.82639521941347E-0001	
 6.28500000000000E+0002	 1.82402912961586E-0001	
 6.30500000000000E+0002	 1.82091803981826E-0001	
 6.32500000000000E+0002	 1.81706695002065E-0001	
 6.34500000000000E+0002	 1.81379086022305E-0001	
 6.36500000000000E+0002	 1.81146977042544E-0001	
 6.38500000000000E+0002	 1.81033368062784E-0001	
 6.40500000000000E+0002	 1.80918259083024E-0001	
 6.42500000000000E+0002	 1.80805650103263E-0001	
 6.44500000000000E+0002	 1.80594041123503E-0001	
 6.46500000000000E+0002	 1.80371432143742E-0001	
 6.48500000000000E+0002	 1.80117823163982E-0001	
 6.50500000000000E+0002	 1.79892714184221E-0001	
 6.52500000000000E+0002	 1.79655605204461E-0001	
 6.54500000000000E+0002	 1.79435496224701E-0001	
 6.56500000000000E+0002	 1.79182887244940E-0001	
 6.58500000000000E+0002	 1.78974278265180E-0001	
 6.60500000000000E+0002	 1.78720169285419E-0001	
 6.62500000000000E+0002	 1.78562060305659E-0001	
 6.64500000000000E+0002	 1.79026951325898E-0001	
 6.66500000000000E+0002	 1.80971342346138E-0001	
 6.68500000000000E+0002	 1.80670233366378E-0001	
 6.70500000000000E+0002	 1.77725624386617E-0001	
 6.72500000000000E+0002	 1.76992515406857E-0001	
 6.74500000000000E+0002	 1.76618906427096E-0001	
 6.76500000000000E+0002	 1.76268797447336E-0001	
 6.78500000000000E+0002	 1.75906188467575E-0001	
 6.80500000000000E+0002	 1.75493579487815E-0001	
 6.82500000000000E+0002	 1.75097970508055E-0001	
 6.84500000000000E+0002	 1.74723861528294E-0001	
 6.86500000000000E+0002	 1.74319752548534E-0001	
 6.88500000000000E+0002	 1.73905643568773E-0001	
 6.90500000000000E+0002	 1.73608534589013E-0001	
 6.92500000000000E+0002	 1.73439425609252E-0001	
 6.94500000000000E+0002	 1.73365816629492E-0001	
 6.96500000000000E+0002	 1.73377207649732E-0001	
 6.98500000000000E+0002	 1.73344598669971E-0001	
 7.00500000000000E+0002	 1.73148989690211E-0001	
 7.02500000000000E+0002	 1.72675880710450E-0001	
 7.04500000000000E+0002	 1.71961271730690E-0001	
 7.06500000000000E+0002	 1.71160662750929E-0001	
 7.08500000000000E+0002	 1.70399053771169E-0001	
 7.10500000000000E+0002	 1.69737444791409E-0001	
 7.12500000000000E+0002	 1.69117835811648E-0001	
 7.14500000000000E+0002	 1.68436726831888E-0001	
 7.16500000000000E+0002	 1.67693617852127E-0001	
 7.18500000000000E+0002	 1.66899508872367E-0001	
 7.20500000000000E+0002	 1.66130399892606E-0001	
 7.22500000000000E+0002	 1.65468290912846E-0001	
 7.24500000000000E+0002	 1.64597181933086E-0001	
 7.26500000000000E+0002	 1.63447572953325E-0001	
 7.28500000000000E+0002	 1.62193463973565E-0001	
 7.30500000000000E+0002	 1.60986354993804E-0001	
 7.32500000000000E+0002	 1.59903746014044E-0001	
 7.34500000000000E+0002	 1.58975637034283E-0001	
 7.36500000000000E+0002	 1.58205528054523E-0001	
 7.38500000000000E+0002	 1.57558919074762E-0001	
 7.40500000000000E+0002	 1.56996810095002E-0001	
 7.42500000000000E+0002	 1.56489701115242E-0001	
 7.44500000000000E+0002	 1.56044592135481E-0001	
 7.46500000000000E+0002	 1.55603483155721E-0001	
 7.48500000000000E+0002	 1.55133374175960E-0001	
 7.50500000000000E+0002	 1.54620265196200E-0001	
 7.52500000000000E+0002	 1.54095156216439E-0001	
 7.54500000000000E+0002	 1.53587047236679E-0001	
 7.56500000000000E+0002	 1.53130438256919E-0001	
 7.58500000000000E+0002	 1.52702329277158E-0001	
 7.60500000000000E+0002	 1.52337720297398E-0001	
 7.62500000000000E+0002	 1.52072611317637E-0001	
 7.64500000000000E+0002	 1.51875502337877E-0001	
 7.66500000000000E+0002	 1.51527393358116E-0001	
 7.68500000000000E+0002	 1.50959784378356E-0001	
 7.70500000000000E+0002	 1.50339175398596E-0001	
 7.72500000000000E+0002	 1.49902566418835E-0001	
 7.74500000000000E+0002	 1.49864957439075E-0001	
 7.76500000000000E+0002	 1.50468848459314E-0001	
 7.78500000000000E+0002	 1.51530739479554E-0001	
 7.80500000000000E+0002	 1.52150630499793E-0001	
 7.82500000000000E+0002	 1.51857521520033E-0001	
 7.84500000000000E+0002	 1.51177912540273E-0001	
 7.86500000000000E+0002	 1.50600803560512E-0001	
 7.88500000000000E+0002	 1.50136694580752E-0001	
 7.90500000000000E+0002	 1.49812085600991E-0001	
 7.92500000000000E+0002	 1.49816976621231E-0001	
 7.94500000000000E+0002	 1.50268367641470E-0001	
 7.96500000000000E+0002	 1.50803758661710E-0001	
 7.98500000000000E+0002	 1.51005149681950E-0001	
 8.00500000000000E+0002	 1.50905040702189E-0001	
 8.02500000000000E+0002	 1.50857931722429E-0001	
 8.04500000000000E+0002	 1.51006822742668E-0001	
 8.06500000000000E+0002	 1.51235713762908E-0001	
 8.08500000000000E+0002	 1.51292104783147E-0001	
 8.10500000000000E+0002	 1.51052495803387E-0001	
 8.12500000000000E+0002	 1.50554886823627E-0001	
 8.14500000000000E+0002	 1.49983277843866E-0001	
 8.16500000000000E+0002	 1.49526668864106E-0001	
 8.18500000000000E+0002	 1.49343059884345E-0001	
 8.20500000000000E+0002	 1.49414950904585E-0001	
 8.22500000000000E+0002	 1.49566841924824E-0001	
 8.24500000000000E+0002	 1.49547232945064E-0001	
 8.26500000000000E+0002	 1.49236623965304E-0001	
 8.28500000000000E+0002	 1.48652014985543E-0001	
 8.30500000000000E+0002	 1.47959906005783E-0001	
 8.32500000000000E+0002	 1.47284297026022E-0001	
 8.34500000000000E+0002	 1.46661688046262E-0001	
 8.36500000000000E+0002	 1.46030079066501E-0001	
 8.38500000000000E+0002	 1.45360470086741E-0001	
 8.40500000000000E+0002	 1.44659361106981E-0001	
 8.42500000000000E+0002	 1.43996252127220E-0001	
 8.44500000000000E+0002	 1.43489143147460E-0001	
 8.46500000000000E+0002	 1.43283534167699E-0001	
 8.48500000000000E+0002	 1.43381925187939E-0001	
 8.50500000000000E+0002	 1.43759316208178E-0001	
 8.52500000000000E+0002	 1.44383707228418E-0001	
 8.54500000000000E+0002	 1.45210598248658E-0001	
 8.56500000000000E+0002	 1.46102989268897E-0001	
 8.58500000000000E+0002	 1.46973380289137E-0001	
 8.60500000000000E+0002	 1.47667271309376E-0001	
 8.62500000000000E+0002	 1.48138162329616E-0001	
 8.64500000000000E+0002	 1.48349553349855E-0001	
 8.66500000000000E+0002	 1.48395944370095E-0001	
 8.68500000000000E+0002	 1.48470835390335E-0001	
 8.70500000000000E+0002	 1.48961226410574E-0001	
 8.72500000000000E+0002	 1.49546617430814E-0001	
 8.74500000000000E+0002	 1.49471508451053E-0001	
 8.76500000000000E+0002	 1.48814899471293E-0001	
 8.78500000000000E+0002	 1.48093790491532E-0001	
 8.80500000000000E+0002	 1.47364181511772E-0001	
 8.82500000000000E+0002	 1.46620572532012E-0001	
 8.84500000000000E+0002	 1.45809463552251E-0001	
 8.86500000000000E+0002	 1.44994854572491E-0001	
 8.88500000000000E+0002	 1.44236245592730E-0001	
 8.90500000000000E+0002	 1.43619136612970E-0001	
 8.92500000000000E+0002	 1.43141027633209E-0001	
 8.94500000000000E+0002	 1.42817418653449E-0001	
 8.96500000000000E+0002	 1.42595309673689E-0001	
 8.98500000000000E+0002	 1.42471200693928E-0001	
 9.00500000000000E+0002	 1.42429591714168E-0001	
 9.02500000000000E+0002	 1.42599982734407E-0001	
 9.04500000000000E+0002	 1.43128873754647E-0001	
 9.06500000000000E+0002	 1.44122264774886E-0001	
 9.08500000000000E+0002	 1.45471655795126E-0001	
 9.10500000000000E+0002	 1.46903046815366E-0001	
 9.12500000000000E+0002	 1.48006437835605E-0001	
 9.14500000000000E+0002	 1.48500828855845E-0001	
 9.16500000000000E+0002	 1.48280219876084E-0001	
 9.18500000000000E+0002	 1.47494110896324E-0001	
 9.20500000000000E+0002	 1.46395001916563E-0001	
 9.22500000000000E+0002	 1.45315892936803E-0001	
 9.24500000000000E+0002	 1.44441283957043E-0001	
 9.26500000000000E+0002	 1.43865174977282E-0001	
 9.28500000000000E+0002	 1.43529565997522E-0001	
 9.30500000000000E+0002	 1.43357457017761E-0001	
 9.32500000000000E+0002	 1.43231848038001E-0001	
 9.34500000000000E+0002	 1.43128739058240E-0001	
 9.36500000000000E+0002	 1.43029130078480E-0001	
 9.38500000000000E+0002	 1.42995021098720E-0001	
 9.40500000000000E+0002	 1.43057412118959E-0001	
 9.42500000000000E+0002	 1.43298303139199E-0001	
 9.44500000000000E+0002	 1.43724694159438E-0001	
 9.46500000000000E+0002	 1.44384585179678E-0001	
 9.48500000000000E+0002	 1.45307976199917E-0001	
 9.50500000000000E+0002	 1.46545867220157E-0001	
 9.52500000000000E+0002	 1.48093758240397E-0001	
 9.54500000000000E+0002	 1.49973649260636E-0001	
 9.56500000000000E+0002	 1.52113040280876E-0001	
 9.58500000000000E+0002	 1.54418931301115E-0001	
 9.60500000000000E+0002	 1.56750322321355E-0001	
 9.62500000000000E+0002	 1.58990713341594E-0001	
 9.64500000000000E+0002	 1.61035604361834E-0001	
 9.66500000000000E+0002	 1.62816995382074E-0001	
 9.68500000000000E+0002	 1.64264386402313E-0001	
 9.70500000000000E+0002	 1.65375277422553E-0001	
 9.72500000000000E+0002	 1.66173168442792E-0001	
 9.74500000000000E+0002	 1.66753559463032E-0001	
 9.76500000000000E+0002	 1.67236950483271E-0001	
 9.78500000000000E+0002	 1.67777841503511E-0001	
 9.80500000000000E+0002	 1.68507232523751E-0001	
 9.82500000000000E+0002	 1.69528123543990E-0001	
 9.84500000000000E+0002	 1.70796014564230E-0001	
 9.86500000000000E+0002	 1.72139905584469E-0001	
 9.88500000000000E+0002	 1.73333796604709E-0001	
 9.90500000000000E+0002	 1.74224687624948E-0001	
 9.92500000000000E+0002	 1.74803078645188E-0001	
 9.94500000000000E+0002	 1.75214969665428E-0001	
 9.96500000000000E+0002	 1.75649860685667E-0001	
 9.98500000000000E+0002	 1.76323251705907E-0001	
 1.00050000000000E+0003	 1.77432142726146E-0001	
 1.00250000000000E+0003	 1.79082533746386E-0001	
 1.00450000000000E+0003	 1.81282924766625E-0001	
 1.00650000000000E+0003	 1.84044815786865E-0001	
 1.00850000000000E+0003	 1.87287706807105E-0001	
 1.01050000000000E+0003	 1.90848597827344E-0001	
 1.01250000000000E+0003	 1.94599488847584E-0001	
 1.01450000000000E+0003	 1.98453879867823E-0001	
 1.01650000000000E+0003	 2.02398770888063E-0001	
 1.01850000000000E+0003	 2.06440161908302E-0001	
 1.02050000000000E+0003	 2.10553552928542E-0001	
 1.02250000000000E+0003	 2.14666943948781E-0001	
 1.02450000000000E+0003	 2.18780334969021E-0001	
 1.02650000000000E+0003	 2.22954225989261E-0001	
 1.02850000000000E+0003	 2.27167617009500E-0001	
 1.03050000000000E+0003	 2.31285008029740E-0001	
 1.03250000000000E+0003	 2.35152899049979E-0001	
 1.03450000000000E+0003	 2.38686790070219E-0001	
 1.03650000000000E+0003	 2.41770681090458E-0001	
 1.03850000000000E+0003	 2.44261072110698E-0001	
 1.04050000000000E+0003	 2.46171463130938E-0001	
 1.04250000000000E+0003	 2.47694854151177E-0001	
 1.04450000000000E+0003	 2.49124745171417E-0001	
 1.04650000000000E+0003	 2.50724636191656E-0001	
 1.04850000000000E+0003	 2.52577027211896E-0001	
 1.05050000000000E+0003	 2.54587418232135E-0001	
 1.05250000000000E+0003	 2.56511309252375E-0001	
 1.05450000000000E+0003	 2.58117200272615E-0001	
 1.05650000000000E+0003	 2.59356091292854E-0001	
 1.05850000000000E+0003	 2.60303482313094E-0001	
 1.06050000000000E+0003	 2.61072373333333E-0001	
 1.06250000000000E+0003	 2.61800264353573E-0001	
 1.06450000000000E+0003	 2.62596655373812E-0001	
 1.06650000000000E+0003	 2.63476046394052E-0001	
 1.06850000000000E+0003	 2.64276937414292E-0001	
 1.07050000000000E+0003	 2.64830828434531E-0001	
 1.07250000000000E+0003	 2.65088719454771E-0001	
 1.07450000000000E+0003	 2.65119610475010E-0001	
 1.07650000000000E+0003	 2.65012001495250E-0001	
 1.07850000000000E+0003	 2.64833392515489E-0001	
 1.08050000000000E+0003	 2.64575783535729E-0001	
 1.08250000000000E+0003	 2.64168174555969E-0001	
 1.08450000000000E+0003	 2.63479565576208E-0001	
 1.08650000000000E+0003	 2.62340456596448E-0001	
 1.08850000000000E+0003	 2.60593847616687E-0001	
 1.09050000000000E+0003	 2.58315238636927E-0001	
 1.09250000000000E+0003	 2.55853129657166E-0001	
 1.09450000000000E+0003	 2.53542520677406E-0001	
 1.09650000000000E+0003	 2.51479911697646E-0001	
 1.09850000000000E+0003	 2.49547302717885E-0001	
 1.10050000000000E+0003	 2.47537193738125E-0001	
 1.10250000000000E+0003	 2.45400084758364E-0001	
 1.10450000000000E+0003	 2.43185475778604E-0001	
 1.10650000000000E+0003	 2.41080366798843E-0001	
 1.10850000000000E+0003	 2.39358257819083E-0001	
 1.11050000000000E+0003	 2.38234648839323E-0001	
 1.11250000000000E+0003	 2.37684039859562E-0001	
 1.11450000000000E+0003	 2.37450930879802E-0001	
 1.11650000000000E+0003	 2.37160821900041E-0001	
 1.11850000000000E+0003	 2.36540712920281E-0001	
 1.12050000000000E+0003	 2.35429603940520E-0001	
 1.12250000000000E+0003	 2.33741994960760E-0001	
 1.12450000000000E+0003	 2.31462885981000E-0001	
 1.12650000000000E+0003	 2.28669777001239E-0001	
 1.12850000000000E+0003	 2.25435168021479E-0001	
 1.13050000000000E+0003	 2.21853059041718E-0001	
 1.13250000000000E+0003	 2.18098450061958E-0001	
 1.13450000000000E+0003	 2.14323841082197E-0001	
 1.13650000000000E+0003	 2.10621232102437E-0001	
 1.13850000000000E+0003	 2.07139623122677E-0001	
 1.14050000000000E+0003	 2.04040514142916E-0001	
 1.14250000000000E+0003	 2.01418905163156E-0001	
 1.14450000000000E+0003	 1.99327796183395E-0001	
 1.14650000000000E+0003	 1.97685687203635E-0001	
 1.14850000000000E+0003	 1.96306578223874E-0001	
 1.15050000000000E+0003	 1.94977469244114E-0001	
 1.15250000000000E+0003	 1.93549860264354E-0001	
 1.15450000000000E+0003	 1.91957251284593E-0001	
 1.15650000000000E+0003	 1.90252642304833E-0001	
 1.15850000000000E+0003	 1.88487033325072E-0001	
 1.16050000000000E+0003	 1.86718424345312E-0001	
 1.16250000000000E+0003	 1.84962315365551E-0001	
 1.16450000000000E+0003	 1.83251206385791E-0001	
 1.16650000000000E+0003	 1.81616097406031E-0001	
 1.16850000000000E+0003	 1.80084988426270E-0001	
 1.17050000000000E+0003	 1.78613879446510E-0001	
 1.17250000000000E+0003	 1.77073770466749E-0001	
 1.17450000000000E+0003	 1.75330161486989E-0001	
 1.17650000000000E+0003	 1.73408552507228E-0001	
 1.17850000000000E+0003	 1.71466943527468E-0001	
 1.18050000000000E+0003	 1.69699334547708E-0001	
 1.18250000000000E+0003	 1.68289225567947E-0001	
 1.18450000000000E+0003	 1.67348116588187E-0001	
 1.18650000000000E+0003	 1.66929007608426E-0001	
 1.18850000000000E+0003	 1.67048398628666E-0001	
 1.19050000000000E+0003	 1.67688289648905E-0001	
 1.19250000000000E+0003	 1.68817180669145E-0001	
 1.19450000000000E+0003	 1.70453571689385E-0001	
 1.19650000000000E+0003	 1.72563962709624E-0001	
 1.19850000000000E+0003	 1.75113853729864E-0001	
 1.20050000000000E+0003	 1.78054744750103E-0001	
 1.20250000000000E+0003	 1.81331135770343E-0001	
 1.20450000000000E+0003	 1.84841526790582E-0001	
 1.20650000000000E+0003	 1.88506917810822E-0001	
 1.20850000000000E+0003	 1.92227808831062E-0001	
 1.21050000000000E+0003	 1.95950699851301E-0001	
 1.21250000000000E+0003	 1.99640590871541E-0001	
 1.21450000000000E+0003	 2.03225981891780E-0001	
 1.21650000000000E+0003	 2.06822372912020E-0001	
 1.21850000000000E+0003	 2.10779263932259E-0001	
 1.22050000000000E+0003	 2.14764654952499E-0001	
 1.22250000000000E+0003	 2.17909045972739E-0001	
 1.22450000000000E+0003	 2.20201936992978E-0001	
 1.22650000000000E+0003	 2.22224828013218E-0001	
 1.22850000000000E+0003	 2.24272219033457E-0001	
 1.23050000000000E+0003	 2.26333610053697E-0001	
 1.23250000000000E+0003	 2.28317501073936E-0001	
 1.23450000000000E+0003	 2.30090892094176E-0001	
 1.23650000000000E+0003	 2.31527783114416E-0001	
 1.23850000000000E+0003	 2.32509174134655E-0001	
 1.24050000000000E+0003	 2.32977565154895E-0001	
 1.24250000000000E+0003	 2.32910456175134E-0001	
 1.24450000000000E+0003	 2.32339347195374E-0001	
 1.24650000000000E+0003	 2.31327238215613E-0001	
 1.24850000000000E+0003	 2.29918129235853E-0001	
 1.25050000000000E+0003	 2.28165520256093E-0001	
 1.25250000000000E+0003	 2.26152911276332E-0001	
 1.25450000000000E+0003	 2.23963802296572E-0001	
 1.25650000000000E+0003	 2.21660193316811E-0001	
 1.25850000000000E+0003	 2.19243084337051E-0001	
 1.26050000000000E+0003	 2.16729975357290E-0001	
 1.26250000000000E+0003	 2.14153866377530E-0001	
 1.26450000000000E+0003	 2.11546757397770E-0001	
 1.26650000000000E+0003	 2.08984648418009E-0001	
 1.26850000000000E+0003	 2.06579039438249E-0001	
 1.27050000000000E+0003	 2.04405430458488E-0001	
 1.27250000000000E+0003	 2.02508821478728E-0001	
 1.27450000000000E+0003	 2.00872212498967E-0001	
 1.27650000000000E+0003	 1.99478103519207E-0001	
 1.27850000000000E+0003	 1.98287494539447E-0001	
 1.28050000000000E+0003	 1.97259885559686E-0001	
 1.28250000000000E+0003	 1.96316276579926E-0001	
 1.28450000000000E+0003	 1.95405167600165E-0001	
 1.28650000000000E+0003	 1.94505558620405E-0001	
 1.28850000000000E+0003	 1.93712449640644E-0001	
 1.29050000000000E+0003	 1.93093840660884E-0001	
 1.29250000000000E+0003	 1.92605731681124E-0001	
 1.29450000000000E+0003	 1.92170122701363E-0001	
 1.29650000000000E+0003	 1.91836513721603E-0001	
 1.29850000000000E+0003	 1.91674404741842E-0001	
 1.30050000000000E+0003	 1.91646295762082E-0001	
 1.30250000000000E+0003	 1.91653186782321E-0001	
 1.30450000000000E+0003	 1.91642577802561E-0001	
 1.30650000000000E+0003	 1.91559968822800E-0001	
 1.30850000000000E+0003	 1.91434859843040E-0001	
 1.31050000000000E+0003	 1.91187250863280E-0001	
 1.31250000000000E+0003	 1.90752141883519E-0001	
 1.31450000000000E+0003	 1.90192532903759E-0001	
 1.31650000000000E+0003	 1.89496423923998E-0001	
 1.31850000000000E+0003	 1.88648314944238E-0001	
 1.32050000000000E+0003	 1.87793705964477E-0001	
 1.32250000000000E+0003	 1.86950096984717E-0001	
 1.32450000000000E+0003	 1.86180988004957E-0001	
 1.32650000000000E+0003	 1.85521879025196E-0001	
 1.32850000000000E+0003	 1.85018270045436E-0001	
 1.33050000000000E+0003	 1.84646161065675E-0001	
 1.33250000000000E+0003	 1.84388052085915E-0001	
 1.33450000000000E+0003	 1.84076443106154E-0001	
 1.33650000000000E+0003	 1.83598334126394E-0001	
 1.33850000000000E+0003	 1.83007225146634E-0001	
 1.34050000000000E+0003	 1.82731616166873E-0001	
 1.34250000000000E+0003	 1.82681507187113E-0001	
 1.34450000000000E+0003	 1.82445898207352E-0001	
 1.34650000000000E+0003	 1.82115289227592E-0001	
 1.34850000000000E+0003	 1.82000180247831E-0001	
 1.35050000000000E+0003	 1.82191071268071E-0001	
 1.35250000000000E+0003	 1.82708462288311E-0001	
 1.35450000000000E+0003	 1.83490353308550E-0001	
 1.35650000000000E+0003	 1.84510744328790E-0001	
 1.35850000000000E+0003	 1.85552635349029E-0001	
 1.36050000000000E+0003	 1.86516526369269E-0001	
 1.36250000000000E+0003	 1.87751917389508E-0001	
 1.36450000000000E+0003	 1.89625308409748E-0001	
 1.36650000000000E+0003	 1.91946699429988E-0001	
 1.36850000000000E+0003	 1.94329090450227E-0001	
 1.37050000000000E+0003	 1.96180981470467E-0001	
 1.37250000000000E+0003	 1.97729872490706E-0001	
 1.37450000000000E+0003	 1.99359763510946E-0001	
 1.37650000000000E+0003	 2.01039154531185E-0001	
 1.37850000000000E+0003	 2.02635545551425E-0001	
 1.38050000000000E+0003	 2.04421436571665E-0001	
 1.38250000000000E+0003	 2.06377827591904E-0001	
 1.38450000000000E+0003	 2.08165718612144E-0001	
 1.38650000000000E+0003	 2.09495109632383E-0001	
 1.38850000000000E+0003	 2.10880000652623E-0001	
 1.39050000000000E+0003	 2.12328391672862E-0001	
 1.39250000000000E+0003	 2.13489782693102E-0001	
 1.39450000000000E+0003	 2.14416673713342E-0001	
 1.39650000000000E+0003	 2.15214064733581E-0001	
 1.39850000000000E+0003	 2.16009455753821E-0001	
 1.40050000000000E+0003	 2.16491346774060E-0001	
 1.40250000000000E+0003	 2.16365237794300E-0001	
 1.40450000000000E+0003	 2.15794628814539E-0001	
 1.40650000000000E+0003	 2.14967519834779E-0001	
 1.40850000000000E+0003	 2.13904910855019E-0001	
 1.41050000000000E+0003	 2.12785301875258E-0001	
 1.41250000000000E+0003	 2.11641692895498E-0001	
 1.41450000000000E+0003	 2.10432583915737E-0001	
 1.41650000000000E+0003	 2.08716474935977E-0001	
 1.41850000000000E+0003	 2.06649865956216E-0001	
 1.42050000000000E+0003	 2.04596256976456E-0001	
 1.42250000000000E+0003	 2.03347147996696E-0001	
 1.42450000000000E+0003	 2.01867539016935E-0001	
 1.42650000000000E+0003	 2.00124430037175E-0001	
 1.42850000000000E+0003	 1.98725321057414E-0001	
 1.43050000000000E+0003	 1.97971712077654E-0001	
 1.43250000000000E+0003	 1.97601103097893E-0001	
 1.43450000000000E+0003	 1.97647994118133E-0001	
 1.43650000000000E+0003	 1.98160385138373E-0001	
 1.43850000000000E+0003	 1.99773276158612E-0001	
 1.44050000000000E+0003	 2.01767167178852E-0001	
 1.44250000000000E+0003	 2.03407058199091E-0001	
 1.44450000000000E+0003	 2.04603949219331E-0001	
 1.44650000000000E+0003	 2.05844840239570E-0001	
 1.44850000000000E+0003	 2.06967231259810E-0001	
 1.45050000000000E+0003	 2.07962622280050E-0001	
 1.45250000000000E+0003	 2.08605513300289E-0001	
 1.45450000000000E+0003	 2.07998904320529E-0001	
 1.45650000000000E+0003	 2.06141295340768E-0001	
 1.45850000000000E+0003	 2.05234686361008E-0001	
 1.46050000000000E+0003	 2.04700077381247E-0001	
 1.46250000000000E+0003	 2.03552468401487E-0001	
 1.46450000000000E+0003	 2.02003359421727E-0001	
 1.46650000000000E+0003	 2.00521250441966E-0001	
 1.46850000000000E+0003	 1.98953641462206E-0001	
 1.47050000000000E+0003	 1.96719032482445E-0001	
 1.47250000000000E+0003	 1.93581423502685E-0001	
 1.47450000000000E+0003	 1.90896314522924E-0001	
 1.47650000000000E+0003	 1.89736205543164E-0001	
 1.47850000000000E+0003	 1.89144596563404E-0001	
 1.48050000000000E+0003	 1.89030987583643E-0001	
 1.48250000000000E+0003	 1.89606878603883E-0001	
 1.48450000000000E+0003	 1.90661269624122E-0001	
 1.48650000000000E+0003	 1.92353160644362E-0001	
 1.48850000000000E+0003	 1.94444551664601E-0001	
 1.49050000000000E+0003	 1.97261442684841E-0001	
 1.49250000000000E+0003	 2.00432833705081E-0001	
 1.49450000000000E+0003	 2.03458724725320E-0001	
 1.49650000000000E+0003	 2.06774115745560E-0001	
 1.49850000000000E+0003	 2.11319006765799E-0001	
 1.50050000000000E+0003	 2.15594897786039E-0001	
 1.50250000000000E+0003	 2.19452288806278E-0001	
 1.50450000000000E+0003	 2.22453679826518E-0001	
 1.50650000000000E+0003	 2.27060570846758E-0001	
 1.50850000000000E+0003	 2.33283461866997E-0001	
 1.51050000000000E+0003	 2.40287352887237E-0001	
 1.51250000000000E+0003	 2.46981743907476E-0001	
 1.51450000000000E+0003	 2.53041634927716E-0001	
 1.51650000000000E+0003	 2.58506025947955E-0001	
 1.51850000000000E+0003	 2.62399916968195E-0001	
 1.52050000000000E+0003	 2.64726807988435E-0001	
 1.52250000000000E+0003	 2.68421699008674E-0001	
 1.52450000000000E+0003	 2.72820590028914E-0001	
 1.52650000000000E+0003	 2.77397981049153E-0001	
 1.52850000000000E+0003	 2.81835872069393E-0001	
 1.53050000000000E+0003	 2.85649763089632E-0001	
 1.53250000000000E+0003	 2.89362154109872E-0001	
 1.53450000000000E+0003	 2.93019545130112E-0001	
 1.53650000000000E+0003	 2.95085936150351E-0001	
 1.53850000000000E+0003	 2.96231327170591E-0001	
 1.54050000000000E+0003	 2.98721718190830E-0001	
 1.54250000000000E+0003	 3.00641109211070E-0001	
 1.54450000000000E+0003	 3.01976500231309E-0001	
 1.54650000000000E+0003	 3.02243391251549E-0001	
 1.54850000000000E+0003	 3.01393282271789E-0001	
 1.55050000000000E+0003	 2.99230173292028E-0001	
 1.55250000000000E+0003	 2.95839064312268E-0001	
 1.55450000000000E+0003	 2.91461455332507E-0001	
 1.55650000000000E+0003	 2.86777346352747E-0001	
 1.55850000000000E+0003	 2.81702237372986E-0001	
 1.56050000000000E+0003	 2.75549128393226E-0001	
 1.56250000000000E+0003	 2.72099519413466E-0001	
 1.56450000000000E+0003	 2.70483410433705E-0001	
 1.56650000000000E+0003	 2.67078301453945E-0001	
 1.56850000000000E+0003	 2.63987192474184E-0001	
 1.57050000000000E+0003	 2.60985083494424E-0001	
 1.57250000000000E+0003	 2.57902974514663E-0001	
 1.57450000000000E+0003	 2.54689865534903E-0001	
 1.57650000000000E+0003	 2.51276256555143E-0001	
 1.57850000000000E+0003	 2.49342647575382E-0001	
 1.58050000000000E+0003	 2.48737038595622E-0001	
 1.58250000000000E+0003	 2.47346429615861E-0001	
 1.58450000000000E+0003	 2.46355320636101E-0001	
 1.58650000000000E+0003	 2.45919711656340E-0001	
 1.58850000000000E+0003	 2.46292102676580E-0001	
 1.59050000000000E+0003	 2.47255993696819E-0001	
 1.59250000000000E+0003	 2.48969384717059E-0001	
 1.59450000000000E+0003	 2.51081275737299E-0001	
 1.59650000000000E+0003	 2.53615166757538E-0001	
 1.59850000000000E+0003	 2.56255557777778E-0001	
 1.60050000000000E+0003	 2.59333448798017E-0001	
 1.60250000000000E+0003	 2.62712339818257E-0001	
 1.60450000000000E+0003	 2.66602230838496E-0001	
 1.60650000000000E+0003	 2.70860621858736E-0001	
 1.60850000000000E+0003	 2.75978012878976E-0001	
 1.61050000000000E+0003	 2.81774403899215E-0001	
 1.61250000000000E+0003	 2.88231794919455E-0001	
 1.61450000000000E+0003	 2.94402685939694E-0001	
 1.61650000000000E+0003	 3.01719576959934E-0001	
 1.61850000000000E+0003	 3.10515467980173E-0001	
 1.62050000000000E+0003	 3.19578359000413E-0001	
 1.62250000000000E+0003	 3.29127750020653E-0001	
 1.62450000000000E+0003	 3.39328641040892E-0001	
 1.62650000000000E+0003	 3.48934032061132E-0001	
 1.62850000000000E+0003	 3.59023923081371E-0001	
 1.63050000000000E+0003	 3.68437814101611E-0001	
 1.63250000000000E+0003	 3.76643705121850E-0001	
 1.63450000000000E+0003	 3.84316596142090E-0001	
 1.63650000000000E+0003	 3.92307487162330E-0001	
 1.63850000000000E+0003	 3.98259378182569E-0001	
 1.64050000000000E+0003	 4.02850269202809E-0001	
 1.64250000000000E+0003	 4.06112160223048E-0001	
 1.64450000000000E+0003	 4.08104551243288E-0001	
 1.64650000000000E+0003	 4.10756942263527E-0001	
 1.64850000000000E+0003	 4.13509833283767E-0001	
 1.65050000000000E+0003	 4.13902224304007E-0001	
 1.65250000000000E+0003	 4.13481115324246E-0001	
 1.65450000000000E+0003	 4.14768006344486E-0001	
 1.65650000000000E+0003	 4.15817397364725E-0001	
 1.65850000000000E+0003	 4.15729288384965E-0001	
 1.66050000000000E+0003	 4.13156179405204E-0001	
 1.66250000000000E+0003	 4.09530570425444E-0001	
 1.66450000000000E+0003	 4.04655961445684E-0001	
 1.66650000000000E+0003	 3.99561852465923E-0001	
 1.66850000000000E+0003	 3.94541243486163E-0001	
 1.67050000000000E+0003	 3.89090634506402E-0001	
 1.67250000000000E+0003	 3.83517525526642E-0001	
 1.67450000000000E+0003	 3.78274416546881E-0001	
 1.67650000000000E+0003	 3.72548307567121E-0001	
 1.67850000000000E+0003	 3.67314698587361E-0001	
 1.68050000000000E+0003	 3.62374089607600E-0001	
 1.68250000000000E+0003	 3.56915480627840E-0001	
 1.68450000000000E+0003	 3.50261871648079E-0001	
 1.68650000000000E+0003	 3.43329262668319E-0001	
 1.68850000000000E+0003	 3.39440153688558E-0001	
 1.69050000000000E+0003	 3.34368044708798E-0001	
 1.69250000000000E+0003	 3.27810435729038E-0001	
 1.69450000000000E+0003	 3.20161826749277E-0001	
 1.69650000000000E+0003	 3.11565217769517E-0001	
 1.69850000000000E+0003	 3.05067608789756E-0001	
 1.70050000000000E+0003	 2.98843999809996E-0001	
 1.70250000000000E+0003	 2.92196890830235E-0001	
 1.70450000000000E+0003	 2.88264781850475E-0001	
 1.70650000000000E+0003	 2.83280672870715E-0001	
 1.70850000000000E+0003	 2.77536063890954E-0001	
 1.71050000000000E+0003	 2.72359454911194E-0001	
 1.71250000000000E+0003	 2.67162345931433E-0001	
 1.71450000000000E+0003	 2.61590736951673E-0001	
 1.71650000000000E+0003	 2.54912127971912E-0001	
 1.71850000000000E+0003	 2.48299018992152E-0001	
 1.72050000000000E+0003	 2.42782910012392E-0001	
 1.72250000000000E+0003	 2.37779301032631E-0001	
 1.72450000000000E+0003	 2.32403192052871E-0001	
 1.72650000000000E+0003	 2.27397083073110E-0001	
 1.72850000000000E+0003	 2.23036474093350E-0001	
 1.73050000000000E+0003	 2.18989365113589E-0001	
 1.73250000000000E+0003	 2.14502756133829E-0001	
 1.73450000000000E+0003	 2.10831647154069E-0001	
 1.73650000000000E+0003	 2.08810538174308E-0001	
 1.73850000000000E+0003	 2.08448929194548E-0001	
 1.74050000000000E+0003	 2.07228820214787E-0001	
 1.74250000000000E+0003	 2.05373211235027E-0001	
 1.74450000000000E+0003	 2.03669102255266E-0001	
 1.74650000000000E+0003	 2.01934493275506E-0001	
 1.74850000000000E+0003	 1.99820884295746E-0001	
 1.75050000000000E+0003	 1.96803775315985E-0001	
 1.75250000000000E+0003	 1.93782166336225E-0001	
 1.75450000000000E+0003	 1.91889557356464E-0001	
 1.75650000000000E+0003	 1.89779448376704E-0001	
 1.75850000000000E+0003	 1.86958339396943E-0001	
 1.76050000000000E+0003	 1.84256230417183E-0001	
 1.76250000000000E+0003	 1.81777121437423E-0001	
 1.76450000000000E+0003	 1.79103012457662E-0001	
 1.76650000000000E+0003	 1.76793403477902E-0001	
 1.76850000000000E+0003	 1.74510794498141E-0001	
 1.77050000000000E+0003	 1.72878685518381E-0001	
 1.77250000000000E+0003	 1.71287576538620E-0001	
 1.77450000000000E+0003	 1.69394467558860E-0001	
 1.77650000000000E+0003	 1.68446358579100E-0001	
 1.77850000000000E+0003	 1.67462749599339E-0001	
 1.78050000000000E+0003	 1.66406640619579E-0001	
 1.78250000000000E+0003	 1.65270531639818E-0001	
 1.78450000000000E+0003	 1.64069922660058E-0001	
 1.78650000000000E+0003	 1.63129313680297E-0001	
 1.78850000000000E+0003	 1.62221204700537E-0001	
 1.79050000000000E+0003	 1.61359595720777E-0001	
 1.79250000000000E+0003	 1.60567486741016E-0001	
 1.79450000000000E+0003	 1.59653377761256E-0001	
 1.79650000000000E+0003	 1.59089268781495E-0001	
 1.79850000000000E+0003	 1.58689659801735E-0001	
 1.80050000000000E+0003	 1.58052050821974E-0001	
 1.80250000000000E+0003	 1.57306941842214E-0001	
 1.80450000000000E+0003	 1.56735832862454E-0001	
 1.80650000000000E+0003	 1.56248723882693E-0001	
 1.80850000000000E+0003	 1.55682614902933E-0001	
 1.81050000000000E+0003	 1.55268005923172E-0001	
 1.81250000000000E+0003	 1.54726396943412E-0001	
 1.81450000000000E+0003	 1.54198787963651E-0001	
 1.81650000000000E+0003	 1.53682178983891E-0001	
 1.81850000000000E+0003	 1.53226570004131E-0001	
 1.82050000000000E+0003	 1.52760461024370E-0001	
 1.82250000000000E+0003	 1.52245852044610E-0001	
 1.82450000000000E+0003	 1.51845243064849E-0001	
 1.82650000000000E+0003	 1.51428134085089E-0001	
 1.82850000000000E+0003	 1.51189025105328E-0001	
 1.83050000000000E+0003	 1.51109416125568E-0001	
 1.83250000000000E+0003	 1.50329807145808E-0001	
 1.83450000000000E+0003	 1.49863698166047E-0001	
 1.83650000000000E+0003	 1.49605089186287E-0001	
 1.83850000000000E+0003	 1.49278980206526E-0001	
 1.84050000000000E+0003	 1.48748371226766E-0001	
 1.84250000000000E+0003	 1.48128762247005E-0001	
 1.84450000000000E+0003	 1.47753153267245E-0001	
 1.84650000000000E+0003	 1.47415544287485E-0001	
 1.84850000000000E+0003	 1.47495435307724E-0001	
 1.85050000000000E+0003	 1.47472326327964E-0001	
 1.85250000000000E+0003	 1.47293717348203E-0001	
 1.85450000000000E+0003	 1.47071108368443E-0001	
 1.85650000000000E+0003	 1.46808999388682E-0001	
 1.85850000000000E+0003	 1.46544890408922E-0001	
 1.86050000000000E+0003	 1.46287781429162E-0001	
 1.86250000000000E+0003	 1.46060172449401E-0001	
 1.86450000000000E+0003	 1.45822063469641E-0001	
 1.86650000000000E+0003	 1.45628954489880E-0001	
 1.86850000000000E+0003	 1.45600845510120E-0001	
 1.87050000000000E+0003	 1.45315736530359E-0001	
 1.87250000000000E+0003	 1.45028127550599E-0001	
 1.87450000000000E+0003	 1.45024018570838E-0001	
 1.87650000000000E+0003	 1.44921409591078E-0001	
 1.87850000000000E+0003	 1.44768300611318E-0001	
 1.88050000000000E+0003	 1.44626191631557E-0001	
 1.88250000000000E+0003	 1.44501082651797E-0001	
 1.88450000000000E+0003	 1.44388973672036E-0001	
 1.88650000000000E+0003	 1.44210864692276E-0001	
 1.88850000000000E+0003	 1.44167755712515E-0001	
 1.89050000000000E+0003	 1.44125646732755E-0001	
 1.89250000000000E+0003	 1.43874537752995E-0001	
 1.89450000000000E+0003	 1.43795928773234E-0001	
 1.89650000000000E+0003	 1.43744319793474E-0001	
 1.89850000000000E+0003	 1.43630710813713E-0001	
 1.90050000000000E+0003	 1.43552101833953E-0001	
 1.90250000000000E+0003	 1.43463992854192E-0001	
 1.90450000000000E+0003	 1.43385383874432E-0001	
 1.90650000000000E+0003	 1.43264274894672E-0001	
 1.90850000000000E+0003	 1.43187665914911E-0001	
 1.91050000000000E+0003	 1.43141556935151E-0001	
 1.91250000000000E+0003	 1.43066447955390E-0001	
 1.91450000000000E+0003	 1.42915838975630E-0001	
 1.91650000000000E+0003	 1.42807729995869E-0001	
 1.91850000000000E+0003	 1.42777121016109E-0001	
 1.92050000000000E+0003	 1.42624012036349E-0001	
 1.92250000000000E+0003	 1.42689903056588E-0001	
 1.92450000000000E+0003	 1.42776794076828E-0001	
 1.92650000000000E+0003	 1.42752685097067E-0001	
 1.92850000000000E+0003	 1.42772576117307E-0001	
 1.93050000000000E+0003	 1.42752467137546E-0001	
 1.93250000000000E+0003	 1.42741858157786E-0001	
 1.93450000000000E+0003	 1.42731749178026E-0001	
 1.93650000000000E+0003	 1.42734640198265E-0001	
 1.93850000000000E+0003	 1.42686031218505E-0001	
 1.94050000000000E+0003	 1.42614422238744E-0001	
 1.94250000000000E+0003	 1.42676813258984E-0001	
 1.94450000000000E+0003	 1.42683704279223E-0001	
 1.94650000000000E+0003	 1.42677095299463E-0001	
 1.94850000000000E+0003	 1.42707486319703E-0001	
 1.95050000000000E+0003	 1.42703377339942E-0001	
 1.95250000000000E+0003	 1.42702268360182E-0001	
 1.95450000000000E+0003	 1.42693159380421E-0001	
 1.95650000000000E+0003	 1.42703550400661E-0001	
 1.95850000000000E+0003	 1.42715941420900E-0001	
 1.96050000000000E+0003	 1.42714832441140E-0001	
 1.96250000000000E+0003	 1.42705223461380E-0001	
 1.96450000000000E+0003	 1.42660614481619E-0001	
 1.96650000000000E+0003	 1.42655505501859E-0001	
 1.96850000000000E+0003	 1.42680896522098E-0001	
 1.97050000000000E+0003	 1.42691787542338E-0001	
 1.97250000000000E+0003	 1.42717178562577E-0001	
 1.97450000000000E+0003	 1.42726569582817E-0001	
 1.97650000000000E+0003	 1.42731960603057E-0001	
 1.97850000000000E+0003	 1.42736851623296E-0001	
 1.98050000000000E+0003	 1.42743742643536E-0001	
 1.98250000000000E+0003	 1.42753633663775E-0001	
 1.98450000000000E+0003	 1.42742024684015E-0001	
 1.98650000000000E+0003	 1.42718915704254E-0001	
 1.98850000000000E+0003	 1.42678306724494E-0001	
 1.99050000000000E+0003	 1.42661697744734E-0001	
 1.99250000000000E+0003	 1.42720088764973E-0001	
 1.99450000000000E+0003	 1.42747479785213E-0001	
 1.99650000000000E+0003	 1.42797870805452E-0001	
 1.99850000000000E+0003	 1.42852261825692E-0001	
 2.00050000000000E+0003	 1.42874652845931E-0001	
 2.00250000000000E+0003	 1.42898543866171E-0001	
 2.00450000000000E+0003	 1.42922434886411E-0001	
 2.00650000000000E+0003	 1.42948825906650E-0001	
 2.00850000000000E+0003	 1.42980216926890E-0001	
 2.01050000000000E+0003	 1.43017607947129E-0001	
 2.01250000000000E+0003	 1.43045998967369E-0001	
 2.01450000000000E+0003	 1.43050389987608E-0001	
 2.01650000000000E+0003	 1.43067281007848E-0001	
 2.01850000000000E+0003	 1.43118672028088E-0001	
 2.02050000000000E+0003	 1.43190063048327E-0001	
 2.02250000000000E+0003	 1.43275954068567E-0001	
 2.02450000000000E+0003	 1.43338845088806E-0001	
 2.02650000000000E+0003	 1.43408236109046E-0001	
 2.02850000000000E+0003	 1.43468127129285E-0001	
 2.03050000000000E+0003	 1.43521018149525E-0001	
 2.03250000000000E+0003	 1.43572409169765E-0001	
 2.03450000000000E+0003	 1.43628800190004E-0001	
 2.03650000000000E+0003	 1.43674191210244E-0001	
 2.03850000000000E+0003	 1.43703582230483E-0001	
 2.04050000000000E+0003	 1.43724973250723E-0001	
 2.04250000000000E+0003	 1.43774864270962E-0001	
 2.04450000000000E+0003	 1.43836755291202E-0001	
 2.04650000000000E+0003	 1.43896646311442E-0001	
 2.04850000000000E+0003	 1.43944537331681E-0001	
 2.05050000000000E+0003	 1.43989428351921E-0001	
 2.05250000000000E+0003	 1.44026819372160E-0001	
 2.05450000000000E+0003	 1.44065710392400E-0001	
 2.05650000000000E+0003	 1.44102601412639E-0001	
 2.05850000000000E+0003	 1.44138992432879E-0001	
 2.06050000000000E+0003	 1.44170383453119E-0001	
 2.06250000000000E+0003	 1.44180774473358E-0001	
 2.06450000000000E+0003	 1.44198165493598E-0001	
 2.06650000000000E+0003	 1.44244556513837E-0001	
 2.06850000000000E+0003	 1.44303947534077E-0001	
 2.07050000000000E+0003	 1.44355338554316E-0001	
 2.07250000000000E+0003	 1.44390229574556E-0001	
 2.07450000000000E+0003	 1.44419620594796E-0001	
 2.07650000000000E+0003	 1.44445511615035E-0001	
 2.07850000000000E+0003	 1.44464902635275E-0001	
 2.08050000000000E+0003	 1.44486293655514E-0001	
 2.08250000000000E+0003	 1.44510684675754E-0001	
 2.08450000000000E+0003	 1.44531075695993E-0001	
 2.08650000000000E+0003	 1.44536966716233E-0001	
 2.08850000000000E+0003	 1.44535357736473E-0001	
 2.09050000000000E+0003	 1.44549248756712E-0001	
 2.09250000000000E+0003	 1.44574639776952E-0001	
 2.09450000000000E+0003	 1.44597530797191E-0001	
 2.09650000000000E+0003	 1.44611921817431E-0001	
 2.09850000000000E+0003	 1.44623312837670E-0001	
 2.10050000000000E+0003	 1.44628703857910E-0001	
 2.10250000000000E+0003	 1.44630094878150E-0001	
 2.10450000000000E+0003	 1.44625485898389E-0001	
 2.10650000000000E+0003	 1.44624376918629E-0001	
 2.10850000000000E+0003	 1.44620767938868E-0001	
 2.11050000000000E+0003	 1.44616158959108E-0001	
 2.11250000000000E+0003	 1.44599549979347E-0001	
 2.11450000000000E+0003	 1.44578940999587E-0001	
 2.11650000000000E+0003	 1.44567832019827E-0001	
 2.11850000000000E+0003	 1.44565723040066E-0001	
 2.12050000000000E+0003	 1.44556614060306E-0001	
 2.12250000000000E+0003	 1.44544505080545E-0001	
 2.12450000000000E+0003	 1.44532396100785E-0001	
 2.12650000000000E+0003	 1.44518287121024E-0001	
 2.12850000000000E+0003	 1.44503178141264E-0001	
 2.13050000000000E+0003	 1.44490069161504E-0001	
 2.13250000000000E+0003	 1.44473960181743E-0001	
 2.13450000000000E+0003	 1.44448851201983E-0001	
 2.13650000000000E+0003	 1.44424242222222E-0001	
 2.13850000000000E+0003	 1.44403133242462E-0001	
 2.14050000000000E+0003	 1.44385024262701E-0001	
 2.14250000000000E+0003	 1.44369415282941E-0001	
 2.14450000000000E+0003	 1.44348306303181E-0001	
 2.14650000000000E+0003	 1.44321197323420E-0001	
 2.14850000000000E+0003	 1.44291588343660E-0001	
 2.15050000000000E+0003	 1.44259479363899E-0001	
 2.15250000000000E+0003	 1.44220870384139E-0001	
 2.15450000000000E+0003	 1.44186261404378E-0001	
 2.15650000000000E+0003	 1.44150152424618E-0001	
 2.15850000000000E+0003	 1.44113043444857E-0001	
 2.16050000000000E+0003	 1.44068934465097E-0001	
 2.16250000000000E+0003	 1.44029325485337E-0001	
 2.16450000000000E+0003	 1.43992216505576E-0001	
 2.16650000000000E+0003	 1.43963107525816E-0001	
 2.16850000000000E+0003	 1.43933498546055E-0001	
 2.17050000000000E+0003	 1.43895889566295E-0001	
 2.17250000000000E+0003	 1.43841280586534E-0001	
 2.17450000000000E+0003	 1.43787671606774E-0001	
 2.17650000000000E+0003	 1.43738062627014E-0001	
 2.17850000000000E+0003	 1.43693453647253E-0001	
 2.18050000000000E+0003	 1.43651344667493E-0001	
 2.18250000000000E+0003	 1.43611235687732E-0001	
 2.18450000000000E+0003	 1.43573626707972E-0001	
 2.18650000000000E+0003	 1.43539517728211E-0001	
 2.18850000000000E+0003	 1.43502408748451E-0001	
 2.19050000000000E+0003	 1.43460299768691E-0001	
 2.19250000000000E+0003	 1.43420190788930E-0001	
 2.19450000000000E+0003	 1.43378081809170E-0001	
 2.19650000000000E+0003	 1.43340472829409E-0001	
 2.19850000000000E+0003	 1.43300363849649E-0001	
 2.20050000000000E+0003	 1.43256754869888E-0001	
 2.20250000000000E+0003	 1.43212645890128E-0001	
 2.20450000000000E+0003	 1.43173536910368E-0001	
 2.20650000000000E+0003	 1.43134927930607E-0001	
 2.20850000000000E+0003	 1.43097818950847E-0001	
 2.21050000000000E+0003	 1.43060709971086E-0001	
 2.21250000000000E+0003	 1.43021600991326E-0001	
 2.21450000000000E+0003	 1.42979492011565E-0001	
 2.21650000000000E+0003	 1.42940883031805E-0001	
 2.21850000000000E+0003	 1.42899274052045E-0001	
 2.22050000000000E+0003	 1.42855165072284E-0001	
 2.22250000000000E+0003	 1.42815056092524E-0001	
 2.22450000000000E+0003	 1.42773447112763E-0001	
 2.22650000000000E+0003	 1.42732338133003E-0001	
 2.22850000000000E+0003	 1.42687229153242E-0001	
 2.23050000000000E+0003	 1.42639120173482E-0001	
 2.23250000000000E+0003	 1.42590511193722E-0001	
 2.23450000000000E+0003	 1.42542902213961E-0001	
 2.23650000000000E+0003	 1.42491293234201E-0001	
 2.23850000000000E+0003	 1.42440184254440E-0001	
 2.24050000000000E+0003	 1.42390575274680E-0001	
 2.24250000000000E+0003	 1.42345466294919E-0001	
 2.24450000000000E+0003	 1.42298857315159E-0001	
 2.24650000000000E+0003	 1.42252748335399E-0001	
 2.24850000000000E+0003	 1.42209639355638E-0001	
 2.25050000000000E+0003	 1.42163530375878E-0001	
 2.25250000000000E+0003	 1.42114921396117E-0001	
 2.25450000000000E+0003	 1.42068812416357E-0001	
 2.25650000000000E+0003	 1.42024203436596E-0001	
 2.25850000000000E+0003	 1.41986594456836E-0001	
 2.26050000000000E+0003	 1.41948985477076E-0001	
 2.26250000000000E+0003	 1.41912876497315E-0001	
 2.26450000000000E+0003	 1.41879267517555E-0001	
 2.26650000000000E+0003	 1.41852158537794E-0001	
 2.26850000000000E+0003	 1.41826049558034E-0001	
 2.27050000000000E+0003	 1.41797440578273E-0001	
 2.27250000000000E+0003	 1.41766331598513E-0001	
 2.27450000000000E+0003	 1.41733222618753E-0001	
 2.27650000000000E+0003	 1.41696113638992E-0001	
 2.27850000000000E+0003	 1.41658504659232E-0001	
 2.28050000000000E+0003	 1.41613395679471E-0001	
 2.28250000000000E+0003	 1.41564786699711E-0001	
 2.28450000000000E+0003	 1.41511677719950E-0001	
 2.28650000000000E+0003	 1.41439568740190E-0001	
 2.28850000000000E+0003	 1.41338459760430E-0001	
 2.29050000000000E+0003	 1.41222350780669E-0001	
 2.29250000000000E+0003	 1.41084741800909E-0001	
 2.29450000000000E+0003	 1.40938132821148E-0001	
 2.29650000000000E+0003	 1.40795523841388E-0001	
 2.29850000000000E+0003	 1.40678414861627E-0001	
 2.30050000000000E+0003	 1.40608305881867E-0001	
 2.30250000000000E+0003	 1.40608696902107E-0001	
 2.30450000000000E+0003	 1.40608087922346E-0001	
 2.30650000000000E+0003	 1.40547978942586E-0001	
 2.30850000000000E+0003	 1.40502869962825E-0001	
 2.31050000000000E+0003	 1.40555260983065E-0001	
 2.31250000000000E+0003	 1.40707152003304E-0001	
 2.31450000000000E+0003	 1.40782543023544E-0001	
 2.31650000000000E+0003	 1.40683934043784E-0001	
 2.31850000000000E+0003	 1.40551825064023E-0001	
 2.32050000000000E+0003	 1.40381716084263E-0001	
 2.32250000000000E+0003	 1.40209107104502E-0001	
 2.32450000000000E+0003	 1.40138498124742E-0001	
 2.32650000000000E+0003	 1.40213389144981E-0001	
 2.32850000000000E+0003	 1.40422280165221E-0001	
 2.33050000000000E+0003	 1.40583671185461E-0001	
 2.33250000000000E+0003	 1.40699062205700E-0001	
 2.33450000000000E+0003	 1.40882453225940E-0001	
 2.33650000000000E+0003	 1.41034844246179E-0001	
 2.33850000000000E+0003	 1.41010235266419E-0001	
 2.34050000000000E+0003	 1.40820126286658E-0001	
 2.34250000000000E+0003	 1.40647517306898E-0001	
 2.34450000000000E+0003	 1.40858908327138E-0001	
 2.34650000000000E+0003	 1.40759799347377E-0001	
 2.34850000000000E+0003	 1.40362190367617E-0001	
 2.35050000000000E+0003	 1.40784581387856E-0001	
 2.35250000000000E+0003	 1.41333972408096E-0001	
 2.35450000000000E+0003	 1.41221863428335E-0001	
 2.35650000000000E+0003	 1.40974254448575E-0001	
 2.35850000000000E+0003	 1.41006645468815E-0001	
 2.36050000000000E+0003	 1.41216536489054E-0001	
 2.36250000000000E+0003	 1.41360427509294E-0001	
 2.36450000000000E+0003	 1.41353318529533E-0001	
 2.36650000000000E+0003	 1.41305209549773E-0001	
 2.36850000000000E+0003	 1.41285600570012E-0001	
 2.37050000000000E+0003	 1.41400491590252E-0001	
 2.37250000000000E+0003	 1.41779882610492E-0001	
 2.37450000000000E+0003	 1.42263273630731E-0001	
 2.37650000000000E+0003	 1.42376664650971E-0001	
 2.37850000000000E+0003	 1.41961555671210E-0001	
 2.38050000000000E+0003	 1.41427446691450E-0001	
 2.38250000000000E+0003	 1.41241337711689E-0001	
 2.38450000000000E+0003	 1.41445228731929E-0001	
 2.38650000000000E+0003	 1.41788619752169E-0001	
 2.38850000000000E+0003	 1.42074010772408E-0001	
 2.39050000000000E+0003	 1.42253901792648E-0001	
 2.39250000000000E+0003	 1.42360792812887E-0001	
 2.39450000000000E+0003	 1.42435183833127E-0001	
 2.39650000000000E+0003	 1.42499574853366E-0001	
 2.39850000000000E+0003	 1.42563465873606E-0001	
 2.40050000000000E+0003	 1.42621856893846E-0001	
 2.40250000000000E+0003	 1.42672247914085E-0001	
 2.40450000000000E+0003	 1.42717138934325E-0001	
 2.40650000000000E+0003	 1.42761029954564E-0001	
 2.40850000000000E+0003	 1.42797920974804E-0001	
 2.41050000000000E+0003	 1.42838311995043E-0001	
 2.41250000000000E+0003	 1.42882203015283E-0001	
 2.41450000000000E+0003	 1.42931594035523E-0001	
 2.41650000000000E+0003	 1.42983985055762E-0001	
 2.41850000000000E+0003	 1.43042376076002E-0001	
 2.42050000000000E+0003	 1.43099767096241E-0001	
 2.42250000000000E+0003	 1.43163158116481E-0001	
 2.42450000000000E+0003	 1.43229049136720E-0001	
 2.42650000000000E+0003	 1.43293940156960E-0001	
 2.42850000000000E+0003	 1.43355331177200E-0001	
 2.43050000000000E+0003	 1.43423722197439E-0001	
 2.43250000000000E+0003	 1.43493613217679E-0001	
 2.43450000000000E+0003	 1.43565504237918E-0001	
 2.43650000000000E+0003	 1.43638895258158E-0001	
 2.43850000000000E+0003	 1.43709786278397E-0001	
 2.44050000000000E+0003	 1.43782677298637E-0001	
 2.44250000000000E+0003	 1.43859068318876E-0001	
 2.44450000000000E+0003	 1.43933459339116E-0001	
 2.44650000000000E+0003	 1.44003850359356E-0001	
 2.44850000000000E+0003	 1.44075741379595E-0001	
 2.45050000000000E+0003	 1.44150132399835E-0001	
 2.45250000000000E+0003	 1.44227523420074E-0001	
 2.45450000000000E+0003	 1.44307414440314E-0001	
 2.45650000000000E+0003	 1.44392305460553E-0001	
 2.45850000000000E+0003	 1.44476696480793E-0001	
 2.46050000000000E+0003	 1.44565587501033E-0001	
 2.46250000000000E+0003	 1.44653978521272E-0001	
 2.46450000000000E+0003	 1.44744369541512E-0001	
 2.46650000000000E+0003	 1.44840260561751E-0001	
 2.46850000000000E+0003	 1.44938151581991E-0001	
 2.47050000000000E+0003	 1.45034542602230E-0001	
 2.47250000000000E+0003	 1.45134433622470E-0001	
 2.47450000000000E+0003	 1.45241824642710E-0001	
 2.47650000000000E+0003	 1.45351215662949E-0001	
 2.47850000000000E+0003	 1.45456606683189E-0001	
 2.48050000000000E+0003	 1.45556497703428E-0001	
 2.48250000000000E+0003	 1.45661888723668E-0001	
 2.48450000000000E+0003	 1.45769779743907E-0001	
 2.48650000000000E+0003	 1.45876170764147E-0001	
 2.48850000000000E+0003	 1.45981561784387E-0001	
 2.49050000000000E+0003	 1.46092952804626E-0001	
 2.49250000000000E+0003	 1.46205343824866E-0001	
 2.49450000000000E+0003	 1.46318234845105E-0001	
 2.49650000000000E+0003	 1.46431125865345E-0001	
 2.49850000000000E+0003	 1.46546516885584E-0001	
 2.50050000000000E+0003	 1.46659407905824E-0001	
 2.50250000000000E+0003	 1.46772298926064E-0001	
 2.50450000000000E+0003	 1.46888689946303E-0001	
 2.50650000000000E+0003	 1.47004080966543E-0001	
 2.50850000000000E+0003	 1.47118971986782E-0001	
 2.51050000000000E+0003	 1.47228863007022E-0001	
 2.51250000000000E+0003	 1.47339254027261E-0001	
 2.51450000000000E+0003	 1.47445645047501E-0001	
 2.51650000000000E+0003	 1.47552036067741E-0001	
 2.51850000000000E+0003	 1.47655927087980E-0001	
 2.52050000000000E+0003	 1.47757818108220E-0001	
 2.52250000000000E+0003	 1.47851709128459E-0001	
 2.52450000000000E+0003	 1.47949100148699E-0001	
 2.52650000000000E+0003	 1.48044491168938E-0001	
 2.52850000000000E+0003	 1.48143882189178E-0001	
 2.53050000000000E+0003	 1.48241273209418E-0001	
 2.53250000000000E+0003	 1.48336664229657E-0001	
 2.53450000000000E+0003	 1.48426055249897E-0001	
 2.53650000000000E+0003	 1.48515446270136E-0001	
 2.53850000000000E+0003	 1.48598837290376E-0001	
 2.54050000000000E+0003	 1.48689728310615E-0001	
 2.54250000000000E+0003	 1.48781119330855E-0001	
 2.54450000000000E+0003	 1.48867010351095E-0001	
 2.54650000000000E+0003	 1.48950401371334E-0001	
 2.54850000000000E+0003	 1.49040292391574E-0001	
 2.55050000000000E+0003	 1.49129683411813E-0001	
 2.55250000000000E+0003	 1.49217074432053E-0001	
 2.55450000000000E+0003	 1.49300465452292E-0001	
 2.55650000000000E+0003	 1.49384856472532E-0001	
 2.55850000000000E+0003	 1.49464247492772E-0001	
 2.56050000000000E+0003	 1.49544638513011E-0001	
 2.56250000000000E+0003	 1.49621529533251E-0001	
 2.56450000000000E+0003	 1.49697420553490E-0001	
 2.56650000000000E+0003	 1.49774311573730E-0001	
 2.56850000000000E+0003	 1.49856702593969E-0001	
 2.57050000000000E+0003	 1.49945093614209E-0001	
 2.57250000000000E+0003	 1.50039984634449E-0001	
 2.57450000000000E+0003	 1.50140375654688E-0001	
 2.57650000000000E+0003	 1.50245766674928E-0001	
 2.57850000000000E+0003	 1.50357657695167E-0001	
 2.58050000000000E+0003	 1.50474548715407E-0001	
 2.58250000000000E+0003	 1.50596439735646E-0001	
 2.58450000000000E+0003	 1.50723830755886E-0001	
 2.58650000000000E+0003	 1.50858721776126E-0001	
 2.58850000000000E+0003	 1.50998612796365E-0001	
 2.59050000000000E+0003	 1.51144503816605E-0001	
 2.59250000000000E+0003	 1.51296894836844E-0001	
 2.59450000000000E+0003	 1.51455785857084E-0001	
 2.59650000000000E+0003	 1.51611676877323E-0001	
 2.59850000000000E+0003	 1.51769567897563E-0001	
 2.60050000000000E+0003	 1.51931958917803E-0001	
 2.60250000000000E+0003	 1.52101349938042E-0001	
 2.60450000000000E+0003	 1.52268740958282E-0001	
 2.60650000000000E+0003	 1.52433131978521E-0001	
 2.60850000000000E+0003	 1.52597522998761E-0001	
 2.61050000000000E+0003	 1.52767414019000E-0001	
 2.61250000000000E+0003	 1.52930805039240E-0001	
 2.61450000000000E+0003	 1.53085196059480E-0001	
 2.61650000000000E+0003	 1.53235587079719E-0001	
 2.61850000000000E+0003	 1.53385978099959E-0001	
 2.62050000000000E+0003	 1.53532869120198E-0001	
 2.62250000000000E+0003	 1.53681260140438E-0001	
 2.62450000000000E+0003	 1.53829151160677E-0001	
 2.62650000000000E+0003	 1.53971542180917E-0001	
 2.62850000000000E+0003	 1.54111933201157E-0001	
 2.63050000000000E+0003	 1.54255324221396E-0001	
 2.63250000000000E+0003	 1.54397215241636E-0001	
 2.63450000000000E+0003	 1.54537106261875E-0001	
 2.63650000000000E+0003	 1.54675997282115E-0001	
 2.63850000000000E+0003	 1.54811888302354E-0001	
 2.64050000000000E+0003	 1.54941279322594E-0001	
 2.64250000000000E+0003	 1.55075170342834E-0001	
 2.64450000000000E+0003	 1.55213561363073E-0001	
 2.64650000000000E+0003	 1.55351952383313E-0001	
 2.64850000000000E+0003	 1.55488843403552E-0001	
 2.65050000000000E+0003	 1.55624734423792E-0001	
 2.65250000000000E+0003	 1.55757625444031E-0001	
 2.65450000000000E+0003	 1.55895516464271E-0001	
 2.65650000000000E+0003	 1.56038407484511E-0001	
 2.65850000000000E+0003	 1.56183298504750E-0001	
 2.66050000000000E+0003	 1.56327189524990E-0001	
 2.66250000000000E+0003	 1.56469580545229E-0001	
 2.66450000000000E+0003	 1.56616971565469E-0001	
 2.66650000000000E+0003	 1.56771362585708E-0001	
 2.66850000000000E+0003	 1.56926753605948E-0001	
 2.67050000000000E+0003	 1.57083644626188E-0001	
 2.67250000000000E+0003	 1.57248035646427E-0001	
 2.67450000000000E+0003	 1.57412426666667E-0001	
 2.67650000000000E+0003	 1.57574817686906E-0001	
 2.67850000000000E+0003	 1.57738208707146E-0001	
 2.68050000000000E+0003	 1.57905599727385E-0001	
 2.68250000000000E+0003	 1.58071490747625E-0001	
 2.68450000000000E+0003	 1.58232881767865E-0001	
 2.68650000000000E+0003	 1.58396272788104E-0001	
 2.68850000000000E+0003	 1.58568163808344E-0001	
 2.69050000000000E+0003	 1.58738054828583E-0001	
 2.69250000000000E+0003	 1.58912445848823E-0001	
 2.69450000000000E+0003	 1.59092836869062E-0001	
 2.69650000000000E+0003	 1.59280227889302E-0001	
 2.69850000000000E+0003	 1.59475618909542E-0001	
 2.70050000000000E+0003	 1.59679509929781E-0001	
 2.70250000000000E+0003	 1.59889400950021E-0001	
 2.70450000000000E+0003	 1.60114791970260E-0001	
 2.70650000000000E+0003	 1.60351182990500E-0001	
 2.70850000000000E+0003	 1.60601574010739E-0001	
 2.71050000000000E+0003	 1.60861965030979E-0001	
 2.71250000000000E+0003	 1.61132356051219E-0001	
 2.71450000000000E+0003	 1.61416747071458E-0001	
 2.71650000000000E+0003	 1.61717138091698E-0001	
 2.71850000000000E+0003	 1.62026029111937E-0001	
 2.72050000000000E+0003	 1.62343920132177E-0001	
 2.72250000000000E+0003	 1.62664311152416E-0001	
 2.72450000000000E+0003	 1.62986702172656E-0001	
 2.72650000000000E+0003	 1.63308093192895E-0001	
 2.72850000000000E+0003	 1.63616484213135E-0001	
 2.73050000000000E+0003	 1.63915875233375E-0001	
 2.73250000000000E+0003	 1.64217766253614E-0001	
 2.73450000000000E+0003	 1.64512157273854E-0001	
 2.73650000000000E+0003	 1.64801048294093E-0001	
 2.73850000000000E+0003	 1.65079439314333E-0001	
 2.74050000000000E+0003	 1.65349330334572E-0001	
 2.74250000000000E+0003	 1.65609721354812E-0001	
 2.74450000000000E+0003	 1.65865112375052E-0001	
 2.74650000000000E+0003	 1.66120003395291E-0001	
 2.74850000000000E+0003	 1.66373894415531E-0001	
 2.75050000000000E+0003	 1.66618285435770E-0001	
 2.75250000000000E+0003	 1.66856676456010E-0001	
 2.75450000000000E+0003	 1.67098067476249E-0001	
 2.75650000000000E+0003	 1.67348458496489E-0001	
 2.75850000000000E+0003	 1.67605349516729E-0001	
 2.76050000000000E+0003	 1.67870740536968E-0001	
 2.76250000000000E+0003	 1.68145631557208E-0001	
 2.76450000000000E+0003	 1.68421522577447E-0001	
 2.76650000000000E+0003	 1.68694413597687E-0001	
 2.76850000000000E+0003	 1.68969304617926E-0001	
 2.77050000000000E+0003	 1.69254195638166E-0001	
 2.77250000000000E+0003	 1.69547086658406E-0001	
 2.77450000000000E+0003	 1.69850477678645E-0001	
 2.77650000000000E+0003	 1.70152368698885E-0001	
 2.77850000000000E+0003	 1.70451759719124E-0001	
 2.78050000000000E+0003	 1.70764650739364E-0001	
 2.78250000000000E+0003	 1.71092041759603E-0001	
 2.78450000000000E+0003	 1.71425432779843E-0001	
 2.78650000000000E+0003	 1.71769823800083E-0001	
 2.78850000000000E+0003	 1.72133714820322E-0001	
 2.79050000000000E+0003	 1.72498105840562E-0001	
 2.79250000000000E+0003	 1.72853496860801E-0001	
 2.79450000000000E+0003	 1.73215887881041E-0001	
 2.79650000000000E+0003	 1.73592778901280E-0001	
 2.79850000000000E+0003	 1.73984169921520E-0001	
 2.80050000000000E+0003	 1.74368060941760E-0001	
 2.80250000000000E+0003	 1.74756951961999E-0001	
 2.80450000000000E+0003	 1.75166342982239E-0001	
 2.80650000000000E+0003	 1.75579734002478E-0001	
 2.80850000000000E+0003	 1.76000625022718E-0001	
 2.81050000000000E+0003	 1.76439016042957E-0001	
 2.81250000000000E+0003	 1.76875407063197E-0001	
 2.81450000000000E+0003	 1.77309298083437E-0001	
 2.81650000000000E+0003	 1.77756189103676E-0001	
 2.81850000000000E+0003	 1.78216580123916E-0001	
 2.82050000000000E+0003	 1.78691971144155E-0001	
 2.82250000000000E+0003	 1.79183362164395E-0001	
 2.82450000000000E+0003	 1.79689753184634E-0001	
 2.82650000000000E+0003	 1.80218144204874E-0001	
 2.82850000000000E+0003	 1.80775035225114E-0001	
 2.83050000000000E+0003	 1.81373926245353E-0001	
 2.83250000000000E+0003	 1.82027817265593E-0001	
 2.83450000000000E+0003	 1.82750208285832E-0001	
 2.83650000000000E+0003	 1.83577099306072E-0001	
 2.83850000000000E+0003	 1.84564490326311E-0001	
 2.84050000000000E+0003	 1.85737881346551E-0001	
 2.84250000000000E+0003	 1.87211272366791E-0001	
 2.84450000000000E+0003	 1.89123163387030E-0001	
 2.84650000000000E+0003	 1.91482554407270E-0001	
 2.84850000000000E+0003	 1.94145945427509E-0001	
 2.85050000000000E+0003	 1.96798836447749E-0001	
 2.85250000000000E+0003	 1.99021227467988E-0001	
 2.85450000000000E+0003	 2.00461118488228E-0001	
 2.85650000000000E+0003	 2.01083509508468E-0001	
 2.85850000000000E+0003	 2.01205400528707E-0001	
 2.86050000000000E+0003	 2.01222791548947E-0001	
 2.86250000000000E+0003	 2.01431182569186E-0001	
 2.86450000000000E+0003	 2.02023073589426E-0001	
 2.86650000000000E+0003	 2.03029464609665E-0001	
 2.86850000000000E+0003	 2.04328355629905E-0001	
 2.87050000000000E+0003	 2.05719246650145E-0001	
 2.87250000000000E+0003	 2.06954637670384E-0001	
 2.87450000000000E+0003	 2.07751028690624E-0001	
 2.87650000000000E+0003	 2.08051419710863E-0001	
 2.87850000000000E+0003	 2.08052310731103E-0001	
 2.88050000000000E+0003	 2.07933201751342E-0001	
 2.88250000000000E+0003	 2.07836592771582E-0001	
 2.88450000000000E+0003	 2.07880983791822E-0001	
 2.88650000000000E+0003	 2.08135874812061E-0001	
 2.88850000000000E+0003	 2.08617765832301E-0001	
 2.89050000000000E+0003	 2.09314156852540E-0001	
 2.89250000000000E+0003	 2.10190047872780E-0001	
 2.89450000000000E+0003	 2.11221938893019E-0001	
 2.89650000000000E+0003	 2.12357829913259E-0001	
 2.89850000000000E+0003	 2.13549720933499E-0001	
 2.90050000000000E+0003	 2.14814611953738E-0001	
 2.90250000000000E+0003	 2.16188502973978E-0001	
 2.90450000000000E+0003	 2.17689393994217E-0001	
 2.90650000000000E+0003	 2.19353785014457E-0001	
 2.90850000000000E+0003	 2.21237676034696E-0001	
 2.91050000000000E+0003	 2.23402067054936E-0001	
 2.91250000000000E+0003	 2.25870458075176E-0001	
 2.91450000000000E+0003	 2.28564849095415E-0001	
 2.91650000000000E+0003	 2.31385240115655E-0001	
 2.91850000000000E+0003	 2.34262631135894E-0001	
 2.92050000000000E+0003	 2.37011022156134E-0001	
 2.92250000000000E+0003	 2.39397413176373E-0001	
 2.92450000000000E+0003	 2.41231304196613E-0001	
 2.92650000000000E+0003	 2.42474195216853E-0001	
 2.92850000000000E+0003	 2.43207586237092E-0001	
 2.93050000000000E+0003	 2.43477477257332E-0001	
 2.93250000000000E+0003	 2.43294868277571E-0001	
 2.93450000000000E+0003	 2.42726759297811E-0001	
 2.93650000000000E+0003	 2.41778150318050E-0001	
 2.93850000000000E+0003	 2.40462041338290E-0001	
 2.94050000000000E+0003	 2.38899932358530E-0001	
 2.94250000000000E+0003	 2.37310323378769E-0001	
 2.94450000000000E+0003	 2.35871214399009E-0001	
 2.94650000000000E+0003	 2.34731605419248E-0001	
 2.94850000000000E+0003	 2.34043996439488E-0001	
 2.95050000000000E+0003	 2.33929387459727E-0001	
 2.95250000000000E+0003	 2.34359778479967E-0001	
 2.95450000000000E+0003	 2.35091169500207E-0001	
 2.95650000000000E+0003	 2.35897560520446E-0001	
 2.95850000000000E+0003	 2.36573451540686E-0001	
 2.96050000000000E+0003	 2.36924342560925E-0001	
 2.96250000000000E+0003	 2.36834233581165E-0001	
 2.96450000000000E+0003	 2.36249624601404E-0001	
 2.96650000000000E+0003	 2.35201015621644E-0001	
 2.96850000000000E+0003	 2.33778906641884E-0001	
 2.97050000000000E+0003	 2.32243297662123E-0001	
 2.97250000000000E+0003	 2.30828688682363E-0001	
 2.97450000000000E+0003	 2.29442579702602E-0001	
 2.97650000000000E+0003	 2.27958470722842E-0001	
 2.97850000000000E+0003	 2.26424861743081E-0001	
 2.98050000000000E+0003	 2.24879252763321E-0001	
 2.98250000000000E+0003	 2.23329643783561E-0001	
 2.98450000000000E+0003	 2.21830034803800E-0001	
 2.98650000000000E+0003	 2.20438925824040E-0001	
 2.98850000000000E+0003	 2.19173316844279E-0001	
 2.99050000000000E+0003	 2.18054707864519E-0001	
 2.99250000000000E+0003	 2.17070098884758E-0001	
 2.99450000000000E+0003	 2.16188989904998E-0001	
 2.99650000000000E+0003	 2.15491380925238E-0001	
 2.99850000000000E+0003	 2.14995271945477E-0001	
 3.00050000000000E+0003	 2.14648662965717E-0001	
 3.00250000000000E+0003	 2.14466553985956E-0001	
 3.00450000000000E+0003	 2.14426445006196E-0001	
 3.00650000000000E+0003	 2.14494836026435E-0001	
 3.00850000000000E+0003	 2.14676227046675E-0001	
 3.01050000000000E+0003	 2.14982618066914E-0001	
 3.01250000000000E+0003	 2.15364009087154E-0001	
 3.01450000000000E+0003	 2.15771900107394E-0001	
 3.01650000000000E+0003	 2.16229791127633E-0001	
 3.01850000000000E+0003	 2.16803182147873E-0001	
 3.02050000000000E+0003	 2.17486073168112E-0001	
 3.02250000000000E+0003	 2.18237464188352E-0001	
 3.02450000000000E+0003	 2.19059355208591E-0001	
 3.02650000000000E+0003	 2.19915746228831E-0001	
 3.02850000000000E+0003	 2.20783637249071E-0001	
 3.03050000000000E+0003	 2.21659028269310E-0001	
 3.03250000000000E+0003	 2.22552919289550E-0001	
 3.03450000000000E+0003	 2.23484310309789E-0001	
 3.03650000000000E+0003	 2.24404201330029E-0001	
 3.03850000000000E+0003	 2.25335092350268E-0001	
 3.04050000000000E+0003	 2.26326983370508E-0001	
 3.04250000000000E+0003	 2.27335374390748E-0001	
 3.04450000000000E+0003	 2.28299265410987E-0001	
 3.04650000000000E+0003	 2.29249656431227E-0001	
 3.04850000000000E+0003	 2.30216547451466E-0001	
 3.05050000000000E+0003	 2.31224438471706E-0001	
 3.05250000000000E+0003	 2.32227829491945E-0001	
 3.05450000000000E+0003	 2.33191720512185E-0001	
 3.05650000000000E+0003	 2.34132611532425E-0001	
 3.05850000000000E+0003	 2.35047502552664E-0001	
 3.06050000000000E+0003	 2.35902893572904E-0001	
 3.06250000000000E+0003	 2.36682784593143E-0001	
 3.06450000000000E+0003	 2.37385175613383E-0001	
 3.06650000000000E+0003	 2.38046066633622E-0001	
 3.06850000000000E+0003	 2.38661457653862E-0001	
 3.07050000000000E+0003	 2.39210348674102E-0001	
 3.07250000000000E+0003	 2.39719239694341E-0001	
 3.07450000000000E+0003	 2.40212130714581E-0001	
 3.07650000000000E+0003	 2.40707521734820E-0001	
 3.07850000000000E+0003	 2.41190912755060E-0001	
 3.08050000000000E+0003	 2.41628803775299E-0001	
 3.08250000000000E+0003	 2.42043194795539E-0001	
 3.08450000000000E+0003	 2.42458085815779E-0001	
 3.08650000000000E+0003	 2.42840976836018E-0001	
 3.08850000000000E+0003	 2.43198367856258E-0001	
 3.09050000000000E+0003	 2.43550758876497E-0001	
 3.09250000000000E+0003	 2.43865649896737E-0001	
 3.09450000000000E+0003	 2.44161540916976E-0001	
 3.09650000000000E+0003	 2.44469431937216E-0001	
 3.09850000000000E+0003	 2.44809822957456E-0001	
 3.10050000000000E+0003	 2.45168713977695E-0001	
 3.10250000000000E+0003	 2.45542104997935E-0001	
 3.10450000000000E+0003	 2.45944496018174E-0001	
 3.10650000000000E+0003	 2.46390887038414E-0001	
 3.10850000000000E+0003	 2.46885778058653E-0001	
 3.11050000000000E+0003	 2.47387169078893E-0001	
 3.11250000000000E+0003	 2.47909060099133E-0001	
 3.11450000000000E+0003	 2.48523951119372E-0001	
 3.11650000000000E+0003	 2.49210842139612E-0001	
 3.11850000000000E+0003	 2.49924733159851E-0001	
 3.12050000000000E+0003	 2.50653624180091E-0001	
 3.12250000000000E+0003	 2.51376015200330E-0001	
 3.12450000000000E+0003	 2.52150406220570E-0001	
 3.12650000000000E+0003	 2.53015297240810E-0001	
 3.12850000000000E+0003	 2.53942688261049E-0001	
 3.13050000000000E+0003	 2.54904079281289E-0001	
 3.13250000000000E+0003	 2.55866470301528E-0001	
 3.13450000000000E+0003	 2.56876361321768E-0001	
 3.13650000000000E+0003	 2.57965252342007E-0001	
 3.13850000000000E+0003	 2.59112643362247E-0001	
 3.14050000000000E+0003	 2.60245534382487E-0001	
 3.14250000000000E+0003	 2.61355425402726E-0001	
 3.14450000000000E+0003	 2.62520816422966E-0001	
 3.14650000000000E+0003	 2.63749707443205E-0001	
 3.14850000000000E+0003	 2.65029098463445E-0001	
 3.15050000000000E+0003	 2.66391989483684E-0001	
 3.15250000000000E+0003	 2.67780380503924E-0001	
 3.15450000000000E+0003	 2.69092271524164E-0001	
 3.15650000000000E+0003	 2.70409162544403E-0001	
 3.15850000000000E+0003	 2.71805553564643E-0001	
 3.16050000000000E+0003	 2.73249944584882E-0001	
 3.16250000000000E+0003	 2.74716335605122E-0001	
 3.16450000000000E+0003	 2.76205726625361E-0001	
 3.16650000000000E+0003	 2.77720117645601E-0001	
 3.16850000000000E+0003	 2.79241508665841E-0001	
 3.17050000000000E+0003	 2.80773899686080E-0001	
 3.17250000000000E+0003	 2.82318290706320E-0001	
 3.17450000000000E+0003	 2.83863681726559E-0001	
 3.17650000000000E+0003	 2.85396572746799E-0001	
 3.17850000000000E+0003	 2.86933463767038E-0001	
 3.18050000000000E+0003	 2.88486354787278E-0001	
 3.18250000000000E+0003	 2.90028245807518E-0001	
 3.18450000000000E+0003	 2.91546636827757E-0001	
 3.18650000000000E+0003	 2.93057027847997E-0001	
 3.18850000000000E+0003	 2.94556418868236E-0001	
 3.19050000000000E+0003	 2.96025809888476E-0001	
 3.19250000000000E+0003	 2.97466200908715E-0001	
 3.19450000000000E+0003	 2.98881091928955E-0001	
 3.19650000000000E+0003	 3.00266982949195E-0001	
 3.19850000000000E+0003	 3.01641873969434E-0001	
 3.20050000000000E+0003	 3.03008764989674E-0001	
 3.20250000000000E+0003	 3.04344656009913E-0001	
 3.20450000000000E+0003	 3.05643047030153E-0001	
 3.20650000000000E+0003	 3.06921938050392E-0001	
 3.20850000000000E+0003	 3.08172829070632E-0001	
 3.21050000000000E+0003	 3.09400220090872E-0001	
 3.21250000000000E+0003	 3.10628611111111E-0001	
 3.21450000000000E+0003	 3.11853002131351E-0001	
 3.21650000000000E+0003	 3.13082393151590E-0001	
 3.21850000000000E+0003	 3.14312784171830E-0001	
 3.22050000000000E+0003	 3.15535175192069E-0001	
 3.22250000000000E+0003	 3.16773566212309E-0001	
 3.22450000000000E+0003	 3.18027457232549E-0001	
 3.22650000000000E+0003	 3.19296848252788E-0001	
 3.22850000000000E+0003	 3.20588239273028E-0001	
 3.23050000000000E+0003	 3.21943130293267E-0001	
 3.23250000000000E+0003	 3.23366021313507E-0001	
 3.23450000000000E+0003	 3.24761412333746E-0001	
 3.23650000000000E+0003	 3.26113303353986E-0001	
 3.23850000000000E+0003	 3.27542694374226E-0001	
 3.24050000000000E+0003	 3.29045085394465E-0001	
 3.24250000000000E+0003	 3.30588976414705E-0001	
 3.24450000000000E+0003	 3.32183867434944E-0001	
 3.24650000000000E+0003	 3.33852758455184E-0001	
 3.24850000000000E+0003	 3.35532149475423E-0001	
 3.25050000000000E+0003	 3.37204540495663E-0001	
 3.25250000000000E+0003	 3.38918431515903E-0001	
 3.25450000000000E+0003	 3.40685822536142E-0001	
 3.25650000000000E+0003	 3.42485213556382E-0001	
 3.25850000000000E+0003	 3.44280104576621E-0001	
 3.26050000000000E+0003	 3.46080995596861E-0001	
 3.26250000000000E+0003	 3.47895386617100E-0001	
 3.26450000000000E+0003	 3.49695777637340E-0001	
 3.26650000000000E+0003	 3.51468168657580E-0001	
 3.26850000000000E+0003	 3.53225559677819E-0001	
 3.27050000000000E+0003	 3.54947450698059E-0001	
 3.27250000000000E+0003	 3.56555841718298E-0001	
 3.27450000000000E+0003	 3.58068232738538E-0001	
 3.27650000000000E+0003	 3.59542123758777E-0001	
 3.27850000000000E+0003	 3.60958014779017E-0001	
 3.28050000000000E+0003	 3.62297405799257E-0001	
 3.28250000000000E+0003	 3.63553796819496E-0001	
 3.28450000000000E+0003	 3.64732687839736E-0001	
 3.28650000000000E+0003	 3.65832578859975E-0001	
 3.28850000000000E+0003	 3.66840469880215E-0001	
 3.29050000000000E+0003	 3.67789860900454E-0001	
 3.29250000000000E+0003	 3.68670751920694E-0001	
 3.29450000000000E+0003	 3.69458142940933E-0001	
 3.29650000000000E+0003	 3.70170033961173E-0001	
 3.29850000000000E+0003	 3.70816924981413E-0001	
 3.30050000000000E+0003	 3.71400316001652E-0001	
 3.30250000000000E+0003	 3.71952707021892E-0001	
 3.30450000000000E+0003	 3.72505098042131E-0001	
 3.30650000000000E+0003	 3.72995989062371E-0001	
 3.30850000000000E+0003	 3.73369380082610E-0001	
 3.31050000000000E+0003	 3.73699771102850E-0001	
 3.31250000000000E+0003	 3.74037662123090E-0001	
 3.31450000000000E+0003	 3.74382053143329E-0001	
 3.31650000000000E+0003	 3.74717944163569E-0001	
 3.31850000000000E+0003	 3.75044335183808E-0001	
 3.32050000000000E+0003	 3.75370726204048E-0001	
 3.32250000000000E+0003	 3.75705617224287E-0001	
 3.32450000000000E+0003	 3.76056508244527E-0001	
 3.32650000000000E+0003	 3.76406399264767E-0001	
 3.32850000000000E+0003	 3.76752790285006E-0001	
 3.33050000000000E+0003	 3.77129181305246E-0001	
 3.33250000000000E+0003	 3.77535072325485E-0001	
 3.33450000000000E+0003	 3.77955463345725E-0001	
 3.33650000000000E+0003	 3.78410354365964E-0001	
 3.33850000000000E+0003	 3.78901245386204E-0001	
 3.34050000000000E+0003	 3.79374136406444E-0001	
 3.34250000000000E+0003	 3.79850027426683E-0001	
 3.34450000000000E+0003	 3.80361918446923E-0001	
 3.34650000000000E+0003	 3.80896309467162E-0001	
 3.34850000000000E+0003	 3.81487200487402E-0001	
 3.35050000000000E+0003	 3.82111591507641E-0001	
 3.35250000000000E+0003	 3.82687482527881E-0001	
 3.35450000000000E+0003	 3.83246873548121E-0001	
 3.35650000000000E+0003	 3.83851764568360E-0001	
 3.35850000000000E+0003	 3.84498155588600E-0001	
 3.36050000000000E+0003	 3.85158546608839E-0001	
 3.36250000000000E+0003	 3.85814437629079E-0001	
 3.36450000000000E+0003	 3.86510828649318E-0001	
 3.36650000000000E+0003	 3.87278719669558E-0001	
 3.36850000000000E+0003	 3.88046110689798E-0001	
 3.37050000000000E+0003	 3.88688501710037E-0001	
 3.37250000000000E+0003	 3.89238892730277E-0001	
 3.37450000000000E+0003	 3.89825783750516E-0001	
 3.37650000000000E+0003	 3.90456174770756E-0001	
 3.37850000000000E+0003	 3.91076065790995E-0001	
 3.38050000000000E+0003	 3.91655956811235E-0001	
 3.38250000000000E+0003	 3.92206847831475E-0001	
 3.38450000000000E+0003	 3.92741738851714E-0001	
 3.38650000000000E+0003	 3.93272129871954E-0001	
 3.38850000000000E+0003	 3.93838520892193E-0001	
 3.39050000000000E+0003	 3.94467411912433E-0001	
 3.39250000000000E+0003	 3.94956802932672E-0001	
 3.39450000000000E+0003	 3.95290193952912E-0001	
 3.39650000000000E+0003	 3.95695584973152E-0001	
 3.39850000000000E+0003	 3.96269475993391E-0001	
 3.40050000000000E+0003	 3.96819867013631E-0001	
 3.40250000000000E+0003	 3.97089258033870E-0001	
 3.40450000000000E+0003	 3.97244649054110E-0001	
 3.40650000000000E+0003	 3.97520540074349E-0001	
 3.40850000000000E+0003	 3.97863931094589E-0001	
 3.41050000000000E+0003	 3.98156822114829E-0001	
 3.41250000000000E+0003	 3.98387713135068E-0001	
 3.41450000000000E+0003	 3.98530604155308E-0001	
 3.41650000000000E+0003	 3.98602995175547E-0001	
 3.41850000000000E+0003	 3.98679386195787E-0001	
 3.42050000000000E+0003	 3.98738277216026E-0001	
 3.42250000000000E+0003	 3.98749668236266E-0001	
 3.42450000000000E+0003	 3.98735059256506E-0001	
 3.42650000000000E+0003	 3.98718950276745E-0001	
 3.42850000000000E+0003	 3.98689841296985E-0001	
 3.43050000000000E+0003	 3.98566232317224E-0001	
 3.43250000000000E+0003	 3.98388623337464E-0001	
 3.43450000000000E+0003	 3.98232514357703E-0001	
 3.43650000000000E+0003	 3.97921905377943E-0001	
 3.43850000000000E+0003	 3.97383796398183E-0001	
 3.44050000000000E+0003	 3.96799187418422E-0001	
 3.44250000000000E+0003	 3.96237578438662E-0001	
 3.44450000000000E+0003	 3.95717469458901E-0001	
 3.44650000000000E+0003	 3.95184360479141E-0001	
 3.44850000000000E+0003	 3.94601251499380E-0001	
 3.45050000000000E+0003	 3.93982642519620E-0001	
 3.45250000000000E+0003	 3.93306533539860E-0001	
 3.45450000000000E+0003	 3.92587424560099E-0001	
 3.45650000000000E+0003	 3.91844815580339E-0001	
 3.45850000000000E+0003	 3.91113706600578E-0001	
 3.46050000000000E+0003	 3.90324597620818E-0001	
 3.46250000000000E+0003	 3.89441988641057E-0001	
 3.46450000000000E+0003	 3.88658879661297E-0001	
 3.46650000000000E+0003	 3.87990770681537E-0001	
 3.46850000000000E+0003	 3.87159661701776E-0001	
 3.47050000000000E+0003	 3.85995552722016E-0001	
 3.47250000000000E+0003	 3.84749943742255E-0001	
 3.47450000000000E+0003	 3.83637334762495E-0001	
 3.47650000000000E+0003	 3.82625225782734E-0001	
 3.47850000000000E+0003	 3.81664116802974E-0001	
 3.48050000000000E+0003	 3.80557507823214E-0001	
 3.48250000000000E+0003	 3.79293398843453E-0001	
 3.48450000000000E+0003	 3.78135289863693E-0001	
 3.48650000000000E+0003	 3.77029180883932E-0001	
 3.48850000000000E+0003	 3.75823071904172E-0001	
 3.49050000000000E+0003	 3.74588462924411E-0001	
 3.49250000000000E+0003	 3.73377853944651E-0001	
 3.49450000000000E+0003	 3.72169244964891E-0001	
 3.49650000000000E+0003	 3.70910635985130E-0001	
 3.49850000000000E+0003	 3.69578527005370E-0001	
 3.50050000000000E+0003	 3.68271918025609E-0001	
 3.50250000000000E+0003	 3.66929309045849E-0001	
 3.50450000000000E+0003	 3.65400200066088E-0001	
 3.50650000000000E+0003	 3.63893091086328E-0001	
 3.50850000000000E+0003	 3.62452982106568E-0001	
 3.51050000000000E+0003	 3.61052373126807E-0001	
 3.51250000000000E+0003	 3.59714264147047E-0001	
 3.51450000000000E+0003	 3.58263655167286E-0001	
 3.51650000000000E+0003	 3.56665046187526E-0001	
 3.51850000000000E+0003	 3.55017437207765E-0001	
 3.52050000000000E+0003	 3.53441328228005E-0001	
 3.52250000000000E+0003	 3.51890219248245E-0001	
 3.52450000000000E+0003	 3.50204610268484E-0001	
 3.52650000000000E+0003	 3.48446001288724E-0001	
 3.52850000000000E+0003	 3.46765892308963E-0001	
 3.53050000000000E+0003	 3.45159283329203E-0001	
 3.53250000000000E+0003	 3.43549174349442E-0001	
 3.53450000000000E+0003	 3.41985565369682E-0001	
 3.53650000000000E+0003	 3.40306956389922E-0001	
 3.53850000000000E+0003	 3.38470847410161E-0001	
 3.54050000000000E+0003	 3.36651238430401E-0001	
 3.54250000000000E+0003	 3.34900129450640E-0001	
 3.54450000000000E+0003	 3.33085020470880E-0001	
 3.54650000000000E+0003	 3.31045411491119E-0001	
 3.54850000000000E+0003	 3.29004802511359E-0001	
 3.55050000000000E+0003	 3.27173693531599E-0001	
 3.55250000000000E+0003	 3.25274584551838E-0001	
 3.55450000000000E+0003	 3.23325975572078E-0001	
 3.55650000000000E+0003	 3.21387866592317E-0001	
 3.55850000000000E+0003	 3.19434257612557E-0001	
 3.56050000000000E+0003	 3.17356648632796E-0001	
 3.56250000000000E+0003	 3.15054539653036E-0001	
 3.56450000000000E+0003	 3.12758930673276E-0001	
 3.56650000000000E+0003	 3.10562321693515E-0001	
 3.56850000000000E+0003	 3.08533712713755E-0001	
 3.57050000000000E+0003	 3.06689103733994E-0001	
 3.57250000000000E+0003	 3.04690994754234E-0001	
 3.57450000000000E+0003	 3.02537885774473E-0001	
 3.57650000000000E+0003	 3.00328776794713E-0001	
 3.57850000000000E+0003	 2.98122167814952E-0001	
 3.58050000000000E+0003	 2.95867058835192E-0001	
 3.58250000000000E+0003	 2.93482449855432E-0001	
 3.58450000000000E+0003	 2.91117840875671E-0001	
 3.58650000000000E+0003	 2.88674231895911E-0001	
 3.58850000000000E+0003	 2.86022622916150E-0001	
 3.59050000000000E+0003	 2.83651013936390E-0001	
 3.59250000000000E+0003	 2.81409404956629E-0001	
 3.59450000000000E+0003	 2.79019295976869E-0001	
 3.59650000000000E+0003	 2.76601186997109E-0001	
 3.59850000000000E+0003	 2.74284578017348E-0001	
 3.60050000000000E+0003	 2.71884969037588E-0001	
 3.60250000000000E+0003	 2.69386860057827E-0001	
 3.60450000000000E+0003	 2.66770251078067E-0001	
 3.60650000000000E+0003	 2.64099642098306E-0001	
 3.60850000000000E+0003	 2.61355533118546E-0001	
 3.61050000000000E+0003	 2.58897424138786E-0001	
 3.61250000000000E+0003	 2.56436815159025E-0001	
 3.61450000000000E+0003	 2.53804206179265E-0001	
 3.61650000000000E+0003	 2.51528097199504E-0001	
 3.61850000000000E+0003	 2.49372988219744E-0001	
 3.62050000000000E+0003	 2.46936379239983E-0001	
 3.62250000000000E+0003	 2.44234770260223E-0001	
 3.62450000000000E+0003	 2.41217161280463E-0001	
 3.62650000000000E+0003	 2.38685552300702E-0001	
 3.62850000000000E+0003	 2.36213943320942E-0001	
 3.63050000000000E+0003	 2.33789834341181E-0001	
 3.63250000000000E+0003	 2.31686725361421E-0001	
 3.63450000000000E+0003	 2.29438116381660E-0001	
 3.63650000000000E+0003	 2.27217007401900E-0001	
 3.63850000000000E+0003	 2.24880398422140E-0001	
 3.64050000000000E+0003	 2.22536789442379E-0001	
 3.64250000000000E+0003	 2.19960680462619E-0001	
 3.64450000000000E+0003	 2.17361571482858E-0001	
 3.64650000000000E+0003	 2.14809462503098E-0001	
 3.64850000000000E+0003	 2.12645353523337E-0001	
 3.65050000000000E+0003	 2.10532244543577E-0001	
 3.65250000000000E+0003	 2.08522135563817E-0001	
 3.65450000000000E+0003	 2.06794026584056E-0001	
 3.65650000000000E+0003	 2.04883417604296E-0001	
 3.65850000000000E+0003	 2.03120308624535E-0001	
 3.66050000000000E+0003	 2.01258699644775E-0001	
 3.66250000000000E+0003	 1.99291090665014E-0001	
 3.66450000000000E+0003	 1.97187981685254E-0001	
 3.66650000000000E+0003	 1.95157872705494E-0001	
 3.66850000000000E+0003	 1.93378263725733E-0001	
 3.67050000000000E+0003	 1.91215654745973E-0001	
 3.67250000000000E+0003	 1.89783045766212E-0001	
 3.67450000000000E+0003	 1.88415436786452E-0001	
 3.67650000000000E+0003	 1.86949827806691E-0001	
 3.67850000000000E+0003	 1.85977218826931E-0001	
 3.68050000000000E+0003	 1.84787609847171E-0001	
 3.68250000000000E+0003	 1.83488500867410E-0001	
 3.68450000000000E+0003	 1.81966891887650E-0001	
 3.68650000000000E+0003	 1.80767782907889E-0001	
 3.68850000000000E+0003	 1.79681173928129E-0001	
 3.69050000000000E+0003	 1.78614064948368E-0001	
 3.69250000000000E+0003	 1.77435955968608E-0001	
 3.69450000000000E+0003	 1.76529346988848E-0001	
 3.69650000000000E+0003	 1.75541238009087E-0001	
 3.69850000000000E+0003	 1.74688629029327E-0001	
 3.70050000000000E+0003	 1.73900020049566E-0001	
 3.70250000000000E+0003	 1.72998411069806E-0001	
 3.70450000000000E+0003	 1.72128802090045E-0001	
 3.70650000000000E+0003	 1.71185693110285E-0001	
 3.70850000000000E+0003	 1.70236584130525E-0001	
 3.71050000000000E+0003	 1.69466475150764E-0001	
 3.71250000000000E+0003	 1.68865866171004E-0001	
 3.71450000000000E+0003	 1.68550257191243E-0001	
 3.71650000000000E+0003	 1.68149648211483E-0001	
 3.71850000000000E+0003	 1.67579039231722E-0001	
 3.72050000000000E+0003	 1.66947930251962E-0001	
 3.72250000000000E+0003	 1.66197821272202E-0001	
 3.72450000000000E+0003	 1.65681212292441E-0001	
 3.72650000000000E+0003	 1.65002603312681E-0001	
 3.72850000000000E+0003	 1.64502994332920E-0001	
 3.73050000000000E+0003	 1.64036385353160E-0001	
 3.73250000000000E+0003	 1.63481276373399E-0001	
 3.73450000000000E+0003	 1.62993167393639E-0001	
 3.73650000000000E+0003	 1.62346558413879E-0001	
 3.73850000000000E+0003	 1.61993949434118E-0001	
 3.74050000000000E+0003	 1.61288340454358E-0001	
 3.74250000000000E+0003	 1.61020731474597E-0001	
 3.74450000000000E+0003	 1.60241122494837E-0001	
 3.74650000000000E+0003	 1.59950513515076E-0001	
 3.74850000000000E+0003	 1.59526904535316E-0001	
 3.75050000000000E+0003	 1.59358795555556E-0001	
 3.75250000000000E+0003	 1.59459686575795E-0001	
 3.75450000000000E+0003	 1.59651077596035E-0001	
 3.75650000000000E+0003	 1.59604468616274E-0001	
 3.75850000000000E+0003	 1.59419859636514E-0001	
 3.76050000000000E+0003	 1.59045750656753E-0001	
 3.76250000000000E+0003	 1.58908641676993E-0001	
 3.76450000000000E+0003	 1.58550032697233E-0001	
 3.76650000000000E+0003	 1.58196423717472E-0001	
 3.76850000000000E+0003	 1.58034814737712E-0001	
 3.77050000000000E+0003	 1.57722705757951E-0001	
 3.77250000000000E+0003	 1.57628096778191E-0001	
 3.77450000000000E+0003	 1.57322487798430E-0001	
 3.77650000000000E+0003	 1.57127878818670E-0001	
 3.77850000000000E+0003	 1.56860269838910E-0001	
 3.78050000000000E+0003	 1.56517660859149E-0001	
 3.78250000000000E+0003	 1.56339051879389E-0001	
 3.78450000000000E+0003	 1.56044442899628E-0001	
 3.78650000000000E+0003	 1.55845833919868E-0001	
 3.78850000000000E+0003	 1.55683724940107E-0001	
 3.79050000000000E+0003	 1.55421615960347E-0001	
 3.79250000000000E+0003	 1.55061506980587E-0001	
 3.79450000000000E+0003	 1.54814898000826E-0001	
 3.79650000000000E+0003	 1.54114289021066E-0001	
 3.79850000000000E+0003	 1.53815680041305E-0001	
 3.80050000000000E+0003	 1.53530071061545E-0001	
 3.80250000000000E+0003	 1.53073462081784E-0001	
 3.80450000000000E+0003	 1.53302853102024E-0001	
 3.80650000000000E+0003	 1.53110244122264E-0001	
 3.80850000000000E+0003	 1.53162635142503E-0001	
 3.81050000000000E+0003	 1.52936026162743E-0001	
 3.81250000000000E+0003	 1.52514417182982E-0001	
 3.81450000000000E+0003	 1.52256808203222E-0001	
 3.81650000000000E+0003	 1.51638699223461E-0001	
 3.81850000000000E+0003	 1.51896590243701E-0001	
 3.82050000000000E+0003	 1.51714481263941E-0001	
 3.82250000000000E+0003	 1.51515372284180E-0001	
 3.82450000000000E+0003	 1.51618763304420E-0001	
 3.82650000000000E+0003	 1.51319654324659E-0001	
 3.82850000000000E+0003	 1.51196545344899E-0001	
 3.83050000000000E+0003	 1.51026936365138E-0001	
 3.83250000000000E+0003	 1.50694827385378E-0001	
 3.83450000000000E+0003	 1.50462218405618E-0001	
 3.83650000000000E+0003	 1.50239609425857E-0001	
 3.83850000000000E+0003	 1.50008500446097E-0001	
 3.84050000000000E+0003	 1.50017891466336E-0001	
 3.84250000000000E+0003	 1.50024282486576E-0001	
 3.84450000000000E+0003	 1.49931673506815E-0001	
 3.84650000000000E+0003	 1.49715064527055E-0001	
 3.84850000000000E+0003	 1.48960455547295E-0001	
 3.85050000000000E+0003	 1.48407346567534E-0001	
 3.85250000000000E+0003	 1.48426237587774E-0001	
 3.85450000000000E+0003	 1.48685128608013E-0001	
 3.85650000000000E+0003	 1.48907019628253E-0001	
 3.85850000000000E+0003	 1.48785410648492E-0001	
 3.86050000000000E+0003	 1.48575801668732E-0001	
 3.86250000000000E+0003	 1.48561192688971E-0001	
 3.86450000000000E+0003	 1.48177583709211E-0001	
 3.86650000000000E+0003	 1.48030974729451E-0001	
 3.86850000000000E+0003	 1.48037865749690E-0001	
 3.87050000000000E+0003	 1.47770256769930E-0001	
 3.87250000000000E+0003	 1.48064647790169E-0001	
 3.87450000000000E+0003	 1.47802538810409E-0001	
 3.87650000000000E+0003	 1.47720429830648E-0001	
 3.87850000000000E+0003	 1.47775320850888E-0001	
 3.88050000000000E+0003	 1.47343711871128E-0001	
 3.88250000000000E+0003	 1.47232102891367E-0001	
 3.88450000000000E+0003	 1.47238993911607E-0001	
 3.88650000000000E+0003	 1.46929384931846E-0001	
 3.88850000000000E+0003	 1.47120775952086E-0001	
 3.89050000000000E+0003	 1.47163666972325E-0001	
 3.89250000000000E+0003	 1.47074557992565E-0001	
 3.89450000000000E+0003	 1.46800449012805E-0001	
 3.89650000000000E+0003	 1.46600340033044E-0001	
 3.89850000000000E+0003	 1.46331731053284E-0001	
 3.90050000000000E+0003	 1.46055622073523E-0001	
 3.90250000000000E+0003	 1.46104013093763E-0001	
 3.90450000000000E+0003	 1.46220404114002E-0001	
 3.90650000000000E+0003	 1.46357795134242E-0001	
 3.90850000000000E+0003	 1.46391186154482E-0001	
 3.91050000000000E+0003	 1.46330077174721E-0001	
 3.91250000000000E+0003	 1.46156468194961E-0001	
 3.91450000000000E+0003	 1.46013359215200E-0001	
 3.91650000000000E+0003	 1.45842250235440E-0001	
 3.91850000000000E+0003	 1.45742641255679E-0001	
 3.92050000000000E+0003	 1.45658032275919E-0001	
 3.92250000000000E+0003	 1.45713423296159E-0001	
 3.92450000000000E+0003	 1.45636314316398E-0001	
 3.92650000000000E+0003	 1.45528205336638E-0001	
 3.92850000000000E+0003	 1.45405096356877E-0001	
 3.93050000000000E+0003	 1.45324987377117E-0001	
 3.93250000000000E+0003	 1.45203378397356E-0001	
 3.93450000000000E+0003	 1.45176769417596E-0001	
 3.93650000000000E+0003	 1.45166160437836E-0001	
 3.93850000000000E+0003	 1.45069551458075E-0001	
 3.94050000000000E+0003	 1.45043442478315E-0001	
 3.94250000000000E+0003	 1.44882833498554E-0001	
 3.94450000000000E+0003	 1.44726724518794E-0001	
 3.94650000000000E+0003	 1.44646615539033E-0001	
 3.94850000000000E+0003	 1.44569006559273E-0001	
 3.95050000000000E+0003	 1.44531397579513E-0001	
 3.95250000000000E+0003	 1.44505288599752E-0001	
 3.95450000000000E+0003	 1.44465679619992E-0001	
 3.95650000000000E+0003	 1.44375570640231E-0001	
 3.95850000000000E+0003	 1.44279961660471E-0001	
 3.96050000000000E+0003	 1.44197852680710E-0001	
 3.96250000000000E+0003	 1.44100743700950E-0001	
 3.96450000000000E+0003	 1.44033134721190E-0001	
 3.96650000000000E+0003	 1.43975525741429E-0001	
 3.96850000000000E+0003	 1.43893416761669E-0001	
 3.97050000000000E+0003	 1.43803307781908E-0001	
 3.97250000000000E+0003	 1.43719698802148E-0001	
 3.97450000000000E+0003	 1.43635589822387E-0001	
 3.97650000000000E+0003	 1.43548980842627E-0001	
 3.97850000000000E+0003	 1.43482371862867E-0001	
 3.98050000000000E+0003	 1.43420762883106E-0001	
 3.98250000000000E+0003	 1.43353653903346E-0001	
 3.98450000000000E+0003	 1.43271044923585E-0001	
 3.98650000000000E+0003	 1.43175935943825E-0001	
 3.98850000000000E+0003	 1.43085326964064E-0001	
 3.99050000000000E+0003	 1.42978717984304E-0001	
 3.99250000000000E+0003	 1.42897609004544E-0001	
 3.99450000000000E+0003	 1.42825500024783E-0001	
 3.99650000000000E+0003	 1.42753391045023E-0001	
 3.99850000000000E+0003	 1.42676782065262E-0001	

>1	DATALINE
