*CPCWIN*

>1	DATALINE
DATALINE
1
Operator:

Description:

Remarks:





15.9.2008
11:27


_x	_y
	
	
UNIT	UNIT
 4.50500000000000E+0002	 1.50705500000000E-0001	
 4.52500000000000E+0002	 1.50809000000000E-0001	
 4.54500000000000E+0002	 1.51157500000000E-0001	
 4.56500000000000E+0002	 1.50974500000000E-0001	
 4.58500000000000E+0002	 1.51409132586089E-0001	
 4.60500000000000E+0002	 1.51608804708809E-0001	
 4.62500000000000E+0002	 1.52096476831529E-0001	
 4.64500000000000E+0002	 1.52269648954248E-0001	
 4.66500000000000E+0002	 1.52944321076968E-0001	
 4.68500000000000E+0002	 1.53308993199688E-0001	
 4.70500000000000E+0002	 1.53573165322408E-0001	
 4.72500000000000E+0002	 1.53580337445127E-0001	
 4.74500000000000E+0002	 1.54196009567847E-0001	
 4.76500000000000E+0002	 1.54523181690567E-0001	
 4.78500000000000E+0002	 1.54884353813287E-0001	
 4.80500000000000E+0002	 1.55104025936006E-0001	
 4.82500000000000E+0002	 1.55542698058726E-0001	
 4.84500000000000E+0002	 1.55693870181446E-0001	
 4.86500000000000E+0002	 1.56245042304165E-0001	
 4.88500000000000E+0002	 1.56643214426885E-0001	
 4.90500000000000E+0002	 1.57199886549605E-0001	
 4.92500000000000E+0002	 1.57492058672325E-0001	
 4.94500000000000E+0002	 1.58117730795044E-0001	
 4.96500000000000E+0002	 1.58722402917764E-0001	
 4.98500000000000E+0002	 1.59452075040484E-0001	
 5.00500000000000E+0002	 1.59609747163204E-0001	
 5.02500000000000E+0002	 1.59943419285923E-0001	
 5.04500000000000E+0002	 1.60361591408643E-0001	
 5.06500000000000E+0002	 1.60875763531363E-0001	
 5.08500000000000E+0002	 1.61156935654083E-0001	
 5.10500000000000E+0002	 1.61662607776802E-0001	
 5.12500000000000E+0002	 1.62024279899522E-0001	
 5.14500000000000E+0002	 1.62549452022242E-0001	
 5.16500000000000E+0002	 1.62859124144961E-0001	
 5.18500000000000E+0002	 1.63351796267681E-0001	
 5.20500000000000E+0002	 1.63703468390401E-0001	
 5.22500000000000E+0002	 1.64116140513121E-0001	
 5.24500000000000E+0002	 1.64190812635840E-0001	
 5.26500000000000E+0002	 1.64403484758560E-0001	
 5.28500000000000E+0002	 1.64680156881280E-0001	
 5.30500000000000E+0002	 1.64990829004000E-0001	
 5.32500000000000E+0002	 1.64970001126719E-0001	
 5.34500000000000E+0002	 1.64798673249439E-0001	
 5.36500000000000E+0002	 1.64461345372159E-0001	
 5.38500000000000E+0002	 1.64143517494879E-0001	
 5.40500000000000E+0002	 1.63622189617598E-0001	
 5.42500000000000E+0002	 1.63244861740318E-0001	
 5.44500000000000E+0002	 1.62811033863038E-0001	
 5.46500000000000E+0002	 1.62479205985757E-0001	
 5.48500000000000E+0002	 1.62152878108477E-0001	
 5.50500000000000E+0002	 1.61979550231197E-0001	
 5.52500000000000E+0002	 1.61749222353917E-0001	
 5.54500000000000E+0002	 1.61684394476636E-0001	
 5.56500000000000E+0002	 1.61667066599356E-0001	
 5.58500000000000E+0002	 1.61666738722076E-0001	
 5.60500000000000E+0002	 1.61460410844796E-0001	
 5.62500000000000E+0002	 1.61295082967515E-0001	
 5.64500000000000E+0002	 1.61134255090235E-0001	
 5.66500000000000E+0002	 1.60981927212955E-0001	
 5.68500000000000E+0002	 1.60732099335675E-0001	
 5.70500000000000E+0002	 1.60675271458394E-0001	
 5.72500000000000E+0002	 1.60610943581114E-0001	
 5.74500000000000E+0002	 1.60464115703834E-0001	
 5.76500000000000E+0002	 1.60189287826554E-0001	
 5.78500000000000E+0002	 1.59991959949273E-0001	
 5.80500000000000E+0002	 1.59481632071993E-0001	
 5.82500000000000E+0002	 1.58905804194713E-0001	
 5.84500000000000E+0002	 1.58431476317432E-0001	
 5.86500000000000E+0002	 1.58227148440152E-0001	
 5.88500000000000E+0002	 1.58015320562872E-0001	
 5.90500000000000E+0002	 1.57908992685592E-0001	
 5.92500000000000E+0002	 1.57876164808311E-0001	
 5.94500000000000E+0002	 1.58017336931031E-0001	
 5.96500000000000E+0002	 1.58049509053751E-0001	
 5.98500000000000E+0002	 1.58071681176471E-0001	
 6.00500000000000E+0002	 1.57953353299190E-0001	
 6.02500000000000E+0002	 1.57982025421910E-0001	
 6.04500000000000E+0002	 1.57894197544630E-0001	
 6.06500000000000E+0002	 1.57919369667350E-0001	
 6.08500000000000E+0002	 1.57879041790069E-0001	
 6.10500000000000E+0002	 1.57831713912789E-0001	
 6.12500000000000E+0002	 1.57616386035509E-0001	
 6.14500000000000E+0002	 1.57448058158228E-0001	
 6.16500000000000E+0002	 1.57011730280948E-0001	
 6.18500000000000E+0002	 1.56538902403668E-0001	
 6.20500000000000E+0002	 1.55877574526388E-0001	
 6.22500000000000E+0002	 1.55318246649107E-0001	
 6.24500000000000E+0002	 1.54722418771827E-0001	
 6.26500000000000E+0002	 1.54364590894547E-0001	
 6.28500000000000E+0002	 1.53970263017267E-0001	
 6.30500000000000E+0002	 1.53674435139986E-0001	
 6.32500000000000E+0002	 1.53186107262706E-0001	
 6.34500000000000E+0002	 1.52863779385426E-0001	
 6.36500000000000E+0002	 1.52540951508146E-0001	
 6.38500000000000E+0002	 1.52354623630865E-0001	
 6.40500000000000E+0002	 1.52022295753585E-0001	
 6.42500000000000E+0002	 1.51762467876305E-0001	
 6.44500000000000E+0002	 1.51320639999024E-0001	
 6.46500000000000E+0002	 1.51040312121744E-0001	
 6.48500000000000E+0002	 1.50632484244464E-0001	
 6.50500000000000E+0002	 1.50322656367184E-0001	
 6.52500000000000E+0002	 1.49889328489903E-0001	
 6.54500000000000E+0002	 1.49708500612623E-0001	
 6.56500000000000E+0002	 1.49517672735343E-0001	
 6.58500000000000E+0002	 1.49449344858063E-0001	
 6.60500000000000E+0002	 1.49251016980782E-0001	
 6.62500000000000E+0002	 1.49099689103502E-0001	
 6.64500000000000E+0002	 1.48699861226222E-0001	
 6.66500000000000E+0002	 1.48882533348942E-0001	
 6.68500000000000E+0002	 1.48885705471661E-0001	
 6.70500000000000E+0002	 1.48216877594381E-0001	
 6.72500000000000E+0002	 1.47544549717101E-0001	
 6.74500000000000E+0002	 1.47119221839821E-0001	
 6.76500000000000E+0002	 1.46546393962540E-0001	
 6.78500000000000E+0002	 1.46054066085260E-0001	
 6.80500000000000E+0002	 1.45498238207980E-0001	
 6.82500000000000E+0002	 1.45157410330699E-0001	
 6.84500000000000E+0002	 1.44750082453419E-0001	
 6.86500000000000E+0002	 1.44439254576139E-0001	
 6.88500000000000E+0002	 1.44112926698859E-0001	
 6.90500000000000E+0002	 1.43975098821578E-0001	
 6.92500000000000E+0002	 1.43775270944298E-0001	
 6.94500000000000E+0002	 1.43747443067018E-0001	
 6.96500000000000E+0002	 1.43727615189738E-0001	
 6.98500000000000E+0002	 1.43780287312457E-0001	
 7.00500000000000E+0002	 1.43639959435177E-0001	
 7.02500000000000E+0002	 1.43404131557897E-0001	
 7.04500000000000E+0002	 1.42962303680617E-0001	
 7.06500000000000E+0002	 1.42508975803336E-0001	
 7.08500000000000E+0002	 1.41908147926056E-0001	
 7.10500000000000E+0002	 1.41287820048776E-0001	
 7.12500000000000E+0002	 1.40566492171495E-0001	
 7.14500000000000E+0002	 1.39892164294215E-0001	
 7.16500000000000E+0002	 1.39244836416935E-0001	
 7.18500000000000E+0002	 1.38794008539655E-0001	
 7.20500000000000E+0002	 1.38272180662374E-0001	
 7.22500000000000E+0002	 1.37651852785094E-0001	
 7.24500000000000E+0002	 1.36908024907814E-0001	
 7.26500000000000E+0002	 1.36207697030534E-0001	
 7.28500000000000E+0002	 1.35463369153253E-0001	
 7.30500000000000E+0002	 1.34811541275973E-0001	
 7.32500000000000E+0002	 1.34181713398693E-0001	
 7.34500000000000E+0002	 1.33669385521413E-0001	
 7.36500000000000E+0002	 1.33134057644132E-0001	
 7.38500000000000E+0002	 1.32669229766852E-0001	
 7.40500000000000E+0002	 1.32214401889572E-0001	
 7.42500000000000E+0002	 1.31847074012291E-0001	
 7.44500000000000E+0002	 1.31447246135011E-0001	
 7.46500000000000E+0002	 1.31170418257731E-0001	
 7.48500000000000E+0002	 1.30817590380451E-0001	
 7.50500000000000E+0002	 1.30495262503170E-0001	
 7.52500000000000E+0002	 1.30061934625890E-0001	
 7.54500000000000E+0002	 1.29672606748610E-0001	
 7.56500000000000E+0002	 1.29210778871330E-0001	
 7.58500000000000E+0002	 1.28789950994049E-0001	
 7.60500000000000E+0002	 1.28315623116769E-0001	
 7.62500000000000E+0002	 1.27957795239489E-0001	
 7.64500000000000E+0002	 1.27617967362209E-0001	
 7.66500000000000E+0002	 1.27301139484928E-0001	
 7.68500000000000E+0002	 1.26788811607648E-0001	
 7.70500000000000E+0002	 1.26369483730368E-0001	
 7.72500000000000E+0002	 1.26000655853088E-0001	
 7.74500000000000E+0002	 1.25891327975807E-0001	
 7.76500000000000E+0002	 1.25947000098527E-0001	
 7.78500000000000E+0002	 1.26182172221247E-0001	
 7.80500000000000E+0002	 1.26041844343966E-0001	
 7.82500000000000E+0002	 1.25619016466686E-0001	
 7.84500000000000E+0002	 1.25055688589406E-0001	
 7.86500000000000E+0002	 1.24697360712126E-0001	
 7.88500000000000E+0002	 1.24423532834845E-0001	
 7.90500000000000E+0002	 1.24365204957565E-0001	
 7.92500000000000E+0002	 1.24479877080285E-0001	
 7.94500000000000E+0002	 1.24845549203005E-0001	
 7.96500000000000E+0002	 1.25238721325724E-0001	
 7.98500000000000E+0002	 1.25676893448444E-0001	
 8.00500000000000E+0002	 1.25999565571164E-0001	
 8.02500000000000E+0002	 1.26167737693884E-0001	
 8.04500000000000E+0002	 1.25966909816603E-0001	
 8.06500000000000E+0002	 1.25411581939323E-0001	
 8.08500000000000E+0002	 1.24567254062043E-0001	
 8.10500000000000E+0002	 1.23708426184762E-0001	
 8.12500000000000E+0002	 1.22959098307482E-0001	
 8.14500000000000E+0002	 1.22426770430202E-0001	
 8.16500000000000E+0002	 1.22061442552922E-0001	
 8.18500000000000E+0002	 1.21813614675641E-0001	
 8.20500000000000E+0002	 1.21684786798361E-0001	
 8.22500000000000E+0002	 1.21678958921081E-0001	
 8.24500000000000E+0002	 1.21742631043801E-0001	
 8.26500000000000E+0002	 1.21865803166520E-0001	
 8.28500000000000E+0002	 1.22057975289240E-0001	
 8.30500000000000E+0002	 1.22303147411960E-0001	
 8.32500000000000E+0002	 1.22626819534680E-0001	
 8.34500000000000E+0002	 1.23021991657399E-0001	
 8.36500000000000E+0002	 1.23436163780119E-0001	
 8.38500000000000E+0002	 1.23823835902839E-0001	
 8.40500000000000E+0002	 1.24224008025558E-0001	
 8.42500000000000E+0002	 1.24579680148278E-0001	
 8.44500000000000E+0002	 1.24902352270998E-0001	
 8.46500000000000E+0002	 1.25194524393718E-0001	
 8.48500000000000E+0002	 1.25502196516437E-0001	
 8.50500000000000E+0002	 1.25765868639157E-0001	
 8.52500000000000E+0002	 1.26053540761877E-0001	
 8.54500000000000E+0002	 1.26352212884597E-0001	
 8.56500000000000E+0002	 1.26648385007316E-0001	
 8.58500000000000E+0002	 1.26844557130036E-0001	
 8.60500000000000E+0002	 1.26950229252756E-0001	
 8.62500000000000E+0002	 1.26925401375476E-0001	
 8.64500000000000E+0002	 1.26817073498195E-0001	
 8.66500000000000E+0002	 1.26589745620915E-0001	
 8.68500000000000E+0002	 1.26352917743635E-0001	
 8.70500000000000E+0002	 1.26178589866355E-0001	
 8.72500000000000E+0002	 1.26030261989074E-0001	
 8.74500000000000E+0002	 1.25820934111794E-0001	
 8.76500000000000E+0002	 1.25629106234514E-0001	
 8.78500000000000E+0002	 1.25443278357233E-0001	
 8.80500000000000E+0002	 1.25283950479953E-0001	
 8.82500000000000E+0002	 1.25177622602673E-0001	
 8.84500000000000E+0002	 1.25142794725393E-0001	
 8.86500000000000E+0002	 1.25133966848112E-0001	
 8.88500000000000E+0002	 1.25215638970832E-0001	
 8.90500000000000E+0002	 1.25399811093552E-0001	
 8.92500000000000E+0002	 1.25695483216272E-0001	
 8.94500000000000E+0002	 1.26032655338991E-0001	
 8.96500000000000E+0002	 1.26393827461711E-0001	
 8.98500000000000E+0002	 1.26747999584431E-0001	
 9.00500000000000E+0002	 1.27131671707151E-0001	
 9.02500000000000E+0002	 1.27559843829870E-0001	
 9.04500000000000E+0002	 1.28067015952590E-0001	
 9.06500000000000E+0002	 1.28598188075310E-0001	
 9.08500000000000E+0002	 1.29169860198029E-0001	
 9.10500000000000E+0002	 1.29690532320749E-0001	
 9.12500000000000E+0002	 1.30164704443469E-0001	
 9.14500000000000E+0002	 1.30493376566189E-0001	
 9.16500000000000E+0002	 1.30692548688908E-0001	
 9.18500000000000E+0002	 1.30786220811628E-0001	
 9.20500000000000E+0002	 1.30856892934348E-0001	
 9.22500000000000E+0002	 1.30964565057068E-0001	
 9.24500000000000E+0002	 1.31260737179787E-0001	
 9.26500000000000E+0002	 1.31687409302507E-0001	
 9.28500000000000E+0002	 1.32252081425227E-0001	
 9.30500000000000E+0002	 1.32890253547947E-0001	
 9.32500000000000E+0002	 1.33641925670666E-0001	
 9.34500000000000E+0002	 1.34379597793386E-0001	
 9.36500000000000E+0002	 1.35098269916106E-0001	
 9.38500000000000E+0002	 1.35716942038825E-0001	
 9.40500000000000E+0002	 1.36299614161545E-0001	
 9.42500000000000E+0002	 1.36778286284265E-0001	
 9.44500000000000E+0002	 1.37170958406985E-0001	
 9.46500000000000E+0002	 1.37433630529704E-0001	
 9.48500000000000E+0002	 1.37643802652424E-0001	
 9.50500000000000E+0002	 1.37853474775144E-0001	
 9.52500000000000E+0002	 1.38187646897864E-0001	
 9.54500000000000E+0002	 1.38725319020583E-0001	
 9.56500000000000E+0002	 1.39537491143303E-0001	
 9.58500000000000E+0002	 1.40584163266023E-0001	
 9.60500000000000E+0002	 1.41851835388743E-0001	
 9.62500000000000E+0002	 1.43265007511462E-0001	
 9.64500000000000E+0002	 1.44761679634182E-0001	
 9.66500000000000E+0002	 1.46322351756902E-0001	
 9.68500000000000E+0002	 1.48003523879622E-0001	
 9.70500000000000E+0002	 1.49916196002341E-0001	
 9.72500000000000E+0002	 1.52188368125061E-0001	
 9.74500000000000E+0002	 1.54922040247781E-0001	
 9.76500000000000E+0002	 1.58170712370500E-0001	
 9.78500000000000E+0002	 1.61838384493220E-0001	
 9.80500000000000E+0002	 1.65709556615940E-0001	
 9.82500000000000E+0002	 1.69471228738660E-0001	
 9.84500000000000E+0002	 1.72698400861379E-0001	
 9.86500000000000E+0002	 1.75158572984099E-0001	
 9.88500000000000E+0002	 1.76775745106819E-0001	
 9.90500000000000E+0002	 1.77556917229539E-0001	
 9.92500000000000E+0002	 1.77576589352258E-0001	
 9.94500000000000E+0002	 1.76997261474978E-0001	
 9.96500000000000E+0002	 1.76027933597698E-0001	
 9.98500000000000E+0002	 1.74955105720418E-0001	
 1.00050000000000E+0003	 1.74080777843137E-0001	
 1.00250000000000E+0003	 1.73699949965857E-0001	
 1.00450000000000E+0003	 1.73961122088577E-0001	
 1.00650000000000E+0003	 1.74817794211296E-0001	
 1.00850000000000E+0003	 1.76114966334016E-0001	
 1.01050000000000E+0003	 1.77583138456736E-0001	
 1.01250000000000E+0003	 1.79030810579456E-0001	
 1.01450000000000E+0003	 1.80371482702175E-0001	
 1.01650000000000E+0003	 1.81660154824895E-0001	
 1.01850000000000E+0003	 1.82988826947615E-0001	
 1.02050000000000E+0003	 1.84467999070335E-0001	
 1.02250000000000E+0003	 1.86079671193054E-0001	
 1.02450000000000E+0003	 1.87800343315774E-0001	
 1.02650000000000E+0003	 1.89444515438494E-0001	
 1.02850000000000E+0003	 1.90821687561214E-0001	
 1.03050000000000E+0003	 1.91747859683933E-0001	
 1.03250000000000E+0003	 1.92231531806653E-0001	
 1.03450000000000E+0003	 1.92342703929373E-0001	
 1.03650000000000E+0003	 1.92261376052092E-0001	
 1.03850000000000E+0003	 1.92076548174812E-0001	
 1.04050000000000E+0003	 1.91962220297532E-0001	
 1.04250000000000E+0003	 1.92012392420252E-0001	
 1.04450000000000E+0003	 1.92276064542971E-0001	
 1.04650000000000E+0003	 1.92629736665691E-0001	
 1.04850000000000E+0003	 1.92917408788411E-0001	
 1.05050000000000E+0003	 1.92934580911131E-0001	
 1.05250000000000E+0003	 1.92706253033850E-0001	
 1.05450000000000E+0003	 1.92266925156570E-0001	
 1.05650000000000E+0003	 1.91766097279290E-0001	
 1.05850000000000E+0003	 1.91272269402010E-0001	
 1.06050000000000E+0003	 1.90805941524729E-0001	
 1.06250000000000E+0003	 1.90325113647449E-0001	
 1.06450000000000E+0003	 1.89886785770169E-0001	
 1.06650000000000E+0003	 1.89547957892888E-0001	
 1.06850000000000E+0003	 1.89503130015608E-0001	
 1.07050000000000E+0003	 1.89709302138328E-0001	
 1.07250000000000E+0003	 1.90126974261048E-0001	
 1.07450000000000E+0003	 1.90533146383767E-0001	
 1.07650000000000E+0003	 1.90762818506487E-0001	
 1.07850000000000E+0003	 1.90662490629207E-0001	
 1.08050000000000E+0003	 1.90194162751927E-0001	
 1.08250000000000E+0003	 1.89320834874646E-0001	
 1.08450000000000E+0003	 1.88198506997366E-0001	
 1.08650000000000E+0003	 1.86887179120086E-0001	
 1.08850000000000E+0003	 1.85571851242806E-0001	
 1.09050000000000E+0003	 1.84330023365525E-0001	
 1.09250000000000E+0003	 1.83368695488245E-0001	
 1.09450000000000E+0003	 1.82706367610965E-0001	
 1.09650000000000E+0003	 1.82362539733685E-0001	
 1.09850000000000E+0003	 1.82148211856404E-0001	
 1.10050000000000E+0003	 1.82093383979124E-0001	
 1.10250000000000E+0003	 1.82058556101844E-0001	
 1.10450000000000E+0003	 1.82027228224563E-0001	
 1.10650000000000E+0003	 1.81876400347283E-0001	
 1.10850000000000E+0003	 1.81697072470003E-0001	
 1.11050000000000E+0003	 1.81388744592723E-0001	
 1.11250000000000E+0003	 1.80998416715442E-0001	
 1.11450000000000E+0003	 1.80348588838162E-0001	
 1.11650000000000E+0003	 1.79503760960882E-0001	
 1.11850000000000E+0003	 1.78359433083602E-0001	
 1.12050000000000E+0003	 1.77099105206321E-0001	
 1.12250000000000E+0003	 1.75687277329041E-0001	
 1.12450000000000E+0003	 1.74230949451761E-0001	
 1.12650000000000E+0003	 1.72620621574481E-0001	
 1.12850000000000E+0003	 1.70992793697200E-0001	
 1.13050000000000E+0003	 1.69205965819920E-0001	
 1.13250000000000E+0003	 1.67486137942640E-0001	
 1.13450000000000E+0003	 1.65868310065359E-0001	
 1.13650000000000E+0003	 1.64564482188079E-0001	
 1.13850000000000E+0003	 1.63585654310799E-0001	
 1.14050000000000E+0003	 1.63167326433519E-0001	
 1.14250000000000E+0003	 1.63174998556238E-0001	
 1.14450000000000E+0003	 1.63618670678958E-0001	
 1.14650000000000E+0003	 1.64108842801678E-0001	
 1.14850000000000E+0003	 1.64491514924398E-0001	
 1.15050000000000E+0003	 1.64419687047117E-0001	
 1.15250000000000E+0003	 1.63923859169837E-0001	
 1.15450000000000E+0003	 1.62854531292557E-0001	
 1.15650000000000E+0003	 1.61466203415277E-0001	
 1.15850000000000E+0003	 1.59741875537996E-0001	
 1.16050000000000E+0003	 1.57952547660716E-0001	
 1.16250000000000E+0003	 1.56058719783436E-0001	
 1.16450000000000E+0003	 1.54308391906155E-0001	
 1.16650000000000E+0003	 1.52593064028875E-0001	
 1.16850000000000E+0003	 1.51132236151595E-0001	
 1.17050000000000E+0003	 1.49758908274315E-0001	
 1.17250000000000E+0003	 1.48603080397034E-0001	
 1.17450000000000E+0003	 1.47441252519754E-0001	
 1.17650000000000E+0003	 1.46471424642474E-0001	
 1.17850000000000E+0003	 1.45579096765194E-0001	
 1.18050000000000E+0003	 1.45009268887913E-0001	
 1.18250000000000E+0003	 1.44602441010633E-0001	
 1.18450000000000E+0003	 1.44611113133353E-0001	
 1.18650000000000E+0003	 1.44860785256073E-0001	
 1.18850000000000E+0003	 1.45554457378792E-0001	
 1.19050000000000E+0003	 1.46429129501512E-0001	
 1.19250000000000E+0003	 1.47664301624232E-0001	
 1.19450000000000E+0003	 1.49025473746952E-0001	
 1.19650000000000E+0003	 1.50625645869671E-0001	
 1.19850000000000E+0003	 1.52151317992391E-0001	
 1.20050000000000E+0003	 1.53769490115111E-0001	
 1.20250000000000E+0003	 1.55201162237830E-0001	
 1.20450000000000E+0003	 1.56629834360550E-0001	
 1.20650000000000E+0003	 1.57792506483270E-0001	
 1.20850000000000E+0003	 1.58854178605990E-0001	
 1.21050000000000E+0003	 1.59611850728709E-0001	
 1.21250000000000E+0003	 1.60382022851429E-0001	
 1.21450000000000E+0003	 1.60978694974149E-0001	
 1.21650000000000E+0003	 1.61657867096869E-0001	
 1.21850000000000E+0003	 1.62316039219588E-0001	
 1.22050000000000E+0003	 1.63089211342308E-0001	
 1.22250000000000E+0003	 1.63554883465028E-0001	
 1.22450000000000E+0003	 1.63946055587748E-0001	
 1.22650000000000E+0003	 1.64204727710467E-0001	
 1.22850000000000E+0003	 1.64561899833187E-0001	
 1.23050000000000E+0003	 1.64814571955907E-0001	
 1.23250000000000E+0003	 1.65155244078626E-0001	
 1.23450000000000E+0003	 1.65350916201346E-0001	
 1.23650000000000E+0003	 1.65512588324066E-0001	
 1.23850000000000E+0003	 1.65411260446786E-0001	
 1.24050000000000E+0003	 1.65242932569505E-0001	
 1.24250000000000E+0003	 1.64866604692225E-0001	
 1.24450000000000E+0003	 1.64490276814945E-0001	
 1.24650000000000E+0003	 1.63958448937665E-0001	
 1.24850000000000E+0003	 1.63418621060384E-0001	
 1.25050000000000E+0003	 1.62721293183104E-0001	
 1.25250000000000E+0003	 1.62071965305824E-0001	
 1.25450000000000E+0003	 1.61324637428544E-0001	
 1.25650000000000E+0003	 1.60629809551263E-0001	
 1.25850000000000E+0003	 1.59819481673983E-0001	
 1.26050000000000E+0003	 1.59040153796703E-0001	
 1.26250000000000E+0003	 1.58117825919422E-0001	
 1.26450000000000E+0003	 1.57213998042142E-0001	
 1.26650000000000E+0003	 1.56218170164862E-0001	
 1.26850000000000E+0003	 1.55375342287582E-0001	
 1.27050000000000E+0003	 1.54531514410301E-0001	
 1.27250000000000E+0003	 1.53874686533021E-0001	
 1.27450000000000E+0003	 1.53242858655741E-0001	
 1.27650000000000E+0003	 1.52768530778461E-0001	
 1.27850000000000E+0003	 1.52280202901180E-0001	
 1.28050000000000E+0003	 1.51899875023900E-0001	
 1.28250000000000E+0003	 1.51371047146620E-0001	
 1.28450000000000E+0003	 1.50840719269340E-0001	
 1.28650000000000E+0003	 1.50194891392059E-0001	
 1.28850000000000E+0003	 1.49689063514779E-0001	
 1.29050000000000E+0003	 1.49193235637499E-0001	
 1.29250000000000E+0003	 1.48880407760219E-0001	
 1.29450000000000E+0003	 1.48559079882938E-0001	
 1.29650000000000E+0003	 1.48415252005658E-0001	
 1.29850000000000E+0003	 1.48309424128378E-0001	
 1.30050000000000E+0003	 1.48388096251097E-0001	
 1.30250000000000E+0003	 1.48433268373817E-0001	
 1.30450000000000E+0003	 1.48577940496537E-0001	
 1.30650000000000E+0003	 1.48645612619257E-0001	
 1.30850000000000E+0003	 1.48799784741976E-0001	
 1.31050000000000E+0003	 1.48859956864696E-0001	
 1.31250000000000E+0003	 1.48979628987416E-0001	
 1.31450000000000E+0003	 1.48986801110136E-0001	
 1.31650000000000E+0003	 1.48959473232855E-0001	
 1.31850000000000E+0003	 1.48753645355575E-0001	
 1.32050000000000E+0003	 1.48571817478295E-0001	
 1.32250000000000E+0003	 1.48314489601015E-0001	
 1.32450000000000E+0003	 1.48105161723734E-0001	
 1.32650000000000E+0003	 1.47860333846454E-0001	
 1.32850000000000E+0003	 1.47761505969174E-0001	
 1.33050000000000E+0003	 1.47710678091893E-0001	
 1.33250000000000E+0003	 1.47740850214613E-0001	
 1.33450000000000E+0003	 1.47655022337333E-0001	
 1.33650000000000E+0003	 1.47488694460053E-0001	
 1.33850000000000E+0003	 1.47198866582772E-0001	
 1.34050000000000E+0003	 1.46991038705492E-0001	
 1.34250000000000E+0003	 1.46812210828212E-0001	
 1.34450000000000E+0003	 1.46548382950932E-0001	
 1.34650000000000E+0003	 1.46108555073651E-0001	
 1.34850000000000E+0003	 1.45731727196371E-0001	
 1.35050000000000E+0003	 1.45444399319091E-0001	
 1.35250000000000E+0003	 1.45320071441811E-0001	
 1.35450000000000E+0003	 1.45274743564530E-0001	
 1.35650000000000E+0003	 1.45356415687250E-0001	
 1.35850000000000E+0003	 1.45465587809970E-0001	
 1.36050000000000E+0003	 1.45681759932689E-0001	
 1.36250000000000E+0003	 1.46171432055409E-0001	
 1.36450000000000E+0003	 1.47172604178129E-0001	
 1.36650000000000E+0003	 1.48451276300849E-0001	
 1.36850000000000E+0003	 1.49838948423568E-0001	
 1.37050000000000E+0003	 1.50941620546288E-0001	
 1.37250000000000E+0003	 1.51740792669008E-0001	
 1.37450000000000E+0003	 1.52267464791728E-0001	
 1.37650000000000E+0003	 1.52853136914447E-0001	
 1.37850000000000E+0003	 1.53281809037167E-0001	
 1.38050000000000E+0003	 1.53473481159887E-0001	
 1.38250000000000E+0003	 1.53524153282607E-0001	
 1.38450000000000E+0003	 1.53482825405326E-0001	
 1.38650000000000E+0003	 1.53406497528046E-0001	
 1.38850000000000E+0003	 1.53474169650766E-0001	
 1.39050000000000E+0003	 1.53449341773486E-0001	
 1.39250000000000E+0003	 1.53544013896205E-0001	
 1.39450000000000E+0003	 1.53630186018925E-0001	
 1.39650000000000E+0003	 1.53674858141645E-0001	
 1.39850000000000E+0003	 1.53978030264364E-0001	
 1.40050000000000E+0003	 1.54524702387084E-0001	
 1.40250000000000E+0003	 1.54776374509804E-0001	
 1.40450000000000E+0003	 1.54776546632524E-0001	
 1.40650000000000E+0003	 1.54744718755243E-0001	
 1.40850000000000E+0003	 1.54730390877963E-0001	
 1.41050000000000E+0003	 1.54540563000683E-0001	
 1.41250000000000E+0003	 1.54250735123403E-0001	
 1.41450000000000E+0003	 1.53799407246122E-0001	
 1.41650000000000E+0003	 1.53018579368842E-0001	
 1.41850000000000E+0003	 1.52590751491562E-0001	
 1.42050000000000E+0003	 1.52288923614282E-0001	
 1.42250000000000E+0003	 1.51672095737001E-0001	
 1.42450000000000E+0003	 1.51163767859721E-0001	
 1.42650000000000E+0003	 1.50705939982441E-0001	
 1.42850000000000E+0003	 1.50136612105160E-0001	
 1.43050000000000E+0003	 1.49681284227880E-0001	
 1.43250000000000E+0003	 1.49426956350600E-0001	
 1.43450000000000E+0003	 1.49173128473320E-0001	
 1.43650000000000E+0003	 1.49307800596039E-0001	
 1.43850000000000E+0003	 1.49890972718759E-0001	
 1.44050000000000E+0003	 1.50462644841479E-0001	
 1.44250000000000E+0003	 1.51042816964199E-0001	
 1.44450000000000E+0003	 1.51391989086918E-0001	
 1.44650000000000E+0003	 1.51687661209638E-0001	
 1.44850000000000E+0003	 1.52032833332358E-0001	
 1.45050000000000E+0003	 1.52567005455078E-0001	
 1.45250000000000E+0003	 1.52773677577797E-0001	
 1.45450000000000E+0003	 1.52402349700517E-0001	
 1.45650000000000E+0003	 1.52006021823237E-0001	
 1.45850000000000E+0003	 1.51479693945956E-0001	
 1.46050000000000E+0003	 1.51051866068676E-0001	
 1.46250000000000E+0003	 1.50451538191396E-0001	
 1.46450000000000E+0003	 1.49342210314116E-0001	
 1.46650000000000E+0003	 1.48255382436835E-0001	
 1.46850000000000E+0003	 1.46921054559555E-0001	
 1.47050000000000E+0003	 1.44944226682275E-0001	
 1.47250000000000E+0003	 1.42545898804995E-0001	
 1.47450000000000E+0003	 1.40529570927714E-0001	
 1.47650000000000E+0003	 1.39350743050434E-0001	
 1.47850000000000E+0003	 1.38683915173154E-0001	
 1.48050000000000E+0003	 1.38234087295874E-0001	
 1.48250000000000E+0003	 1.37973259418593E-0001	
 1.48450000000000E+0003	 1.37842431541313E-0001	
 1.48650000000000E+0003	 1.37717603664033E-0001	
 1.48850000000000E+0003	 1.37798275786753E-0001	
 1.49050000000000E+0003	 1.38900947909472E-0001	
 1.49250000000000E+0003	 1.40700120032192E-0001	
 1.49450000000000E+0003	 1.42498792154912E-0001	
 1.49650000000000E+0003	 1.44102964277631E-0001	
 1.49850000000000E+0003	 1.45760636400351E-0001	
 1.50050000000000E+0003	 1.47584808523071E-0001	
 1.50250000000000E+0003	 1.49093980645791E-0001	
 1.50450000000000E+0003	 1.50052152768510E-0001	
 1.50650000000000E+0003	 1.51757824891230E-0001	
 1.50850000000000E+0003	 1.54212497013950E-0001	
 1.51050000000000E+0003	 1.57048169136670E-0001	
 1.51250000000000E+0003	 1.59673841259389E-0001	
 1.51450000000000E+0003	 1.61458513382109E-0001	
 1.51650000000000E+0003	 1.62671685504829E-0001	
 1.51850000000000E+0003	 1.63850857627549E-0001	
 1.52050000000000E+0003	 1.65359529750268E-0001	
 1.52250000000000E+0003	 1.66687201872988E-0001	
 1.52450000000000E+0003	 1.67905373995708E-0001	
 1.52650000000000E+0003	 1.69662046118427E-0001	
 1.52850000000000E+0003	 1.71154718241147E-0001	
 1.53050000000000E+0003	 1.72309390363867E-0001	
 1.53250000000000E+0003	 1.73095562486587E-0001	
 1.53450000000000E+0003	 1.74171234609306E-0001	
 1.53650000000000E+0003	 1.74906406732026E-0001	
 1.53850000000000E+0003	 1.75445578854746E-0001	
 1.54050000000000E+0003	 1.75808750977466E-0001	
 1.54250000000000E+0003	 1.76381923100185E-0001	
 1.54450000000000E+0003	 1.77324595222905E-0001	
 1.54650000000000E+0003	 1.77938267345625E-0001	
 1.54850000000000E+0003	 1.77925439468345E-0001	
 1.55050000000000E+0003	 1.77349611591064E-0001	
 1.55250000000000E+0003	 1.76504783713784E-0001	
 1.55450000000000E+0003	 1.75179455836504E-0001	
 1.55650000000000E+0003	 1.72699627959223E-0001	
 1.55850000000000E+0003	 1.70676800081943E-0001	
 1.56050000000000E+0003	 1.70205472204663E-0001	
 1.56250000000000E+0003	 1.69657144327383E-0001	
 1.56450000000000E+0003	 1.68512316450102E-0001	
 1.56650000000000E+0003	 1.67069988572822E-0001	
 1.56850000000000E+0003	 1.65793160695542E-0001	
 1.57050000000000E+0003	 1.64861332818262E-0001	
 1.57250000000000E+0003	 1.64103004940981E-0001	
 1.57450000000000E+0003	 1.63547177063701E-0001	
 1.57650000000000E+0003	 1.63157849186421E-0001	
 1.57850000000000E+0003	 1.62259521309141E-0001	
 1.58050000000000E+0003	 1.61864193431860E-0001	
 1.58250000000000E+0003	 1.61600365554580E-0001	
 1.58450000000000E+0003	 1.61463037677300E-0001	
 1.58650000000000E+0003	 1.61465209800020E-0001	
 1.58850000000000E+0003	 1.61719881922739E-0001	
 1.59050000000000E+0003	 1.62155554045459E-0001	
 1.59250000000000E+0003	 1.62820726168179E-0001	
 1.59450000000000E+0003	 1.63627898290898E-0001	
 1.59650000000000E+0003	 1.64688570413618E-0001	
 1.59850000000000E+0003	 1.65830242536338E-0001	
 1.60050000000000E+0003	 1.67064414659058E-0001	
 1.60250000000000E+0003	 1.68390086781777E-0001	
 1.60450000000000E+0003	 1.69961258904497E-0001	
 1.60650000000000E+0003	 1.71638431027217E-0001	
 1.60850000000000E+0003	 1.73587103149937E-0001	
 1.61050000000000E+0003	 1.75910775272656E-0001	
 1.61250000000000E+0003	 1.78440947395376E-0001	
 1.61450000000000E+0003	 1.80850619518096E-0001	
 1.61650000000000E+0003	 1.84237291640816E-0001	
 1.61850000000000E+0003	 1.87311963763535E-0001	
 1.62050000000000E+0003	 1.89615635886255E-0001	
 1.62250000000000E+0003	 1.92301808008975E-0001	
 1.62450000000000E+0003	 1.95433480131694E-0001	
 1.62650000000000E+0003	 1.98451652254414E-0001	
 1.62850000000000E+0003	 2.01543324377134E-0001	
 1.63050000000000E+0003	 2.04460996499854E-0001	
 1.63250000000000E+0003	 2.06377168622573E-0001	
 1.63450000000000E+0003	 2.07846340745293E-0001	
 1.63650000000000E+0003	 2.09640512868013E-0001	
 1.63850000000000E+0003	 2.11390684990733E-0001	
 1.64050000000000E+0003	 2.12858357113452E-0001	
 1.64250000000000E+0003	 2.13463529236172E-0001	
 1.64450000000000E+0003	 2.13420701358892E-0001	
 1.64650000000000E+0003	 2.13193873481612E-0001	
 1.64850000000000E+0003	 2.12914045604331E-0001	
 1.65050000000000E+0003	 2.13262717727051E-0001	
 1.65250000000000E+0003	 2.14091889849771E-0001	
 1.65450000000000E+0003	 2.13972561972490E-0001	
 1.65650000000000E+0003	 2.13907734095210E-0001	
 1.65850000000000E+0003	 2.13869906217930E-0001	
 1.66050000000000E+0003	 2.13039578340650E-0001	
 1.66250000000000E+0003	 2.11987750463369E-0001	
 1.66450000000000E+0003	 2.10908922586089E-0001	
 1.66650000000000E+0003	 2.09659594708809E-0001	
 1.66850000000000E+0003	 2.08097766831529E-0001	
 1.67050000000000E+0003	 2.06465938954248E-0001	
 1.67250000000000E+0003	 2.05242611076968E-0001	
 1.67450000000000E+0003	 2.04489283199688E-0001	
 1.67650000000000E+0003	 2.03541955322408E-0001	
 1.67850000000000E+0003	 2.02588627445127E-0001	
 1.68050000000000E+0003	 2.01203299567847E-0001	
 1.68250000000000E+0003	 1.99550471690567E-0001	
 1.68450000000000E+0003	 1.98748643813287E-0001	
 1.68650000000000E+0003	 1.97836815936006E-0001	
 1.68850000000000E+0003	 1.96814988058726E-0001	
 1.69050000000000E+0003	 1.95778160181446E-0001	
 1.69250000000000E+0003	 1.94160832304165E-0001	
 1.69450000000000E+0003	 1.92802504426885E-0001	
 1.69650000000000E+0003	 1.90400676549605E-0001	
 1.69850000000000E+0003	 1.87785848672325E-0001	
 1.70050000000000E+0003	 1.86221020795044E-0001	
 1.70250000000000E+0003	 1.84575692917764E-0001	
 1.70450000000000E+0003	 1.83161865040484E-0001	
 1.70650000000000E+0003	 1.81622037163204E-0001	
 1.70850000000000E+0003	 1.80253709285923E-0001	
 1.71050000000000E+0003	 1.78984881408643E-0001	
 1.71250000000000E+0003	 1.77125053531363E-0001	
 1.71450000000000E+0003	 1.75131225654083E-0001	
 1.71650000000000E+0003	 1.73403397776802E-0001	
 1.71850000000000E+0003	 1.71856069899522E-0001	
 1.72050000000000E+0003	 1.70323242022242E-0001	
 1.72250000000000E+0003	 1.69142914144961E-0001	
 1.72450000000000E+0003	 1.67698086267681E-0001	
 1.72650000000000E+0003	 1.66165258390401E-0001	
 1.72850000000000E+0003	 1.64585930513121E-0001	
 1.73050000000000E+0003	 1.62875102635840E-0001	
 1.73250000000000E+0003	 1.61788774758560E-0001	
 1.73450000000000E+0003	 1.61426946881280E-0001	
 1.73650000000000E+0003	 1.60543619004000E-0001	
 1.73850000000000E+0003	 1.60112291126719E-0001	
 1.74050000000000E+0003	 1.59847963249439E-0001	
 1.74250000000000E+0003	 1.59491635372159E-0001	
 1.74450000000000E+0003	 1.59015307494879E-0001	
 1.74650000000000E+0003	 1.58159979617598E-0001	
 1.74850000000000E+0003	 1.57069151740318E-0001	
 1.75050000000000E+0003	 1.56326823863038E-0001	
 1.75250000000000E+0003	 1.55576995985757E-0001	
 1.75450000000000E+0003	 1.54392668108477E-0001	
 1.75650000000000E+0003	 1.53042340231197E-0001	
 1.75850000000000E+0003	 1.51246512353917E-0001	
 1.76050000000000E+0003	 1.49517684476636E-0001	
 1.76250000000000E+0003	 1.47893356599356E-0001	
 1.76450000000000E+0003	 1.45980028722076E-0001	
 1.76650000000000E+0003	 1.44384200844796E-0001	
 1.76850000000000E+0003	 1.42433872967515E-0001	
 1.77050000000000E+0003	 1.40470545090235E-0001	
 1.77250000000000E+0003	 1.39310717212955E-0001	
 1.77450000000000E+0003	 1.38268389335675E-0001	
 1.77650000000000E+0003	 1.37273561458394E-0001	
 1.77850000000000E+0003	 1.36313233581114E-0001	
 1.78050000000000E+0003	 1.35262405703834E-0001	
 1.78250000000000E+0003	 1.34347077826554E-0001	
 1.78450000000000E+0003	 1.33616749949273E-0001	
 1.78650000000000E+0003	 1.32840422071993E-0001	
 1.78850000000000E+0003	 1.31757594194713E-0001	
 1.79050000000000E+0003	 1.30742766317432E-0001	
 1.79250000000000E+0003	 1.29988438440152E-0001	
 1.79450000000000E+0003	 1.29436610562872E-0001	
 1.79650000000000E+0003	 1.28825282685592E-0001	
 1.79850000000000E+0003	 1.28134454808311E-0001	
 1.80050000000000E+0003	 1.27489126931031E-0001	
 1.80250000000000E+0003	 1.27158799053751E-0001	
 1.80450000000000E+0003	 1.26729971176471E-0001	
 1.80650000000000E+0003	 1.26242643299190E-0001	
 1.80850000000000E+0003	 1.25539815421910E-0001	
 1.81050000000000E+0003	 1.24972987544630E-0001	
 1.81250000000000E+0003	 1.24525659667350E-0001	
 1.81450000000000E+0003	 1.24211331790069E-0001	
 1.81650000000000E+0003	 1.23771503912789E-0001	
 1.81850000000000E+0003	 1.23338676035509E-0001	
 1.82050000000000E+0003	 1.22811848158228E-0001	
 1.82250000000000E+0003	 1.22196020280948E-0001	
 1.82450000000000E+0003	 1.21599192403668E-0001	
 1.82650000000000E+0003	 1.20979864526388E-0001	
 1.82850000000000E+0003	 1.20458036649107E-0001	
 1.83050000000000E+0003	 1.20278708771827E-0001	
 1.83250000000000E+0003	 1.20078380894547E-0001	
 1.83450000000000E+0003	 1.19940553017267E-0001	
 1.83650000000000E+0003	 1.19624225139986E-0001	
 1.83850000000000E+0003	 1.19262897262706E-0001	
 1.84050000000000E+0003	 1.18674069385426E-0001	
 1.84250000000000E+0003	 1.18103741508146E-0001	
 1.84450000000000E+0003	 1.17872413630865E-0001	
 1.84650000000000E+0003	 1.17606085753585E-0001	
 1.84850000000000E+0003	 1.17523757876305E-0001	
 1.85050000000000E+0003	 1.17394429999024E-0001	
 1.85250000000000E+0003	 1.17185602121744E-0001	
 1.85450000000000E+0003	 1.16935774244464E-0001	
 1.85650000000000E+0003	 1.16659946367184E-0001	
 1.85850000000000E+0003	 1.16401618489903E-0001	
 1.86050000000000E+0003	 1.16135790612623E-0001	
 1.86250000000000E+0003	 1.15855962735343E-0001	
 1.86450000000000E+0003	 1.15426634858063E-0001	
 1.86650000000000E+0003	 1.14836806980782E-0001	
 1.86850000000000E+0003	 1.14533479103502E-0001	
 1.87050000000000E+0003	 1.14508151226222E-0001	
 1.87250000000000E+0003	 1.14540823348942E-0001	
 1.87450000000000E+0003	 1.14528495471661E-0001	
 1.87650000000000E+0003	 1.14367667594381E-0001	
 1.87850000000000E+0003	 1.14188339717101E-0001	
 1.88050000000000E+0003	 1.13994011839821E-0001	
 1.88250000000000E+0003	 1.13779183962540E-0001	
 1.88450000000000E+0003	 1.13583356085260E-0001	
 1.88650000000000E+0003	 1.13286528207980E-0001	
 1.88850000000000E+0003	 1.13068700330699E-0001	
 1.89050000000000E+0003	 1.12910372453419E-0001	
 1.89250000000000E+0003	 1.12764044576139E-0001	
 1.89450000000000E+0003	 1.12697216698859E-0001	
 1.89650000000000E+0003	 1.12589388821578E-0001	
 1.89850000000000E+0003	 1.12483560944298E-0001	
 1.90050000000000E+0003	 1.12385233067018E-0001	
 1.90250000000000E+0003	 1.12228405189738E-0001	
 1.90450000000000E+0003	 1.12074577312457E-0001	
 1.90650000000000E+0003	 1.11872249435177E-0001	
 1.90850000000000E+0003	 1.11709421557897E-0001	
 1.91050000000000E+0003	 1.11569593680617E-0001	
 1.91250000000000E+0003	 1.11481765803336E-0001	
 1.91450000000000E+0003	 1.11251937926056E-0001	
 1.91650000000000E+0003	 1.11030610048776E-0001	
 1.91850000000000E+0003	 1.10932782171495E-0001	
 1.92050000000000E+0003	 1.10787454294215E-0001	
 1.92250000000000E+0003	 1.10779626416935E-0001	
 1.92450000000000E+0003	 1.10739298539655E-0001	
 1.92650000000000E+0003	 1.10693970662374E-0001	
 1.92850000000000E+0003	 1.10670642785094E-0001	
 1.93050000000000E+0003	 1.10557814907814E-0001	
 1.93250000000000E+0003	 1.10478987030534E-0001	
 1.93450000000000E+0003	 1.10386159153253E-0001	
 1.93650000000000E+0003	 1.10314331275973E-0001	
 1.93850000000000E+0003	 1.10160003398693E-0001	
 1.94050000000000E+0003	 1.09962175521413E-0001	
 1.94250000000000E+0003	 1.09856847644132E-0001	
 1.94450000000000E+0003	 1.09802519766852E-0001	
 1.94650000000000E+0003	 1.09827691889572E-0001	
 1.94850000000000E+0003	 1.09858364012291E-0001	
 1.95050000000000E+0003	 1.09818036135011E-0001	
 1.95250000000000E+0003	 1.09768708257731E-0001	
 1.95450000000000E+0003	 1.09706380380451E-0001	
 1.95650000000000E+0003	 1.09662552503170E-0001	
 1.95850000000000E+0003	 1.09602724625890E-0001	
 1.96050000000000E+0003	 1.09555396748610E-0001	
 1.96250000000000E+0003	 1.09478068871330E-0001	
 1.96450000000000E+0003	 1.09375240994049E-0001	
 1.96650000000000E+0003	 1.09310413116769E-0001	
 1.96850000000000E+0003	 1.09267585239489E-0001	
 1.97050000000000E+0003	 1.09244257362209E-0001	
 1.97250000000000E+0003	 1.09245929484928E-0001	
 1.97450000000000E+0003	 1.09202101607648E-0001	
 1.97650000000000E+0003	 1.09156773730368E-0001	
 1.97850000000000E+0003	 1.09114945853088E-0001	
 1.98050000000000E+0003	 1.09077617975807E-0001	
 1.98250000000000E+0003	 1.09039290098527E-0001	
 1.98450000000000E+0003	 1.08983462221247E-0001	
 1.98650000000000E+0003	 1.08933634343966E-0001	
 1.98850000000000E+0003	 1.08831806466686E-0001	
 1.99050000000000E+0003	 1.08757978589406E-0001	
 1.99250000000000E+0003	 1.08754150712126E-0001	
 1.99450000000000E+0003	 1.08751822834845E-0001	
 1.99650000000000E+0003	 1.08784994957565E-0001	
 1.99850000000000E+0003	 1.08798667080285E-0001	
 2.00050000000000E+0003	 1.08764339203005E-0001	
 2.00250000000000E+0003	 1.08750011325724E-0001	
 2.00450000000000E+0003	 1.08723683448444E-0001	
 2.00650000000000E+0003	 1.08715355571164E-0001	
 2.00850000000000E+0003	 1.08696527693884E-0001	
 2.01050000000000E+0003	 1.08701699816603E-0001	
 2.01250000000000E+0003	 1.08680371939323E-0001	
 2.01450000000000E+0003	 1.08646544062043E-0001	
 2.01650000000000E+0003	 1.08633716184762E-0001	
 2.01850000000000E+0003	 1.08651888307482E-0001	
 2.02050000000000E+0003	 1.08667060430202E-0001	
 2.02250000000000E+0003	 1.08716732552922E-0001	
 2.02450000000000E+0003	 1.08734904675641E-0001	
 2.02650000000000E+0003	 1.08757576798361E-0001	
 2.02850000000000E+0003	 1.08763748921081E-0001	
 2.03050000000000E+0003	 1.08786421043801E-0001	
 2.03250000000000E+0003	 1.08786593166520E-0001	
 2.03450000000000E+0003	 1.08797765289240E-0001	
 2.03650000000000E+0003	 1.08802937411960E-0001	
 2.03850000000000E+0003	 1.08815609534680E-0001	
 2.04050000000000E+0003	 1.08816281657399E-0001	
 2.04250000000000E+0003	 1.08820453780119E-0001	
 2.04450000000000E+0003	 1.08821625902839E-0001	
 2.04650000000000E+0003	 1.08851298025558E-0001	
 2.04850000000000E+0003	 1.08861470148278E-0001	
 2.05050000000000E+0003	 1.08870642270998E-0001	
 2.05250000000000E+0003	 1.08874314393718E-0001	
 2.05450000000000E+0003	 1.08877986516437E-0001	
 2.05650000000000E+0003	 1.08865158639157E-0001	
 2.05850000000000E+0003	 1.08867330761877E-0001	
 2.06050000000000E+0003	 1.08867002884597E-0001	
 2.06250000000000E+0003	 1.08856175007316E-0001	
 2.06450000000000E+0003	 1.08851847130036E-0001	
 2.06650000000000E+0003	 1.08844519252756E-0001	
 2.06850000000000E+0003	 1.08836191375476E-0001	
 2.07050000000000E+0003	 1.08844363498195E-0001	
 2.07250000000000E+0003	 1.08828035620915E-0001	
 2.07450000000000E+0003	 1.08814707743635E-0001	
 2.07650000000000E+0003	 1.08795379866355E-0001	
 2.07850000000000E+0003	 1.08781051989074E-0001	
 2.08050000000000E+0003	 1.08771724111794E-0001	
 2.08250000000000E+0003	 1.08761896234514E-0001	
 2.08450000000000E+0003	 1.08743568357233E-0001	
 2.08650000000000E+0003	 1.08719240479953E-0001	
 2.08850000000000E+0003	 1.08699412602673E-0001	
 2.09050000000000E+0003	 1.08688084725393E-0001	
 2.09250000000000E+0003	 1.08680256848112E-0001	
 2.09450000000000E+0003	 1.08673928970832E-0001	
 2.09650000000000E+0003	 1.08664601093552E-0001	
 2.09850000000000E+0003	 1.08642773216272E-0001	
 2.10050000000000E+0003	 1.08626945338991E-0001	
 2.10250000000000E+0003	 1.08608617461711E-0001	
 2.10450000000000E+0003	 1.08601789584431E-0001	
 2.10650000000000E+0003	 1.08595461707151E-0001	
 2.10850000000000E+0003	 1.08588633829870E-0001	
 2.11050000000000E+0003	 1.08570805952590E-0001	
 2.11250000000000E+0003	 1.08561978075310E-0001	
 2.11450000000000E+0003	 1.08545150198029E-0001	
 2.11650000000000E+0003	 1.08530822320749E-0001	
 2.11850000000000E+0003	 1.08517494443469E-0001	
 2.12050000000000E+0003	 1.08515666566189E-0001	
 2.12250000000000E+0003	 1.08498338688908E-0001	
 2.12450000000000E+0003	 1.08482010811628E-0001	
 2.12650000000000E+0003	 1.08458682934348E-0001	
 2.12850000000000E+0003	 1.08441855057068E-0001	
 2.13050000000000E+0003	 1.08411027179787E-0001	
 2.13250000000000E+0003	 1.08389199302507E-0001	
 2.13450000000000E+0003	 1.08362371425227E-0001	
 2.13650000000000E+0003	 1.08338543547947E-0001	
 2.13850000000000E+0003	 1.08297715670666E-0001	
 2.14050000000000E+0003	 1.08267887793386E-0001	
 2.14250000000000E+0003	 1.08233059916106E-0001	
 2.14450000000000E+0003	 1.08203232038825E-0001	
 2.14650000000000E+0003	 1.08158904161545E-0001	
 2.14850000000000E+0003	 1.08128576284265E-0001	
 2.15050000000000E+0003	 1.08089748406985E-0001	
 2.15250000000000E+0003	 1.08048420529704E-0001	
 2.15450000000000E+0003	 1.07997592652424E-0001	
 2.15650000000000E+0003	 1.07961264775144E-0001	
 2.15850000000000E+0003	 1.07918436897864E-0001	
 2.16050000000000E+0003	 1.07879109020583E-0001	
 2.16250000000000E+0003	 1.07830781143303E-0001	
 2.16450000000000E+0003	 1.07785453266023E-0001	
 2.16650000000000E+0003	 1.07735625388743E-0001	
 2.16850000000000E+0003	 1.07709797511462E-0001	
 2.17050000000000E+0003	 1.07668969634182E-0001	
 2.17250000000000E+0003	 1.07614641756902E-0001	
 2.17450000000000E+0003	 1.07558313879622E-0001	
 2.17650000000000E+0003	 1.07520986002341E-0001	
 2.17850000000000E+0003	 1.07472158125061E-0001	
 2.18050000000000E+0003	 1.07420830247781E-0001	
 2.18250000000000E+0003	 1.07363502370500E-0001	
 2.18450000000000E+0003	 1.07321674493220E-0001	
 2.18650000000000E+0003	 1.07281346615940E-0001	
 2.18850000000000E+0003	 1.07242518738660E-0001	
 2.19050000000000E+0003	 1.07194690861379E-0001	
 2.19250000000000E+0003	 1.07151862984099E-0001	
 2.19450000000000E+0003	 1.07113035106819E-0001	
 2.19650000000000E+0003	 1.07081707229539E-0001	
 2.19850000000000E+0003	 1.07045879352258E-0001	
 2.20050000000000E+0003	 1.07012551474978E-0001	
 2.20250000000000E+0003	 1.06975223597698E-0001	
 2.20450000000000E+0003	 1.06950395720418E-0001	
 2.20650000000000E+0003	 1.06928567843137E-0001	
 2.20850000000000E+0003	 1.06896739965857E-0001	
 2.21050000000000E+0003	 1.06856412088577E-0001	
 2.21250000000000E+0003	 1.06824084211296E-0001	
 2.21450000000000E+0003	 1.06798756334016E-0001	
 2.21650000000000E+0003	 1.06771928456736E-0001	
 2.21850000000000E+0003	 1.06743600579456E-0001	
 2.22050000000000E+0003	 1.06718272702175E-0001	
 2.22250000000000E+0003	 1.06690944824895E-0001	
 2.22450000000000E+0003	 1.06660116947615E-0001	
 2.22650000000000E+0003	 1.06638289070335E-0001	
 2.22850000000000E+0003	 1.06620961193054E-0001	
 2.23050000000000E+0003	 1.06606633315774E-0001	
 2.23250000000000E+0003	 1.06583305438494E-0001	
 2.23450000000000E+0003	 1.06563977561214E-0001	
 2.23650000000000E+0003	 1.06553149683933E-0001	
 2.23850000000000E+0003	 1.06542321806653E-0001	
 2.24050000000000E+0003	 1.06537993929373E-0001	
 2.24250000000000E+0003	 1.06547166052092E-0001	
 2.24450000000000E+0003	 1.06552838174812E-0001	
 2.24650000000000E+0003	 1.06553010297532E-0001	
 2.24850000000000E+0003	 1.06556682420252E-0001	
 2.25050000000000E+0003	 1.06570354542971E-0001	
 2.25250000000000E+0003	 1.06585026665691E-0001	
 2.25450000000000E+0003	 1.06587698788411E-0001	
 2.25650000000000E+0003	 1.06587870911131E-0001	
 2.25850000000000E+0003	 1.06599043033850E-0001	
 2.26050000000000E+0003	 1.06616715156570E-0001	
 2.26250000000000E+0003	 1.06632387279290E-0001	
 2.26450000000000E+0003	 1.06650059402010E-0001	
 2.26650000000000E+0003	 1.06663231524729E-0001	
 2.26850000000000E+0003	 1.06676903647449E-0001	
 2.27050000000000E+0003	 1.06679575770169E-0001	
 2.27250000000000E+0003	 1.06693247892888E-0001	
 2.27450000000000E+0003	 1.06702420015608E-0001	
 2.27650000000000E+0003	 1.06720092138328E-0001	
 2.27850000000000E+0003	 1.06728764261048E-0001	
 2.28050000000000E+0003	 1.06750436383767E-0001	
 2.28250000000000E+0003	 1.06780108506487E-0001	
 2.28450000000000E+0003	 1.06816280629207E-0001	
 2.28650000000000E+0003	 1.06842952751927E-0001	
 2.28850000000000E+0003	 1.06891624874646E-0001	
 2.29050000000000E+0003	 1.06930796997366E-0001	
 2.29250000000000E+0003	 1.06974969120086E-0001	
 2.29450000000000E+0003	 1.07006141242806E-0001	
 2.29650000000000E+0003	 1.07052313365525E-0001	
 2.29850000000000E+0003	 1.07087485488245E-0001	
 2.30050000000000E+0003	 1.07146657610965E-0001	
 2.30250000000000E+0003	 1.07194329733685E-0001	
 2.30450000000000E+0003	 1.07247001856404E-0001	
 2.30650000000000E+0003	 1.07290673979124E-0001	
 2.30850000000000E+0003	 1.07357346101844E-0001	
 2.31050000000000E+0003	 1.07402518224563E-0001	
 2.31250000000000E+0003	 1.07455690347283E-0001	
 2.31450000000000E+0003	 1.07505862470003E-0001	
 2.31650000000000E+0003	 1.07577534592723E-0001	
 2.31850000000000E+0003	 1.07638706715442E-0001	
 2.32050000000000E+0003	 1.07728878838162E-0001	
 2.32250000000000E+0003	 1.07813550960882E-0001	
 2.32450000000000E+0003	 1.07917223083602E-0001	
 2.32650000000000E+0003	 1.07987895206321E-0001	
 2.32850000000000E+0003	 1.08061567329041E-0001	
 2.33050000000000E+0003	 1.08141739451761E-0001	
 2.33250000000000E+0003	 1.08262411574481E-0001	
 2.33450000000000E+0003	 1.08352583697200E-0001	
 2.33650000000000E+0003	 1.08475255819920E-0001	
 2.33850000000000E+0003	 1.08626427942640E-0001	
 2.34050000000000E+0003	 1.08839600065359E-0001	
 2.34250000000000E+0003	 1.08941772188079E-0001	
 2.34450000000000E+0003	 1.08829444310799E-0001	
 2.34650000000000E+0003	 1.08877116433519E-0001	
 2.34850000000000E+0003	 1.09001288556238E-0001	
 2.35050000000000E+0003	 1.08900460678958E-0001	
 2.35250000000000E+0003	 1.08885132801678E-0001	
 2.35450000000000E+0003	 1.09009804924398E-0001	
 2.35650000000000E+0003	 1.09159477047117E-0001	
 2.35850000000000E+0003	 1.09248149169837E-0001	
 2.36050000000000E+0003	 1.09325321292557E-0001	
 2.36250000000000E+0003	 1.09359493415277E-0001	
 2.36450000000000E+0003	 1.09402665537996E-0001	
 2.36650000000000E+0003	 1.09437837660716E-0001	
 2.36850000000000E+0003	 1.09517509783436E-0001	
 2.37050000000000E+0003	 1.09606181906155E-0001	
 2.37250000000000E+0003	 1.09711354028875E-0001	
 2.37450000000000E+0003	 1.09790026151595E-0001	
 2.37650000000000E+0003	 1.09867698274315E-0001	
 2.37850000000000E+0003	 1.09917370397034E-0001	
 2.38050000000000E+0003	 1.09963042519754E-0001	
 2.38250000000000E+0003	 1.09993714642474E-0001	
 2.38450000000000E+0003	 1.10041886765194E-0001	
 2.38650000000000E+0003	 1.10101558887913E-0001	
 2.38850000000000E+0003	 1.10188731010633E-0001	
 2.39050000000000E+0003	 1.10278903133353E-0001	
 2.39250000000000E+0003	 1.10378075256073E-0001	
 2.39450000000000E+0003	 1.10481247378792E-0001	
 2.39650000000000E+0003	 1.10592919501512E-0001	
 2.39850000000000E+0003	 1.10707091624232E-0001	
 2.40050000000000E+0003	 1.10833263746952E-0001	
 2.40250000000000E+0003	 1.10954435869671E-0001	
 2.40450000000000E+0003	 1.11073607992391E-0001	
 2.40650000000000E+0003	 1.11197780115111E-0001	
 2.40850000000000E+0003	 1.11324952237830E-0001	
 2.41050000000000E+0003	 1.11446624360550E-0001	
 2.41250000000000E+0003	 1.11578296483270E-0001	
 2.41450000000000E+0003	 1.11711468605990E-0001	
 2.41650000000000E+0003	 1.11842140728709E-0001	
 2.41850000000000E+0003	 1.11974812851429E-0001	
 2.42050000000000E+0003	 1.12114484974149E-0001	
 2.42250000000000E+0003	 1.12259657096869E-0001	
 2.42450000000000E+0003	 1.12412329219588E-0001	
 2.42650000000000E+0003	 1.12559001342308E-0001	
 2.42850000000000E+0003	 1.12707673465028E-0001	
 2.43050000000000E+0003	 1.12858845587748E-0001	
 2.43250000000000E+0003	 1.13012517710467E-0001	
 2.43450000000000E+0003	 1.13162689833187E-0001	
 2.43650000000000E+0003	 1.13319861955907E-0001	
 2.43850000000000E+0003	 1.13481034078626E-0001	
 2.44050000000000E+0003	 1.13644206201346E-0001	
 2.44250000000000E+0003	 1.13806378324066E-0001	
 2.44450000000000E+0003	 1.13967550446786E-0001	
 2.44650000000000E+0003	 1.14128722569505E-0001	
 2.44850000000000E+0003	 1.14289894692225E-0001	
 2.45050000000000E+0003	 1.14454566814945E-0001	
 2.45250000000000E+0003	 1.14617238937665E-0001	
 2.45450000000000E+0003	 1.14783911060384E-0001	
 2.45650000000000E+0003	 1.14947083183104E-0001	
 2.45850000000000E+0003	 1.15106755305824E-0001	
 2.46050000000000E+0003	 1.15270427428544E-0001	
 2.46250000000000E+0003	 1.15447599551263E-0001	
 2.46450000000000E+0003	 1.15619771673983E-0001	
 2.46650000000000E+0003	 1.15800943796703E-0001	
 2.46850000000000E+0003	 1.15971115919422E-0001	
 2.47050000000000E+0003	 1.16144788042142E-0001	
 2.47250000000000E+0003	 1.16322460164862E-0001	
 2.47450000000000E+0003	 1.16516632287582E-0001	
 2.47650000000000E+0003	 1.16702304410301E-0001	
 2.47850000000000E+0003	 1.16887976533021E-0001	
 2.48050000000000E+0003	 1.17069148655741E-0001	
 2.48250000000000E+0003	 1.17264820778461E-0001	
 2.48450000000000E+0003	 1.17454992901180E-0001	
 2.48650000000000E+0003	 1.17646165023900E-0001	
 2.48850000000000E+0003	 1.17824337146620E-0001	
 2.49050000000000E+0003	 1.18021509269340E-0001	
 2.49250000000000E+0003	 1.18210181392059E-0001	
 2.49450000000000E+0003	 1.18400353514779E-0001	
 2.49650000000000E+0003	 1.18579525637499E-0001	
 2.49850000000000E+0003	 1.18773697760219E-0001	
 2.50050000000000E+0003	 1.18962869882938E-0001	
 2.50250000000000E+0003	 1.19150542005658E-0001	
 2.50450000000000E+0003	 1.19325714128378E-0001	
 2.50650000000000E+0003	 1.19517386251097E-0001	
 2.50850000000000E+0003	 1.19703058373817E-0001	
 2.51050000000000E+0003	 1.19884230496537E-0001	
 2.51250000000000E+0003	 1.20054402619257E-0001	
 2.51450000000000E+0003	 1.20241574741976E-0001	
 2.51650000000000E+0003	 1.20413746864696E-0001	
 2.51850000000000E+0003	 1.20578418987416E-0001	
 2.52050000000000E+0003	 1.20731591110136E-0001	
 2.52250000000000E+0003	 1.20895763232855E-0001	
 2.52450000000000E+0003	 1.21051435355575E-0001	
 2.52650000000000E+0003	 1.21208107478295E-0001	
 2.52850000000000E+0003	 1.21356279601015E-0001	
 2.53050000000000E+0003	 1.21517951723734E-0001	
 2.53250000000000E+0003	 1.21667123846454E-0001	
 2.53450000000000E+0003	 1.21808795969174E-0001	
 2.53650000000000E+0003	 1.21938968091893E-0001	
 2.53850000000000E+0003	 1.22088640214613E-0001	
 2.54050000000000E+0003	 1.22225812337333E-0001	
 2.54250000000000E+0003	 1.22347984460053E-0001	
 2.54450000000000E+0003	 1.22461156582772E-0001	
 2.54650000000000E+0003	 1.22602828705492E-0001	
 2.54850000000000E+0003	 1.22729000828212E-0001	
 2.55050000000000E+0003	 1.22850672950932E-0001	
 2.55250000000000E+0003	 1.22965845073651E-0001	
 2.55450000000000E+0003	 1.23098517196371E-0001	
 2.55650000000000E+0003	 1.23223189319091E-0001	
 2.55850000000000E+0003	 1.23344861441811E-0001	
 2.56050000000000E+0003	 1.23453033564530E-0001	
 2.56250000000000E+0003	 1.23573205687250E-0001	
 2.56450000000000E+0003	 1.23685877809970E-0001	
 2.56650000000000E+0003	 1.23808549932689E-0001	
 2.56850000000000E+0003	 1.23923222055409E-0001	
 2.57050000000000E+0003	 1.24061894178129E-0001	
 2.57250000000000E+0003	 1.24197566300849E-0001	
 2.57450000000000E+0003	 1.24343738423568E-0001	
 2.57650000000000E+0003	 1.24479910546288E-0001	
 2.57850000000000E+0003	 1.24628082669008E-0001	
 2.58050000000000E+0003	 1.24790254791728E-0001	
 2.58250000000000E+0003	 1.24957926914447E-0001	
 2.58450000000000E+0003	 1.25113599037167E-0001	
 2.58650000000000E+0003	 1.25290771159887E-0001	
 2.58850000000000E+0003	 1.25471443282607E-0001	
 2.59050000000000E+0003	 1.25653115405326E-0001	
 2.59250000000000E+0003	 1.25828787528046E-0001	
 2.59450000000000E+0003	 1.26018459650766E-0001	
 2.59650000000000E+0003	 1.26210131773486E-0001	
 2.59850000000000E+0003	 1.26402803896205E-0001	
 2.60050000000000E+0003	 1.26592476018925E-0001	
 2.60250000000000E+0003	 1.26796648141645E-0001	
 2.60450000000000E+0003	 1.26999820264364E-0001	
 2.60650000000000E+0003	 1.27194492387084E-0001	
 2.60850000000000E+0003	 1.27379664509804E-0001	
 2.61050000000000E+0003	 1.27580836632524E-0001	
 2.61250000000000E+0003	 1.27782008755243E-0001	
 2.61450000000000E+0003	 1.27976680877963E-0001	
 2.61650000000000E+0003	 1.28166853000683E-0001	
 2.61850000000000E+0003	 1.28365525123403E-0001	
 2.62050000000000E+0003	 1.28562697246122E-0001	
 2.62250000000000E+0003	 1.28755369368842E-0001	
 2.62450000000000E+0003	 1.28939541491562E-0001	
 2.62650000000000E+0003	 1.29138213614282E-0001	
 2.62850000000000E+0003	 1.29330885737001E-0001	
 2.63050000000000E+0003	 1.29522057859721E-0001	
 2.63250000000000E+0003	 1.29709229982441E-0001	
 2.63450000000000E+0003	 1.29901402105160E-0001	
 2.63650000000000E+0003	 1.30097074227880E-0001	
 2.63850000000000E+0003	 1.30298246350600E-0001	
 2.64050000000000E+0003	 1.30479918473320E-0001	
 2.64250000000000E+0003	 1.30670590596039E-0001	
 2.64450000000000E+0003	 1.30867262718759E-0001	
 2.64650000000000E+0003	 1.31067934841479E-0001	
 2.64850000000000E+0003	 1.31245606964199E-0001	
 2.65050000000000E+0003	 1.31430279086918E-0001	
 2.65250000000000E+0003	 1.31629451209638E-0001	
 2.65450000000000E+0003	 1.31837123332358E-0001	
 2.65650000000000E+0003	 1.32025795455078E-0001	
 2.65850000000000E+0003	 1.32218967577797E-0001	
 2.66050000000000E+0003	 1.32412639700517E-0001	
 2.66250000000000E+0003	 1.32612311823237E-0001	
 2.66450000000000E+0003	 1.32800483945956E-0001	
 2.66650000000000E+0003	 1.33001156068676E-0001	
 2.66850000000000E+0003	 1.33201828191396E-0001	
 2.67050000000000E+0003	 1.33406000314116E-0001	
 2.67250000000000E+0003	 1.33606672436835E-0001	
 2.67450000000000E+0003	 1.33820344559555E-0001	
 2.67650000000000E+0003	 1.34032016682275E-0001	
 2.67850000000000E+0003	 1.34250188804995E-0001	
 2.68050000000000E+0003	 1.34451360927714E-0001	
 2.68250000000000E+0003	 1.34650533050434E-0001	
 2.68450000000000E+0003	 1.34840205173154E-0001	
 2.68650000000000E+0003	 1.35045877295874E-0001	
 2.68850000000000E+0003	 1.35249549418593E-0001	
 2.69050000000000E+0003	 1.35464721541313E-0001	
 2.69250000000000E+0003	 1.35676393664033E-0001	
 2.69450000000000E+0003	 1.35885565786753E-0001	
 2.69650000000000E+0003	 1.36090737909472E-0001	
 2.69850000000000E+0003	 1.36313910032192E-0001	
 2.70050000000000E+0003	 1.36538582154912E-0001	
 2.70250000000000E+0003	 1.36771254277631E-0001	
 2.70450000000000E+0003	 1.36996926400351E-0001	
 2.70650000000000E+0003	 1.37234598523071E-0001	
 2.70850000000000E+0003	 1.37476770645791E-0001	
 2.71050000000000E+0003	 1.37725442768510E-0001	
 2.71250000000000E+0003	 1.37967114891230E-0001	
 2.71450000000000E+0003	 1.38222287013950E-0001	
 2.71650000000000E+0003	 1.38473459136670E-0001	
 2.71850000000000E+0003	 1.38724631259389E-0001	
 2.72050000000000E+0003	 1.38979803382109E-0001	
 2.72250000000000E+0003	 1.39250975504829E-0001	
 2.72450000000000E+0003	 1.39518147627549E-0001	
 2.72650000000000E+0003	 1.39780319750268E-0001	
 2.72850000000000E+0003	 1.39997991872988E-0001	
 2.73050000000000E+0003	 1.40206163995708E-0001	
 2.73250000000000E+0003	 1.40432836118427E-0001	
 2.73450000000000E+0003	 1.40661008241147E-0001	
 2.73650000000000E+0003	 1.40883680363867E-0001	
 2.73850000000000E+0003	 1.41093852486587E-0001	
 2.74050000000000E+0003	 1.41286024609306E-0001	
 2.74250000000000E+0003	 1.41481696732026E-0001	
 2.74450000000000E+0003	 1.41677868854746E-0001	
 2.74650000000000E+0003	 1.41894540977466E-0001	
 2.74850000000000E+0003	 1.42120213100185E-0001	
 2.75050000000000E+0003	 1.42314885222905E-0001	
 2.75250000000000E+0003	 1.42491557345625E-0001	
 2.75450000000000E+0003	 1.42681229468345E-0001	
 2.75650000000000E+0003	 1.42899401591064E-0001	
 2.75850000000000E+0003	 1.43114573713784E-0001	
 2.76050000000000E+0003	 1.43333245836504E-0001	
 2.76250000000000E+0003	 1.43559417959223E-0001	
 2.76450000000000E+0003	 1.43791590081943E-0001	
 2.76650000000000E+0003	 1.44022762204663E-0001	
 2.76850000000000E+0003	 1.44257934327383E-0001	
 2.77050000000000E+0003	 1.44499606450102E-0001	
 2.77250000000000E+0003	 1.44768278572822E-0001	
 2.77450000000000E+0003	 1.45045450695542E-0001	
 2.77650000000000E+0003	 1.45295622818262E-0001	
 2.77850000000000E+0003	 1.45516794940981E-0001	
 2.78050000000000E+0003	 1.45770967063701E-0001	
 2.78250000000000E+0003	 1.46037139186421E-0001	
 2.78450000000000E+0003	 1.46310811309141E-0001	
 2.78650000000000E+0003	 1.46607983431860E-0001	
 2.78850000000000E+0003	 1.46943655554580E-0001	
 2.79050000000000E+0003	 1.47251827677300E-0001	
 2.79250000000000E+0003	 1.47531999800020E-0001	
 2.79450000000000E+0003	 1.47821671922739E-0001	
 2.79650000000000E+0003	 1.48148344045459E-0001	
 2.79850000000000E+0003	 1.48480016168179E-0001	
 2.80050000000000E+0003	 1.48795188290898E-0001	
 2.80250000000000E+0003	 1.49104360413618E-0001	
 2.80450000000000E+0003	 1.49442532536338E-0001	
 2.80650000000000E+0003	 1.49792704659058E-0001	
 2.80850000000000E+0003	 1.50164876781777E-0001	
 2.81050000000000E+0003	 1.50532548904497E-0001	
 2.81250000000000E+0003	 1.50873221027217E-0001	
 2.81450000000000E+0003	 1.51214893149937E-0001	
 2.81650000000000E+0003	 1.51591565272656E-0001	
 2.81850000000000E+0003	 1.51979237395376E-0001	
 2.82050000000000E+0003	 1.52384409518096E-0001	
 2.82250000000000E+0003	 1.52792081640816E-0001	
 2.82450000000000E+0003	 1.53205753763535E-0001	
 2.82650000000000E+0003	 1.53632425886255E-0001	
 2.82850000000000E+0003	 1.54097598008975E-0001	
 2.83050000000000E+0003	 1.54590270131694E-0001	
 2.83250000000000E+0003	 1.55116942254414E-0001	
 2.83450000000000E+0003	 1.55687114377134E-0001	
 2.83650000000000E+0003	 1.56347286499854E-0001	
 2.83850000000000E+0003	 1.57096958622573E-0001	
 2.84050000000000E+0003	 1.57886130745293E-0001	
 2.84250000000000E+0003	 1.58783802868013E-0001	
 2.84450000000000E+0003	 1.59949474990733E-0001	
 2.84650000000000E+0003	 1.61370647113452E-0001	
 2.84850000000000E+0003	 1.62918819236172E-0001	
 2.85050000000000E+0003	 1.64354491358892E-0001	
 2.85250000000000E+0003	 1.65491663481612E-0001	
 2.85450000000000E+0003	 1.66180335604331E-0001	
 2.85650000000000E+0003	 1.66459507727051E-0001	
 2.85850000000000E+0003	 1.66514679849771E-0001	
 2.86050000000000E+0003	 1.66537351972490E-0001	
 2.86250000000000E+0003	 1.66604524095210E-0001	
 2.86450000000000E+0003	 1.66838696217930E-0001	
 2.86650000000000E+0003	 1.67260368340650E-0001	
 2.86850000000000E+0003	 1.67813040463369E-0001	
 2.87050000000000E+0003	 1.68409212586089E-0001	
 2.87250000000000E+0003	 1.69000384708809E-0001	
 2.87450000000000E+0003	 1.69389056831529E-0001	
 2.87650000000000E+0003	 1.69527228954248E-0001	
 2.87850000000000E+0003	 1.69600401076968E-0001	
 2.88050000000000E+0003	 1.69708573199688E-0001	
 2.88250000000000E+0003	 1.69849245322408E-0001	
 2.88450000000000E+0003	 1.70057417445127E-0001	
 2.88650000000000E+0003	 1.70334589567847E-0001	
 2.88850000000000E+0003	 1.70680761690567E-0001	
 2.89050000000000E+0003	 1.71080433813287E-0001	
 2.89250000000000E+0003	 1.71549105936006E-0001	
 2.89450000000000E+0003	 1.72088778058726E-0001	
 2.89650000000000E+0003	 1.72651950181446E-0001	
 2.89850000000000E+0003	 1.73168122304165E-0001	
 2.90050000000000E+0003	 1.73708794426885E-0001	
 2.90250000000000E+0003	 1.74297966549605E-0001	
 2.90450000000000E+0003	 1.74929138672325E-0001	
 2.90650000000000E+0003	 1.75603810795044E-0001	
 2.90850000000000E+0003	 1.76400482917764E-0001	
 2.91050000000000E+0003	 1.77356155040484E-0001	
 2.91250000000000E+0003	 1.78501827163204E-0001	
 2.91450000000000E+0003	 1.79745499285923E-0001	
 2.91650000000000E+0003	 1.80983671408643E-0001	
 2.91850000000000E+0003	 1.82182343531363E-0001	
 2.92050000000000E+0003	 1.83258515654083E-0001	
 2.92250000000000E+0003	 1.84141187776802E-0001	
 2.92450000000000E+0003	 1.84766859899522E-0001	
 2.92650000000000E+0003	 1.85101532022242E-0001	
 2.92850000000000E+0003	 1.85206704144961E-0001	
 2.93050000000000E+0003	 1.85063876267681E-0001	
 2.93250000000000E+0003	 1.84645048390401E-0001	
 2.93450000000000E+0003	 1.84088720513121E-0001	
 2.93650000000000E+0003	 1.83455892635840E-0001	
 2.93850000000000E+0003	 1.82744564758560E-0001	
 2.94050000000000E+0003	 1.82021736881280E-0001	
 2.94250000000000E+0003	 1.81372909004000E-0001	
 2.94450000000000E+0003	 1.80786081126719E-0001	
 2.94650000000000E+0003	 1.80227753249439E-0001	
 2.94850000000000E+0003	 1.79751925372159E-0001	
 2.95050000000000E+0003	 1.79470597494879E-0001	
 2.95250000000000E+0003	 1.79424269617598E-0001	
 2.95450000000000E+0003	 1.79423441740318E-0001	
 2.95650000000000E+0003	 1.79407113863038E-0001	
 2.95850000000000E+0003	 1.79375285985757E-0001	
 2.96050000000000E+0003	 1.79254958108477E-0001	
 2.96250000000000E+0003	 1.78997130231197E-0001	
 2.96450000000000E+0003	 1.78567802353917E-0001	
 2.96650000000000E+0003	 1.77963974476636E-0001	
 2.96850000000000E+0003	 1.77218646599356E-0001	
 2.97050000000000E+0003	 1.76416318722076E-0001	
 2.97250000000000E+0003	 1.75682490844796E-0001	
 2.97450000000000E+0003	 1.75000662967515E-0001	
 2.97650000000000E+0003	 1.74307335090235E-0001	
 2.97850000000000E+0003	 1.73677007212955E-0001	
 2.98050000000000E+0003	 1.73126679335675E-0001	
 2.98250000000000E+0003	 1.72561851458394E-0001	
 2.98450000000000E+0003	 1.72001023581114E-0001	
 2.98650000000000E+0003	 1.71508695703834E-0001	
 2.98850000000000E+0003	 1.71097367826554E-0001	
 2.99050000000000E+0003	 1.70774039949273E-0001	
 2.99250000000000E+0003	 1.70522712071993E-0001	
 2.99450000000000E+0003	 1.70252884194713E-0001	
 2.99650000000000E+0003	 1.70058056317432E-0001	
 2.99850000000000E+0003	 1.69963228440152E-0001	
 3.00050000000000E+0003	 1.69869900562872E-0001	
 3.00250000000000E+0003	 1.69849572685592E-0001	
 3.00450000000000E+0003	 1.69929744808311E-0001	
 3.00650000000000E+0003	 1.70046916931031E-0001	
 3.00850000000000E+0003	 1.70232089053751E-0001	
 3.01050000000000E+0003	 1.70542761176471E-0001	
 3.01250000000000E+0003	 1.70908433299190E-0001	
 3.01450000000000E+0003	 1.71200105421910E-0001	
 3.01650000000000E+0003	 1.71429777544630E-0001	
 3.01850000000000E+0003	 1.71694949667350E-0001	
 3.02050000000000E+0003	 1.72025121790069E-0001	
 3.02250000000000E+0003	 1.72397293912789E-0001	
 3.02450000000000E+0003	 1.72829966035509E-0001	
 3.02650000000000E+0003	 1.73233138158228E-0001	
 3.02850000000000E+0003	 1.73644310280948E-0001	
 3.03050000000000E+0003	 1.74102982403668E-0001	
 3.03250000000000E+0003	 1.74595654526388E-0001	
 3.03450000000000E+0003	 1.75106326649107E-0001	
 3.03650000000000E+0003	 1.75547998771827E-0001	
 3.03850000000000E+0003	 1.75983670894547E-0001	
 3.04050000000000E+0003	 1.76531843017267E-0001	
 3.04250000000000E+0003	 1.77092015139986E-0001	
 3.04450000000000E+0003	 1.77566187262706E-0001	
 3.04650000000000E+0003	 1.77975359385426E-0001	
 3.04850000000000E+0003	 1.78403531508146E-0001	
 3.05050000000000E+0003	 1.78917203630865E-0001	
 3.05250000000000E+0003	 1.79416875753585E-0001	
 3.05450000000000E+0003	 1.79875547876305E-0001	
 3.05650000000000E+0003	 1.80338219999024E-0001	
 3.05850000000000E+0003	 1.80760892121744E-0001	
 3.06050000000000E+0003	 1.81172564244464E-0001	
 3.06250000000000E+0003	 1.81607736367184E-0001	
 3.06450000000000E+0003	 1.82040908489903E-0001	
 3.06650000000000E+0003	 1.82479080612623E-0001	
 3.06850000000000E+0003	 1.82870752735343E-0001	
 3.07050000000000E+0003	 1.83160424858063E-0001	
 3.07250000000000E+0003	 1.83439096980782E-0001	
 3.07450000000000E+0003	 1.83752769103502E-0001	
 3.07650000000000E+0003	 1.84150441226222E-0001	
 3.07850000000000E+0003	 1.84581613348942E-0001	
 3.08050000000000E+0003	 1.84908785471661E-0001	
 3.08250000000000E+0003	 1.85163457594381E-0001	
 3.08450000000000E+0003	 1.85440129717101E-0001	
 3.08650000000000E+0003	 1.85682301839821E-0001	
 3.08850000000000E+0003	 1.85929473962540E-0001	
 3.09050000000000E+0003	 1.86211646085260E-0001	
 3.09250000000000E+0003	 1.86435818207980E-0001	
 3.09450000000000E+0003	 1.86637490330699E-0001	
 3.09650000000000E+0003	 1.86889162453419E-0001	
 3.09850000000000E+0003	 1.87207834576139E-0001	
 3.10050000000000E+0003	 1.87549006698859E-0001	
 3.10250000000000E+0003	 1.87834178821578E-0001	
 3.10450000000000E+0003	 1.88115850944298E-0001	
 3.10650000000000E+0003	 1.88468523067018E-0001	
 3.10850000000000E+0003	 1.88888695189738E-0001	
 3.11050000000000E+0003	 1.89239867312457E-0001	
 3.11250000000000E+0003	 1.89553539435177E-0001	
 3.11450000000000E+0003	 1.90011211557897E-0001	
 3.11650000000000E+0003	 1.90542883680617E-0001	
 3.11850000000000E+0003	 1.91007055803336E-0001	
 3.12050000000000E+0003	 1.91391727926056E-0001	
 3.12250000000000E+0003	 1.91674400048776E-0001	
 3.12450000000000E+0003	 1.91990572171495E-0001	
 3.12650000000000E+0003	 1.92436244294215E-0001	
 3.12850000000000E+0003	 1.92942916416935E-0001	
 3.13050000000000E+0003	 1.93439088539655E-0001	
 3.13250000000000E+0003	 1.93900260662374E-0001	
 3.13450000000000E+0003	 1.94394432785094E-0001	
 3.13650000000000E+0003	 1.94968104907814E-0001	
 3.13850000000000E+0003	 1.95600777030534E-0001	
 3.14050000000000E+0003	 1.96163949153253E-0001	
 3.14250000000000E+0003	 1.96632621275973E-0001	
 3.14450000000000E+0003	 1.97133793398693E-0001	
 3.14650000000000E+0003	 1.97680465521413E-0001	
 3.14850000000000E+0003	 1.98265637644132E-0001	
 3.15050000000000E+0003	 1.98963809766852E-0001	
 3.15250000000000E+0003	 1.99694981889572E-0001	
 3.15450000000000E+0003	 2.00240654012291E-0001	
 3.15650000000000E+0003	 2.00714826135011E-0001	
 3.15850000000000E+0003	 2.01283498257731E-0001	
 3.16050000000000E+0003	 2.01903170380451E-0001	
 3.16250000000000E+0003	 2.02523842503170E-0001	
 3.16450000000000E+0003	 2.03156014625890E-0001	
 3.16650000000000E+0003	 2.03807686748610E-0001	
 3.16850000000000E+0003	 2.04450858871330E-0001	
 3.17050000000000E+0003	 2.05085030994049E-0001	
 3.17250000000000E+0003	 2.05734703116769E-0001	
 3.17450000000000E+0003	 2.06390875239489E-0001	
 3.17650000000000E+0003	 2.07033047362209E-0001	
 3.17850000000000E+0003	 2.07667719484928E-0001	
 3.18050000000000E+0003	 2.08319391607648E-0001	
 3.18250000000000E+0003	 2.08982563730368E-0001	
 3.18450000000000E+0003	 2.09630735853088E-0001	
 3.18650000000000E+0003	 2.10262407975807E-0001	
 3.18850000000000E+0003	 2.10908580098527E-0001	
 3.19050000000000E+0003	 2.11556252221247E-0001	
 3.19250000000000E+0003	 2.12185424343966E-0001	
 3.19450000000000E+0003	 2.12793096466686E-0001	
 3.19650000000000E+0003	 2.13403768589406E-0001	
 3.19850000000000E+0003	 2.14031440712126E-0001	
 3.20050000000000E+0003	 2.14654112834845E-0001	
 3.20250000000000E+0003	 2.15263284957565E-0001	
 3.20450000000000E+0003	 2.15865957080285E-0001	
 3.20650000000000E+0003	 2.16452129203005E-0001	
 3.20850000000000E+0003	 2.17012801325724E-0001	
 3.21050000000000E+0003	 2.17559973448444E-0001	
 3.21250000000000E+0003	 2.18131645571164E-0001	
 3.21450000000000E+0003	 2.18710817693884E-0001	
 3.21650000000000E+0003	 2.19275989816603E-0001	
 3.21850000000000E+0003	 2.19850161939323E-0001	
 3.22050000000000E+0003	 2.20431334062043E-0001	
 3.22250000000000E+0003	 2.21003006184762E-0001	
 3.22450000000000E+0003	 2.21574178307482E-0001	
 3.22650000000000E+0003	 2.22141850430202E-0001	
 3.22850000000000E+0003	 2.22727522552922E-0001	
 3.23050000000000E+0003	 2.23379194675641E-0001	
 3.23250000000000E+0003	 2.24121366798361E-0001	
 3.23450000000000E+0003	 2.24781538921081E-0001	
 3.23650000000000E+0003	 2.25288211043801E-0001	
 3.23850000000000E+0003	 2.25832883166520E-0001	
 3.24050000000000E+0003	 2.26456055289240E-0001	
 3.24250000000000E+0003	 2.27094727411960E-0001	
 3.24450000000000E+0003	 2.27781399534680E-0001	
 3.24650000000000E+0003	 2.28536571657399E-0001	
 3.24850000000000E+0003	 2.29225243780119E-0001	
 3.25050000000000E+0003	 2.29815415902839E-0001	
 3.25250000000000E+0003	 2.30436588025558E-0001	
 3.25450000000000E+0003	 2.31137760148278E-0001	
 3.25650000000000E+0003	 2.31845932270998E-0001	
 3.25850000000000E+0003	 2.32479104393718E-0001	
 3.26050000000000E+0003	 2.33097776516437E-0001	
 3.26250000000000E+0003	 2.33745948639157E-0001	
 3.26450000000000E+0003	 2.34407120761877E-0001	
 3.26650000000000E+0003	 2.35056292884597E-0001	
 3.26850000000000E+0003	 2.35758465007316E-0001	
 3.27050000000000E+0003	 2.36504637130036E-0001	
 3.27250000000000E+0003	 2.37101309252756E-0001	
 3.27450000000000E+0003	 2.37567981375476E-0001	
 3.27650000000000E+0003	 2.38056653498195E-0001	
 3.27850000000000E+0003	 2.38550825620915E-0001	
 3.28050000000000E+0003	 2.39068497743635E-0001	
 3.28250000000000E+0003	 2.39584669866355E-0001	
 3.28450000000000E+0003	 2.40087341989074E-0001	
 3.28650000000000E+0003	 2.40569514111794E-0001	
 3.28850000000000E+0003	 2.41060686234514E-0001	
 3.29050000000000E+0003	 2.41615358357233E-0001	
 3.29250000000000E+0003	 2.42184030479953E-0001	
 3.29450000000000E+0003	 2.42659702602673E-0001	
 3.29650000000000E+0003	 2.43083874725393E-0001	
 3.29850000000000E+0003	 2.43451546848112E-0001	
 3.30050000000000E+0003	 2.43846718970832E-0001	
 3.30250000000000E+0003	 2.44367891093552E-0001	
 3.30450000000000E+0003	 2.45028563216272E-0001	
 3.30650000000000E+0003	 2.45613735338991E-0001	
 3.30850000000000E+0003	 2.45998407461711E-0001	
 3.31050000000000E+0003	 2.46299079584431E-0001	
 3.31250000000000E+0003	 2.46665251707151E-0001	
 3.31450000000000E+0003	 2.47119423829870E-0001	
 3.31650000000000E+0003	 2.47632595952590E-0001	
 3.31850000000000E+0003	 2.48160268075310E-0001	
 3.32050000000000E+0003	 2.48699940198029E-0001	
 3.32250000000000E+0003	 2.49263612320749E-0001	
 3.32450000000000E+0003	 2.49908784443469E-0001	
 3.32650000000000E+0003	 2.50546456566189E-0001	
 3.32850000000000E+0003	 2.51105128688908E-0001	
 3.33050000000000E+0003	 2.51678300811628E-0001	
 3.33250000000000E+0003	 2.52312972934348E-0001	
 3.33450000000000E+0003	 2.52995645057068E-0001	
 3.33650000000000E+0003	 2.53773817179787E-0001	
 3.33850000000000E+0003	 2.54568489302507E-0001	
 3.34050000000000E+0003	 2.55253661425227E-0001	
 3.34250000000000E+0003	 2.55923833547947E-0001	
 3.34450000000000E+0003	 2.56637505670666E-0001	
 3.34650000000000E+0003	 2.57346177793386E-0001	
 3.34850000000000E+0003	 2.58176349916106E-0001	
 3.35050000000000E+0003	 2.59097522038825E-0001	
 3.35250000000000E+0003	 2.59878194161545E-0001	
 3.35450000000000E+0003	 2.60560866284265E-0001	
 3.35650000000000E+0003	 2.61353038406985E-0001	
 3.35850000000000E+0003	 2.62256710529704E-0001	
 3.36050000000000E+0003	 2.63186882652424E-0001	
 3.36250000000000E+0003	 2.64071054775144E-0001	
 3.36450000000000E+0003	 2.65011726897864E-0001	
 3.36650000000000E+0003	 2.66085899020583E-0001	
 3.36850000000000E+0003	 2.67157071143303E-0001	
 3.37050000000000E+0003	 2.68006743266023E-0001	
 3.37250000000000E+0003	 2.68671915388743E-0001	
 3.37450000000000E+0003	 2.69399087511462E-0001	
 3.37650000000000E+0003	 2.70221259634182E-0001	
 3.37850000000000E+0003	 2.71006431756902E-0001	
 3.38050000000000E+0003	 2.71728603879622E-0001	
 3.38250000000000E+0003	 2.72396776002341E-0001	
 3.38450000000000E+0003	 2.73034948125061E-0001	
 3.38650000000000E+0003	 2.73660620247781E-0001	
 3.38850000000000E+0003	 2.74338292370500E-0001	
 3.39050000000000E+0003	 2.75132964493220E-0001	
 3.39250000000000E+0003	 2.75794136615940E-0001	
 3.39450000000000E+0003	 2.76179308738660E-0001	
 3.39650000000000E+0003	 2.76606480861379E-0001	
 3.39850000000000E+0003	 2.77277652984099E-0001	
 3.40050000000000E+0003	 2.78005325106819E-0001	
 3.40250000000000E+0003	 2.78391497229539E-0001	
 3.40450000000000E+0003	 2.78554669352258E-0001	
 3.40650000000000E+0003	 2.78882341474978E-0001	
 3.40850000000000E+0003	 2.79366513597698E-0001	
 3.41050000000000E+0003	 2.79808685720418E-0001	
 3.41250000000000E+0003	 2.80197857843137E-0001	
 3.41450000000000E+0003	 2.80496029965857E-0001	
 3.41650000000000E+0003	 2.80715202088577E-0001	
 3.41850000000000E+0003	 2.80965374211296E-0001	
 3.42050000000000E+0003	 2.81218046334016E-0001	
 3.42250000000000E+0003	 2.81402218456736E-0001	
 3.42450000000000E+0003	 2.81581390579456E-0001	
 3.42650000000000E+0003	 2.81796562702175E-0001	
 3.42850000000000E+0003	 2.82019734824895E-0001	
 3.43050000000000E+0003	 2.82145906947615E-0001	
 3.43250000000000E+0003	 2.82182079070335E-0001	
 3.43450000000000E+0003	 2.82260751193054E-0001	
 3.43650000000000E+0003	 2.82254923315774E-0001	
 3.43850000000000E+0003	 2.81985095438494E-0001	
 3.44050000000000E+0003	 2.81610267561214E-0001	
 3.44250000000000E+0003	 2.81292439683933E-0001	
 3.44450000000000E+0003	 2.81029611806653E-0001	
 3.44650000000000E+0003	 2.80762283929373E-0001	
 3.44850000000000E+0003	 2.80421456052092E-0001	
 3.45050000000000E+0003	 2.80038128174812E-0001	
 3.45250000000000E+0003	 2.79655800297532E-0001	
 3.45450000000000E+0003	 2.79236972420252E-0001	
 3.45650000000000E+0003	 2.78795644542971E-0001	
 3.45850000000000E+0003	 2.78381816665691E-0001	
 3.46050000000000E+0003	 2.77936988788411E-0001	
 3.46250000000000E+0003	 2.77369660911131E-0001	
 3.46450000000000E+0003	 2.76861833033850E-0001	
 3.46650000000000E+0003	 2.76515505156570E-0001	
 3.46850000000000E+0003	 2.76094177279290E-0001	
 3.47050000000000E+0003	 2.75373349402010E-0001	
 3.47250000000000E+0003	 2.74522021524729E-0001	
 3.47450000000000E+0003	 2.73782693647449E-0001	
 3.47650000000000E+0003	 2.73160365770169E-0001	
 3.47850000000000E+0003	 2.72637037892888E-0001	
 3.48050000000000E+0003	 2.72028210015608E-0001	
 3.48250000000000E+0003	 2.71220382138328E-0001	
 3.48450000000000E+0003	 2.70494054261048E-0001	
 3.48650000000000E+0003	 2.69884226383767E-0001	
 3.48850000000000E+0003	 2.69188898506487E-0001	
 3.49050000000000E+0003	 2.68437070629207E-0001	
 3.49250000000000E+0003	 2.67735742751927E-0001	
 3.49450000000000E+0003	 2.67063414874646E-0001	
 3.49650000000000E+0003	 2.66375586997366E-0001	
 3.49850000000000E+0003	 2.65628759120086E-0001	
 3.50050000000000E+0003	 2.64890431242806E-0001	
 3.50250000000000E+0003	 2.64163103365525E-0001	
 3.50450000000000E+0003	 2.63275775488245E-0001	
 3.50650000000000E+0003	 2.62356947610965E-0001	
 3.50850000000000E+0003	 2.61526619733685E-0001	
 3.51050000000000E+0003	 2.60710291856404E-0001	
 3.51250000000000E+0003	 2.59977463979124E-0001	
 3.51450000000000E+0003	 2.59217136101844E-0001	
 3.51650000000000E+0003	 2.58315308224563E-0001	
 3.51850000000000E+0003	 2.57393980347283E-0001	
 3.52050000000000E+0003	 2.56549652470003E-0001	
 3.52250000000000E+0003	 2.55754324592723E-0001	
 3.52450000000000E+0003	 2.54840496715442E-0001	
 3.52650000000000E+0003	 2.53822668838162E-0001	
 3.52850000000000E+0003	 2.52876340960882E-0001	
 3.53050000000000E+0003	 2.51989513083602E-0001	
 3.53250000000000E+0003	 2.51139685206321E-0001	
 3.53450000000000E+0003	 2.50368857329041E-0001	
 3.53650000000000E+0003	 2.49556029451761E-0001	
 3.53850000000000E+0003	 2.48558201574481E-0001	
 3.54050000000000E+0003	 2.47584373697200E-0001	
 3.54250000000000E+0003	 2.46756045819920E-0001	
 3.54450000000000E+0003	 2.45890217942640E-0001	
 3.54650000000000E+0003	 2.44784890065359E-0001	
 3.54850000000000E+0003	 2.43620062188079E-0001	
 3.55050000000000E+0003	 2.42650234310799E-0001	
 3.55250000000000E+0003	 2.41678906433519E-0001	
 3.55450000000000E+0003	 2.40619078556238E-0001	
 3.55650000000000E+0003	 2.39612250678958E-0001	
 3.55850000000000E+0003	 2.38627922801678E-0001	
 3.56050000000000E+0003	 2.37598094924398E-0001	
 3.56250000000000E+0003	 2.36463267047117E-0001	
 3.56450000000000E+0003	 2.35250939169837E-0001	
 3.56650000000000E+0003	 2.33984611292557E-0001	
 3.56850000000000E+0003	 2.32820283415277E-0001	
 3.57050000000000E+0003	 2.31865455537996E-0001	
 3.57250000000000E+0003	 2.30817127660716E-0001	
 3.57450000000000E+0003	 2.29630799783436E-0001	
 3.57650000000000E+0003	 2.28425471906155E-0001	
 3.57850000000000E+0003	 2.27215644028875E-0001	
 3.58050000000000E+0003	 2.25988816151595E-0001	
 3.58250000000000E+0003	 2.24764488274315E-0001	
 3.58450000000000E+0003	 2.23596160397034E-0001	
 3.58650000000000E+0003	 2.22261832519754E-0001	
 3.58850000000000E+0003	 2.20570004642474E-0001	
 3.59050000000000E+0003	 2.19092176765194E-0001	
 3.59250000000000E+0003	 2.17890848887913E-0001	
 3.59450000000000E+0003	 2.16557521010633E-0001	
 3.59650000000000E+0003	 2.15131193133353E-0001	
 3.59850000000000E+0003	 2.13810865256073E-0001	
 3.60050000000000E+0003	 2.12466537378792E-0001	
 3.60250000000000E+0003	 2.11043709501512E-0001	
 3.60450000000000E+0003	 2.09621881624232E-0001	
 3.60650000000000E+0003	 2.08148053746952E-0001	
 3.60850000000000E+0003	 2.06577225869671E-0001	
 3.61050000000000E+0003	 2.05125397992391E-0001	
 3.61250000000000E+0003	 2.03767070115111E-0001	
 3.61450000000000E+0003	 2.02351242237830E-0001	
 3.61650000000000E+0003	 2.01125914360550E-0001	
 3.61850000000000E+0003	 2.00010586483270E-0001	
 3.62050000000000E+0003	 1.98620758605990E-0001	
 3.62250000000000E+0003	 1.97086430728709E-0001	
 3.62450000000000E+0003	 1.95649102851429E-0001	
 3.62650000000000E+0003	 1.94431774974149E-0001	
 3.62850000000000E+0003	 1.93166447096869E-0001	
 3.63050000000000E+0003	 1.91695619219588E-0001	
 3.63250000000000E+0003	 1.90458291342308E-0001	
 3.63450000000000E+0003	 1.89303463465028E-0001	
 3.63650000000000E+0003	 1.88129635587748E-0001	
 3.63850000000000E+0003	 1.86954807710467E-0001	
 3.64050000000000E+0003	 1.85756979833187E-0001	
 3.64250000000000E+0003	 1.84483651955907E-0001	
 3.64450000000000E+0003	 1.83194324078626E-0001	
 3.64650000000000E+0003	 1.81931496201346E-0001	
 3.64850000000000E+0003	 1.80758168324066E-0001	
 3.65050000000000E+0003	 1.79726340446786E-0001	
 3.65250000000000E+0003	 1.78724012569505E-0001	
 3.65450000000000E+0003	 1.77795684692225E-0001	
 3.65650000000000E+0003	 1.76864856814945E-0001	
 3.65850000000000E+0003	 1.75974028937665E-0001	
 3.66050000000000E+0003	 1.75077701060384E-0001	
 3.66250000000000E+0003	 1.74011373183104E-0001	
 3.66450000000000E+0003	 1.72922545305824E-0001	
 3.66650000000000E+0003	 1.71986217428544E-0001	
 3.66850000000000E+0003	 1.71134389551263E-0001	
 3.67050000000000E+0003	 1.70147061673983E-0001	
 3.67250000000000E+0003	 1.69336233796703E-0001	
 3.67450000000000E+0003	 1.68683405919422E-0001	
 3.67650000000000E+0003	 1.67888578042142E-0001	
 3.67850000000000E+0003	 1.67274250164862E-0001	
 3.68050000000000E+0003	 1.66659922287582E-0001	
 3.68250000000000E+0003	 1.65991594410301E-0001	
 3.68450000000000E+0003	 1.65355266533021E-0001	
 3.68650000000000E+0003	 1.64807438655741E-0001	
 3.68850000000000E+0003	 1.64363610778461E-0001	
 3.69050000000000E+0003	 1.63745282901180E-0001	
 3.69250000000000E+0003	 1.62947455023900E-0001	
 3.69450000000000E+0003	 1.62359127146620E-0001	
 3.69650000000000E+0003	 1.61870799269340E-0001	
 3.69850000000000E+0003	 1.61394971392059E-0001	
 3.70050000000000E+0003	 1.60963643514779E-0001	
 3.70250000000000E+0003	 1.60470815637499E-0001	
 3.70450000000000E+0003	 1.59947487760219E-0001	
 3.70650000000000E+0003	 1.59464659882938E-0001	
 3.70850000000000E+0003	 1.58989832005658E-0001	
 3.71050000000000E+0003	 1.58583504128378E-0001	
 3.71250000000000E+0003	 1.58294176251097E-0001	
 3.71450000000000E+0003	 1.58127348373817E-0001	
 3.71650000000000E+0003	 1.57913020496537E-0001	
 3.71850000000000E+0003	 1.57587192619257E-0001	
 3.72050000000000E+0003	 1.57236864741976E-0001	
 3.72250000000000E+0003	 1.56885536864696E-0001	
 3.72450000000000E+0003	 1.56581708987416E-0001	
 3.72650000000000E+0003	 1.56291381110136E-0001	
 3.72850000000000E+0003	 1.56037053232855E-0001	
 3.73050000000000E+0003	 1.55791725355575E-0001	
 3.73250000000000E+0003	 1.55531897478295E-0001	
 3.73450000000000E+0003	 1.55287069601015E-0001	
 3.73650000000000E+0003	 1.55021741723734E-0001	
 3.73850000000000E+0003	 1.54836913846454E-0001	
 3.74050000000000E+0003	 1.54660585969174E-0001	
 3.74250000000000E+0003	 1.54497258091893E-0001	
 3.74450000000000E+0003	 1.54249430214613E-0001	
 3.74650000000000E+0003	 1.54047102337333E-0001	
 3.74850000000000E+0003	 1.53846274460053E-0001	
 3.75050000000000E+0003	 1.53673946582772E-0001	
 3.75250000000000E+0003	 1.53630618705492E-0001	
 3.75450000000000E+0003	 1.53643790828212E-0001	
 3.75650000000000E+0003	 1.53586462950932E-0001	
 3.75850000000000E+0003	 1.53472135073651E-0001	
 3.76050000000000E+0003	 1.53367307196371E-0001	
 3.76250000000000E+0003	 1.53280979319091E-0001	
 3.76450000000000E+0003	 1.53174151441811E-0001	
 3.76650000000000E+0003	 1.53039323564530E-0001	
 3.76850000000000E+0003	 1.52943995687250E-0001	
 3.77050000000000E+0003	 1.52875167809970E-0001	
 3.77250000000000E+0003	 1.52825339932689E-0001	
 3.77450000000000E+0003	 1.52713012055409E-0001	
 3.77650000000000E+0003	 1.52578184178129E-0001	
 3.77850000000000E+0003	 1.52495856300849E-0001	
 3.78050000000000E+0003	 1.52405028423568E-0001	
 3.78250000000000E+0003	 1.52288700546288E-0001	
 3.78450000000000E+0003	 1.52183872669008E-0001	
 3.78650000000000E+0003	 1.52089544791728E-0001	
 3.78850000000000E+0003	 1.52034716914447E-0001	
 3.79050000000000E+0003	 1.51958389037167E-0001	
 3.79250000000000E+0003	 1.51799061159887E-0001	
 3.79450000000000E+0003	 1.51610733282607E-0001	
 3.79650000000000E+0003	 1.51425405405326E-0001	
 3.79850000000000E+0003	 1.51329577528046E-0001	
 3.80050000000000E+0003	 1.51239249650766E-0001	
 3.80250000000000E+0003	 1.51073421773486E-0001	
 3.80450000000000E+0003	 1.51047093896205E-0001	
 3.80650000000000E+0003	 1.51077766018925E-0001	
 3.80850000000000E+0003	 1.51096438141645E-0001	
 3.81050000000000E+0003	 1.51044110264364E-0001	
 3.81250000000000E+0003	 1.50912782387084E-0001	
 3.81450000000000E+0003	 1.50763454509804E-0001	
 3.81650000000000E+0003	 1.50597626632524E-0001	
 3.81850000000000E+0003	 1.50621798755243E-0001	
 3.82050000000000E+0003	 1.50679470877963E-0001	
 3.82250000000000E+0003	 1.50586143000683E-0001	
 3.82450000000000E+0003	 1.50515315123403E-0001	
 3.82650000000000E+0003	 1.50432487246122E-0001	
 3.82850000000000E+0003	 1.50359159368842E-0001	
 3.83050000000000E+0003	 1.50342831491562E-0001	
 3.83250000000000E+0003	 1.50359503614282E-0001	
 3.83450000000000E+0003	 1.50422675737001E-0001	
 3.83650000000000E+0003	 1.50403347859721E-0001	
 3.83850000000000E+0003	 1.50207519982441E-0001	
 3.84050000000000E+0003	 1.50073692105160E-0001	
 3.84250000000000E+0003	 1.50051364227880E-0001	
 3.84450000000000E+0003	 1.50072036350600E-0001	
 3.84650000000000E+0003	 1.50024208473320E-0001	
 3.84850000000000E+0003	 1.49891880596039E-0001	
 3.85050000000000E+0003	 1.49842052718759E-0001	
 3.85250000000000E+0003	 1.50129224841479E-0001	
 3.85450000000000E+0003	 1.50427896964199E-0001	
 3.85650000000000E+0003	 1.50278069086918E-0001	
 3.85850000000000E+0003	 1.49931241209638E-0001	
 3.86050000000000E+0003	 1.49769413332358E-0001	
 3.86250000000000E+0003	 1.49831585455078E-0001	
 3.86450000000000E+0003	 1.49846757577797E-0001	
 3.86650000000000E+0003	 1.49809929700517E-0001	
 3.86850000000000E+0003	 1.49810601823237E-0001	
 3.87050000000000E+0003	 1.49795273945956E-0001	
 3.87250000000000E+0003	 1.49866446068676E-0001	
 3.87450000000000E+0003	 1.49862118191396E-0001	
 3.87650000000000E+0003	 1.49771290314116E-0001	
 3.87850000000000E+0003	 1.49794962436835E-0001	
 3.88050000000000E+0003	 1.49810634559555E-0001	
 3.88250000000000E+0003	 1.49793806682275E-0001	
 3.88450000000000E+0003	 1.49834478804995E-0001	
 3.88650000000000E+0003	 1.49821650927714E-0001	
 3.88850000000000E+0003	 1.49874323050434E-0001	
 3.89050000000000E+0003	 1.50032995173154E-0001	
 3.89250000000000E+0003	 1.50068667295874E-0001	
 3.89450000000000E+0003	 1.49925839418593E-0001	
 3.89650000000000E+0003	 1.49843511541313E-0001	
 3.89850000000000E+0003	 1.49824683664033E-0001	
 3.90050000000000E+0003	 1.49721355786753E-0001	
 3.90250000000000E+0003	 1.49787027909472E-0001	
 3.90450000000000E+0003	 1.50076200032192E-0001	
 3.90650000000000E+0003	 1.50186372154912E-0001	
 3.90850000000000E+0003	 1.50132044277631E-0001	
 3.91050000000000E+0003	 1.50114216400351E-0001	
 3.91250000000000E+0003	 1.50101388523071E-0001	
 3.91450000000000E+0003	 1.50058560645791E-0001	
 3.91650000000000E+0003	 1.50022232768510E-0001	
 3.91850000000000E+0003	 1.50045904891230E-0001	
 3.92050000000000E+0003	 1.50109077013950E-0001	
 3.92250000000000E+0003	 1.50189749136670E-0001	
 3.92450000000000E+0003	 1.50285421259389E-0001	
 3.92650000000000E+0003	 1.50306093382109E-0001	
 3.92850000000000E+0003	 1.50258265504829E-0001	
 3.93050000000000E+0003	 1.50219937627549E-0001	
 3.93250000000000E+0003	 1.50216109750268E-0001	
 3.93450000000000E+0003	 1.50294281872988E-0001	
 3.93650000000000E+0003	 1.50361953995708E-0001	
 3.93850000000000E+0003	 1.50366626118427E-0001	
 3.94050000000000E+0003	 1.50387298241147E-0001	
 3.94250000000000E+0003	 1.50422470363867E-0001	
 3.94450000000000E+0003	 1.50385142486587E-0001	
 3.94650000000000E+0003	 1.50343814609306E-0001	
 3.94850000000000E+0003	 1.50388986732026E-0001	
 3.95050000000000E+0003	 1.50475658854746E-0001	
 3.95250000000000E+0003	 1.50517830977466E-0001	
 3.95450000000000E+0003	 1.50533503100185E-0001	
 3.95650000000000E+0003	 1.50554675222905E-0001	
 3.95850000000000E+0003	 1.50572347345625E-0001	
 3.96050000000000E+0003	 1.50573019468345E-0001	
 3.96250000000000E+0003	 1.50581191591064E-0001	
 3.96450000000000E+0003	 1.50612863713784E-0001	
 3.96650000000000E+0003	 1.50650035836504E-0001	
 3.96850000000000E+0003	 1.50672207959223E-0001	
 3.97050000000000E+0003	 1.50695880081943E-0001	
 3.97250000000000E+0003	 1.50719552204663E-0001	
 3.97450000000000E+0003	 1.50737724327383E-0001	
 3.97650000000000E+0003	 1.50755396450102E-0001	
 3.97850000000000E+0003	 1.50784568572822E-0001	
 3.98050000000000E+0003	 1.50814240695542E-0001	
 3.98250000000000E+0003	 1.50860912818262E-0001	
 3.98450000000000E+0003	 1.50904584940981E-0001	
 3.98650000000000E+0003	 1.50909757063701E-0001	
 3.98850000000000E+0003	 1.50895429186421E-0001	
 3.99050000000000E+0003	 1.50902601309141E-0001	
 3.99250000000000E+0003	 1.50920773431860E-0001	
 3.99450000000000E+0003	 1.50944945554580E-0001	
 3.99650000000000E+0003	 1.50967617677300E-0001	
 3.99850000000000E+0003	 1.50998289800020E-0001	

>1	DATALINE
