*CPCWIN*

>1	DATALINE
DATALINE
1
Operator:

Description:

Remarks:





15.9.2008
11:21


_x	_y
	
	
UNIT	UNIT
 4.50500000000000E+0002	 1.80420990015885E-0001	
 4.52500000000000E+0002	 1.80878480364267E-0001	
 4.54500000000000E+0002	 1.81512470712649E-0001	
 4.56500000000000E+0002	 1.81726461061030E-0001	
 4.58500000000000E+0002	 1.82131451409412E-0001	
 4.60500000000000E+0002	 1.83218941757794E-0001	
 4.62500000000000E+0002	 1.84325932106176E-0001	
 4.64500000000000E+0002	 1.85420922454558E-0001	
 4.66500000000000E+0002	 1.86077412802939E-0001	
 4.68500000000000E+0002	 1.86786903151321E-0001	
 4.70500000000000E+0002	 1.87603893499703E-0001	
 4.72500000000000E+0002	 1.88494883848085E-0001	
 4.74500000000000E+0002	 1.89292874196466E-0001	
 4.76500000000000E+0002	 1.90225364544848E-0001	
 4.78500000000000E+0002	 1.91353854893230E-0001	
 4.80500000000000E+0002	 1.92574845241612E-0001	
 4.82500000000000E+0002	 1.93721335589994E-0001	
 4.84500000000000E+0002	 1.94956325938375E-0001	
 4.86500000000000E+0002	 1.96222816286757E-0001	
 4.88500000000000E+0002	 1.97700306635139E-0001	
 4.90500000000000E+0002	 1.99089796983521E-0001	
 4.92500000000000E+0002	 2.00532787331902E-0001	
 4.94500000000000E+0002	 2.01916777680284E-0001	
 4.96500000000000E+0002	 2.03255268028666E-0001	
 4.98500000000000E+0002	 2.04581258377048E-0001	
 5.00500000000000E+0002	 2.05705248725430E-0001	
 5.02500000000000E+0002	 2.06814239073811E-0001	
 5.04500000000000E+0002	 2.08253729422193E-0001	
 5.06500000000000E+0002	 2.09703719770575E-0001	
 5.08500000000000E+0002	 2.11054210118957E-0001	
 5.10500000000000E+0002	 2.12400700467338E-0001	
 5.12500000000000E+0002	 2.13930190815720E-0001	
 5.14500000000000E+0002	 2.15429181164102E-0001	
 5.16500000000000E+0002	 2.16930671512484E-0001	
 5.18500000000000E+0002	 2.18650161860866E-0001	
 5.20500000000000E+0002	 2.20538152209247E-0001	
 5.22500000000000E+0002	 2.22391142557629E-0001	
 5.24500000000000E+0002	 2.24036632906011E-0001	
 5.26500000000000E+0002	 2.25916123254393E-0001	
 5.28500000000000E+0002	 2.28185113602774E-0001	
 5.30500000000000E+0002	 2.30027603951156E-0001	
 5.32500000000000E+0002	 2.30900594299538E-0001	
 5.34500000000000E+0002	 2.31028084647920E-0001	
 5.36500000000000E+0002	 2.30791074996302E-0001	
 5.38500000000000E+0002	 2.30348065344683E-0001	
 5.40500000000000E+0002	 2.29816055693065E-0001	
 5.42500000000000E+0002	 2.29318046041447E-0001	
 5.44500000000000E+0002	 2.29031536389829E-0001	
 5.46500000000000E+0002	 2.28944526738210E-0001	
 5.48500000000000E+0002	 2.28971517086592E-0001	
 5.50500000000000E+0002	 2.29085507434974E-0001	
 5.52500000000000E+0002	 2.29171997783356E-0001	
 5.54500000000000E+0002	 2.29129488131738E-0001	
 5.56500000000000E+0002	 2.28946478480119E-0001	
 5.58500000000000E+0002	 2.28577468828501E-0001	
 5.60500000000000E+0002	 2.27961459176883E-0001	
 5.62500000000000E+0002	 2.27111449525265E-0001	
 5.64500000000000E+0002	 2.26213939873646E-0001	
 5.66500000000000E+0002	 2.25421430222028E-0001	
 5.68500000000000E+0002	 2.24782920570410E-0001	
 5.70500000000000E+0002	 2.24207910918792E-0001	
 5.72500000000000E+0002	 2.23741401267174E-0001	
 5.74500000000000E+0002	 2.23364391615555E-0001	
 5.76500000000000E+0002	 2.23161381963937E-0001	
 5.78500000000000E+0002	 2.23091372312319E-0001	
 5.80500000000000E+0002	 2.22921362660701E-0001	
 5.82500000000000E+0002	 2.22672853009082E-0001	
 5.84500000000000E+0002	 2.22400343357464E-0001	
 5.86500000000000E+0002	 2.22132333705846E-0001	
 5.88500000000000E+0002	 2.21933824054228E-0001	
 5.90500000000000E+0002	 2.21838314402610E-0001	
 5.92500000000000E+0002	 2.21965804750991E-0001	
 5.94500000000000E+0002	 2.22357295099373E-0001	
 5.96500000000000E+0002	 2.22867785447755E-0001	
 5.98500000000000E+0002	 2.23400275796137E-0001	
 6.00500000000000E+0002	 2.23857766144518E-0001	
 6.02500000000000E+0002	 2.24227756492900E-0001	
 6.04500000000000E+0002	 2.24317246841282E-0001	
 6.06500000000000E+0002	 2.24098737189664E-0001	
 6.08500000000000E+0002	 2.23663227538046E-0001	
 6.10500000000000E+0002	 2.23105717886427E-0001	
 6.12500000000000E+0002	 2.22532208234809E-0001	
 6.14500000000000E+0002	 2.22005698583191E-0001	
 6.16500000000000E+0002	 2.21437188931573E-0001	
 6.18500000000000E+0002	 2.20981679279954E-0001	
 6.20500000000000E+0002	 2.20626669628336E-0001	
 6.22500000000000E+0002	 2.20133159976718E-0001	
 6.24500000000000E+0002	 2.19573150325100E-0001	
 6.26500000000000E+0002	 2.19040640673482E-0001	
 6.28500000000000E+0002	 2.18511631021863E-0001	
 6.30500000000000E+0002	 2.17960121370245E-0001	
 6.32500000000000E+0002	 2.17352111718627E-0001	
 6.34500000000000E+0002	 2.16619102067009E-0001	
 6.36500000000000E+0002	 2.15848092415390E-0001	
 6.38500000000000E+0002	 2.15075082763772E-0001	
 6.40500000000000E+0002	 2.14338573112154E-0001	
 6.42500000000000E+0002	 2.13644063460536E-0001	
 6.44500000000000E+0002	 2.12960553808918E-0001	
 6.46500000000000E+0002	 2.12252044157299E-0001	
 6.48500000000000E+0002	 2.11603534505681E-0001	
 6.50500000000000E+0002	 2.11016524854063E-0001	
 6.52500000000000E+0002	 2.10460015202445E-0001	
 6.54500000000000E+0002	 2.09893505550826E-0001	
 6.56500000000000E+0002	 2.09374995899208E-0001	
 6.58500000000000E+0002	 2.08901986247590E-0001	
 6.60500000000000E+0002	 2.08400476595972E-0001	
 6.62500000000000E+0002	 2.07971466944353E-0001	
 6.64500000000000E+0002	 2.08175457292735E-0001	
 6.66500000000000E+0002	 2.10296447641117E-0001	
 6.68500000000000E+0002	 2.09894937989499E-0001	
 6.70500000000000E+0002	 2.05717428337881E-0001	
 6.72500000000000E+0002	 2.04410418686262E-0001	
 6.74500000000000E+0002	 2.03551909034644E-0001	
 6.76500000000000E+0002	 2.02715399383026E-0001	
 6.78500000000000E+0002	 2.01871389731408E-0001	
 6.80500000000000E+0002	 2.01028380079789E-0001	
 6.82500000000000E+0002	 2.00221370428171E-0001	
 6.84500000000000E+0002	 1.99500860776553E-0001	
 6.86500000000000E+0002	 1.98800351124935E-0001	
 6.88500000000000E+0002	 1.98158841473317E-0001	
 6.90500000000000E+0002	 1.97613831821698E-0001	
 6.92500000000000E+0002	 1.97196322170080E-0001	
 6.94500000000000E+0002	 1.96793812518462E-0001	
 6.96500000000000E+0002	 1.96481802866844E-0001	
 6.98500000000000E+0002	 1.96148293215225E-0001	
 7.00500000000000E+0002	 1.95726783563607E-0001	
 7.02500000000000E+0002	 1.95119773911989E-0001	
 7.04500000000000E+0002	 1.94398264260371E-0001	
 7.06500000000000E+0002	 1.93598754608753E-0001	
 7.08500000000000E+0002	 1.92818744957134E-0001	
 7.10500000000000E+0002	 1.92039735305516E-0001	
 7.12500000000000E+0002	 1.91237725653898E-0001	
 7.14500000000000E+0002	 1.90238216002280E-0001	
 7.16500000000000E+0002	 1.89067706350661E-0001	
 7.18500000000000E+0002	 1.87732196699043E-0001	
 7.20500000000000E+0002	 1.86382187047425E-0001	
 7.22500000000000E+0002	 1.85086177395807E-0001	
 7.24500000000000E+0002	 1.83507167744189E-0001	
 7.26500000000000E+0002	 1.81526158092570E-0001	
 7.28500000000000E+0002	 1.79365648440952E-0001	
 7.30500000000000E+0002	 1.77178138789334E-0001	
 7.32500000000000E+0002	 1.75178629137716E-0001	
 7.34500000000000E+0002	 1.73429619486097E-0001	
 7.36500000000000E+0002	 1.71941109834479E-0001	
 7.38500000000000E+0002	 1.70665100182861E-0001	
 7.40500000000000E+0002	 1.69548590531243E-0001	
 7.42500000000000E+0002	 1.68514080879625E-0001	
 7.44500000000000E+0002	 1.67607571228006E-0001	
 7.46500000000000E+0002	 1.66776561576388E-0001	
 7.48500000000000E+0002	 1.66013551924770E-0001	
 7.50500000000000E+0002	 1.65340042273152E-0001	
 7.52500000000000E+0002	 1.64922532621533E-0001	
 7.54500000000000E+0002	 1.64838522969915E-0001	
 7.56500000000000E+0002	 1.65086013318297E-0001	
 7.58500000000000E+0002	 1.65613503666679E-0001	
 7.60500000000000E+0002	 1.66451494015061E-0001	
 7.62500000000000E+0002	 1.67350484363442E-0001	
 7.64500000000000E+0002	 1.67758474711824E-0001	
 7.66500000000000E+0002	 1.67016965060206E-0001	
 7.68500000000000E+0002	 1.65109455408588E-0001	
 7.70500000000000E+0002	 1.62663445756969E-0001	
 7.72500000000000E+0002	 1.60545936105351E-0001	
 7.74500000000000E+0002	 1.59349926453733E-0001	
 7.76500000000000E+0002	 1.59467916802115E-0001	
 7.78500000000000E+0002	 1.60405907150497E-0001	
 7.80500000000000E+0002	 1.60756397498878E-0001	
 7.82500000000000E+0002	 1.59853887847260E-0001	
 7.84500000000000E+0002	 1.58448878195642E-0001	
 7.86500000000000E+0002	 1.57018368544024E-0001	
 7.88500000000000E+0002	 1.55514358892405E-0001	
 7.90500000000000E+0002	 1.54050349240787E-0001	
 7.92500000000000E+0002	 1.53081339589169E-0001	
 7.94500000000000E+0002	 1.52648829937551E-0001	
 7.96500000000000E+0002	 1.52213320285933E-0001	
 7.98500000000000E+0002	 1.51286310634314E-0001	
 8.00500000000000E+0002	 1.50106800982696E-0001	
 8.02500000000000E+0002	 1.49075291331078E-0001	
 8.04500000000000E+0002	 1.48404781679460E-0001	
 8.06500000000000E+0002	 1.47977272027841E-0001	
 8.08500000000000E+0002	 1.47673262376223E-0001	
 8.10500000000000E+0002	 1.47270252724605E-0001	
 8.12500000000000E+0002	 1.46647243072987E-0001	
 8.14500000000000E+0002	 1.45759233421369E-0001	
 8.16500000000000E+0002	 1.44751223769750E-0001	
 8.18500000000000E+0002	 1.43761714118132E-0001	
 8.20500000000000E+0002	 1.42957704466514E-0001	
 8.22500000000000E+0002	 1.42416694814896E-0001	
 8.24500000000000E+0002	 1.42194685163277E-0001	
 8.26500000000000E+0002	 1.42172675511659E-0001	
 8.28500000000000E+0002	 1.42283165860041E-0001	
 8.30500000000000E+0002	 1.42487156208423E-0001	
 8.32500000000000E+0002	 1.42864646556805E-0001	
 8.34500000000000E+0002	 1.43334136905186E-0001	
 8.36500000000000E+0002	 1.43797127253568E-0001	
 8.38500000000000E+0002	 1.44143617601950E-0001	
 8.40500000000000E+0002	 1.44404607950332E-0001	
 8.42500000000000E+0002	 1.44494098298713E-0001	
 8.44500000000000E+0002	 1.44446088647095E-0001	
 8.46500000000000E+0002	 1.44383578995477E-0001	
 8.48500000000000E+0002	 1.44412069343859E-0001	
 8.50500000000000E+0002	 1.44507059692241E-0001	
 8.52500000000000E+0002	 1.44721550040622E-0001	
 8.54500000000000E+0002	 1.45057540389004E-0001	
 8.56500000000000E+0002	 1.45419030737386E-0001	
 8.58500000000000E+0002	 1.45571021085768E-0001	
 8.60500000000000E+0002	 1.45389511434149E-0001	
 8.62500000000000E+0002	 1.44780501782531E-0001	
 8.64500000000000E+0002	 1.43796992130913E-0001	
 8.66500000000000E+0002	 1.42533982479295E-0001	
 8.68500000000000E+0002	 1.41376972827677E-0001	
 8.70500000000000E+0002	 1.40785463176058E-0001	
 8.72500000000000E+0002	 1.40473453524440E-0001	
 8.74500000000000E+0002	 1.39572943872822E-0001	
 8.76500000000000E+0002	 1.38513934221204E-0001	
 8.78500000000000E+0002	 1.37871924569585E-0001	
 8.80500000000000E+0002	 1.37626414917967E-0001	
 8.82500000000000E+0002	 1.37593905266349E-0001	
 8.84500000000000E+0002	 1.37604895614731E-0001	
 8.86500000000000E+0002	 1.37525385963113E-0001	
 8.88500000000000E+0002	 1.37377376311494E-0001	
 8.90500000000000E+0002	 1.37133366659876E-0001	
 8.92500000000000E+0002	 1.36816357008258E-0001	
 8.94500000000000E+0002	 1.36380347356640E-0001	
 8.96500000000000E+0002	 1.35908337705021E-0001	
 8.98500000000000E+0002	 1.35508828053403E-0001	
 9.00500000000000E+0002	 1.35377318401785E-0001	
 9.02500000000000E+0002	 1.35676808750167E-0001	
 9.04500000000000E+0002	 1.36622799098549E-0001	
 9.06500000000000E+0002	 1.38289289446930E-0001	
 9.08500000000000E+0002	 1.40540279795312E-0001	
 9.10500000000000E+0002	 1.42964270143694E-0001	
 9.12500000000000E+0002	 1.45144260492076E-0001	
 9.14500000000000E+0002	 1.46672750840457E-0001	
 9.16500000000000E+0002	 1.47355741188839E-0001	
 9.18500000000000E+0002	 1.47116231537221E-0001	
 9.20500000000000E+0002	 1.46111721885603E-0001	
 9.22500000000000E+0002	 1.44576712233985E-0001	
 9.24500000000000E+0002	 1.42772202582366E-0001	
 9.26500000000000E+0002	 1.40890192930748E-0001	
 9.28500000000000E+0002	 1.39140183279130E-0001	
 9.30500000000000E+0002	 1.37631173627512E-0001	
 9.32500000000000E+0002	 1.36442663975893E-0001	
 9.34500000000000E+0002	 1.35576154324275E-0001	
 9.36500000000000E+0002	 1.35015644672657E-0001	
 9.38500000000000E+0002	 1.34669635021039E-0001	
 9.40500000000000E+0002	 1.34556625369420E-0001	
 9.42500000000000E+0002	 1.34708615717802E-0001	
 9.44500000000000E+0002	 1.35208606066184E-0001	
 9.46500000000000E+0002	 1.36096096414566E-0001	
 9.48500000000000E+0002	 1.37432086762948E-0001	
 9.50500000000000E+0002	 1.39198577111329E-0001	
 9.52500000000000E+0002	 1.41406067459711E-0001	
 9.54500000000000E+0002	 1.44025057808093E-0001	
 9.56500000000000E+0002	 1.47004548156475E-0001	
 9.58500000000000E+0002	 1.50223538504856E-0001	
 9.60500000000000E+0002	 1.53576528853238E-0001	
 9.62500000000000E+0002	 1.56890519201620E-0001	
 9.64500000000000E+0002	 1.60063509550002E-0001	
 9.66500000000000E+0002	 1.63026999898384E-0001	
 9.68500000000000E+0002	 1.65831990246765E-0001	
 9.70500000000000E+0002	 1.68597480595147E-0001	
 9.72500000000000E+0002	 1.71562970943529E-0001	
 9.74500000000000E+0002	 1.75062461291911E-0001	
 9.76500000000000E+0002	 1.79575951640292E-0001	
 9.78500000000000E+0002	 1.85482441988674E-0001	
 9.80500000000000E+0002	 1.92987932337056E-0001	
 9.82500000000000E+0002	 2.01887922685438E-0001	
 9.84500000000000E+0002	 2.11520913033820E-0001	
 9.86500000000000E+0002	 2.20944403382201E-0001	
 9.88500000000000E+0002	 2.29320893730583E-0001	
 9.90500000000000E+0002	 2.36188384078965E-0001	
 9.92500000000000E+0002	 2.41694374427347E-0001	
 9.94500000000000E+0002	 2.46442364775728E-0001	
 9.96500000000000E+0002	 2.51283355124110E-0001	
 9.98500000000000E+0002	 2.56927345472492E-0001	
 1.00050000000000E+0003	 2.63718835820874E-0001	
 1.00250000000000E+0003	 2.71487826169256E-0001	
 1.00450000000000E+0003	 2.79826316517637E-0001	
 1.00650000000000E+0003	 2.88270306866019E-0001	
 1.00850000000000E+0003	 2.96419797214401E-0001	
 1.01050000000000E+0003	 3.04068787562783E-0001	
 1.01250000000000E+0003	 3.11238277911164E-0001	
 1.01450000000000E+0003	 3.17919768259546E-0001	
 1.01650000000000E+0003	 3.23993258607928E-0001	
 1.01850000000000E+0003	 3.29176748956310E-0001	
 1.02050000000000E+0003	 3.33309739304692E-0001	
 1.02250000000000E+0003	 3.36540229653073E-0001	
 1.02450000000000E+0003	 3.39281720001455E-0001	
 1.02650000000000E+0003	 3.41967710349837E-0001	
 1.02850000000000E+0003	 3.44876200698219E-0001	
 1.03050000000000E+0003	 3.47967191046600E-0001	
 1.03250000000000E+0003	 3.50975681394982E-0001	
 1.03450000000000E+0003	 3.53631171743364E-0001	
 1.03650000000000E+0003	 3.55700662091746E-0001	
 1.03850000000000E+0003	 3.57081152440128E-0001	
 1.04050000000000E+0003	 3.57960642788509E-0001	
 1.04250000000000E+0003	 3.58729133136891E-0001	
 1.04450000000000E+0003	 3.59850123485273E-0001	
 1.04650000000000E+0003	 3.61608113833655E-0001	
 1.04850000000000E+0003	 3.63972104182036E-0001	
 1.05050000000000E+0003	 3.66561594530418E-0001	
 1.05250000000000E+0003	 3.68801084878800E-0001	
 1.05450000000000E+0003	 3.70107575227182E-0001	
 1.05650000000000E+0003	 3.70178565575564E-0001	
 1.05850000000000E+0003	 3.69068555923945E-0001	
 1.06050000000000E+0003	 3.67213046272327E-0001	
 1.06250000000000E+0003	 3.65236036620709E-0001	
 1.06450000000000E+0003	 3.63929526969091E-0001	
 1.06650000000000E+0003	 3.64116017317472E-0001	
 1.06850000000000E+0003	 3.66120507665854E-0001	
 1.07050000000000E+0003	 3.69673998014236E-0001	
 1.07250000000000E+0003	 3.74181988362618E-0001	
 1.07450000000000E+0003	 3.78773978711000E-0001	
 1.07650000000000E+0003	 3.82639469059381E-0001	
 1.07850000000000E+0003	 3.85169959407763E-0001	
 1.08050000000000E+0003	 3.86033949756145E-0001	
 1.08250000000000E+0003	 3.85036940104527E-0001	
 1.08450000000000E+0003	 3.82035930452908E-0001	
 1.08650000000000E+0003	 3.76856920801290E-0001	
 1.08850000000000E+0003	 3.69601911149672E-0001	
 1.09050000000000E+0003	 3.60982901498054E-0001	
 1.09250000000000E+0003	 3.52366391846436E-0001	
 1.09450000000000E+0003	 3.45012382194817E-0001	
 1.09650000000000E+0003	 3.39346372543199E-0001	
 1.09850000000000E+0003	 3.34914362891581E-0001	
 1.10050000000000E+0003	 3.31006353239963E-0001	
 1.10250000000000E+0003	 3.27048843588344E-0001	
 1.10450000000000E+0003	 3.22793333936726E-0001	
 1.10650000000000E+0003	 3.18262324285108E-0001	
 1.10850000000000E+0003	 3.13732314633490E-0001	
 1.11050000000000E+0003	 3.09477304981872E-0001	
 1.11250000000000E+0003	 3.05619795330253E-0001	
 1.11450000000000E+0003	 3.02002285678635E-0001	
 1.11650000000000E+0003	 2.98411776027017E-0001	
 1.11850000000000E+0003	 2.94659766375399E-0001	
 1.12050000000000E+0003	 2.90662256723780E-0001	
 1.12250000000000E+0003	 2.86364247072162E-0001	
 1.12450000000000E+0003	 2.81820237420544E-0001	
 1.12650000000000E+0003	 2.77110727768926E-0001	
 1.12850000000000E+0003	 2.72356718117308E-0001	
 1.13050000000000E+0003	 2.67573208465689E-0001	
 1.13250000000000E+0003	 2.62968198814071E-0001	
 1.13450000000000E+0003	 2.58780689162453E-0001	
 1.13650000000000E+0003	 2.55157679510835E-0001	
 1.13850000000000E+0003	 2.52224169859216E-0001	
 1.14050000000000E+0003	 2.50144160207598E-0001	
 1.14250000000000E+0003	 2.48908650555980E-0001	
 1.14450000000000E+0003	 2.48337140904362E-0001	
 1.14650000000000E+0003	 2.47982131252744E-0001	
 1.14850000000000E+0003	 2.47295121601125E-0001	
 1.15050000000000E+0003	 2.45709611949507E-0001	
 1.15250000000000E+0003	 2.42918102297889E-0001	
 1.15450000000000E+0003	 2.38962092646271E-0001	
 1.15650000000000E+0003	 2.34282582994652E-0001	
 1.15850000000000E+0003	 2.29331573343034E-0001	
 1.16050000000000E+0003	 2.24342563691416E-0001	
 1.16250000000000E+0003	 2.19278054039798E-0001	
 1.16450000000000E+0003	 2.14077044388180E-0001	
 1.16650000000000E+0003	 2.08730034736561E-0001	
 1.16850000000000E+0003	 2.03393525084943E-0001	
 1.17050000000000E+0003	 1.98209515433325E-0001	
 1.17250000000000E+0003	 1.93289505781707E-0001	
 1.17450000000000E+0003	 1.88635496130088E-0001	
 1.17650000000000E+0003	 1.84343986478470E-0001	
 1.17850000000000E+0003	 1.80553476826852E-0001	
 1.18050000000000E+0003	 1.77446967175234E-0001	
 1.18250000000000E+0003	 1.75152957523616E-0001	
 1.18450000000000E+0003	 1.73789447871997E-0001	
 1.18650000000000E+0003	 1.73367938220379E-0001	
 1.18850000000000E+0003	 1.73897428568761E-0001	
 1.19050000000000E+0003	 1.75303418917143E-0001	
 1.19250000000000E+0003	 1.77522409265524E-0001	
 1.19450000000000E+0003	 1.80397899613906E-0001	
 1.19650000000000E+0003	 1.83756389962288E-0001	
 1.19850000000000E+0003	 1.87364380310670E-0001	
 1.20050000000000E+0003	 1.91039870659051E-0001	
 1.20250000000000E+0003	 1.94606861007433E-0001	
 1.20450000000000E+0003	 1.97992351355815E-0001	
 1.20650000000000E+0003	 2.01180341704197E-0001	
 1.20850000000000E+0003	 2.04214832052579E-0001	
 1.21050000000000E+0003	 2.07158822400960E-0001	
 1.21250000000000E+0003	 2.10157812749342E-0001	
 1.21450000000000E+0003	 2.13234803097724E-0001	
 1.21650000000000E+0003	 2.16593793446106E-0001	
 1.21850000000000E+0003	 2.20561283794487E-0001	
 1.22050000000000E+0003	 2.24606274142869E-0001	
 1.22250000000000E+0003	 2.27477764491251E-0001	
 1.22450000000000E+0003	 2.28981254839633E-0001	
 1.22650000000000E+0003	 2.29838745188015E-0001	
 1.22850000000000E+0003	 2.30598235536396E-0001	
 1.23050000000000E+0003	 2.31344225884778E-0001	
 1.23250000000000E+0003	 2.32003716233160E-0001	
 1.23450000000000E+0003	 2.32470706581542E-0001	
 1.23650000000000E+0003	 2.32685696929923E-0001	
 1.23850000000000E+0003	 2.32574187278305E-0001	
 1.24050000000000E+0003	 2.32122177626687E-0001	
 1.24250000000000E+0003	 2.31300667975069E-0001	
 1.24450000000000E+0003	 2.30145658323451E-0001	
 1.24650000000000E+0003	 2.28686148671832E-0001	
 1.24850000000000E+0003	 2.26976639020214E-0001	
 1.25050000000000E+0003	 2.25042629368596E-0001	
 1.25250000000000E+0003	 2.22932619716978E-0001	
 1.25450000000000E+0003	 2.20688110065359E-0001	
 1.25650000000000E+0003	 2.18378600413741E-0001	
 1.25850000000000E+0003	 2.16026590762123E-0001	
 1.26050000000000E+0003	 2.13711581110505E-0001	
 1.26250000000000E+0003	 2.11444071458887E-0001	
 1.26450000000000E+0003	 2.09266061807268E-0001	
 1.26650000000000E+0003	 2.07199052155650E-0001	
 1.26850000000000E+0003	 2.05286042504032E-0001	
 1.27050000000000E+0003	 2.03552532852414E-0001	
 1.27250000000000E+0003	 2.02039523200795E-0001	
 1.27450000000000E+0003	 2.00699013549177E-0001	
 1.27650000000000E+0003	 1.99565503897559E-0001	
 1.27850000000000E+0003	 1.98621994245941E-0001	
 1.28050000000000E+0003	 1.97823484594323E-0001	
 1.28250000000000E+0003	 1.97043974942704E-0001	
 1.28450000000000E+0003	 1.96248465291086E-0001	
 1.28650000000000E+0003	 1.95473455639468E-0001	
 1.28850000000000E+0003	 1.94857945987850E-0001	
 1.29050000000000E+0003	 1.94460936336231E-0001	
 1.29250000000000E+0003	 1.94291426684613E-0001	
 1.29450000000000E+0003	 1.94280917032995E-0001	
 1.29650000000000E+0003	 1.94483907381377E-0001	
 1.29850000000000E+0003	 1.94950897729759E-0001	
 1.30050000000000E+0003	 1.95664388078140E-0001	
 1.30250000000000E+0003	 1.96493878426522E-0001	
 1.30450000000000E+0003	 1.97350868774904E-0001	
 1.30650000000000E+0003	 1.98171359123286E-0001	
 1.30850000000000E+0003	 1.98978849471667E-0001	
 1.31050000000000E+0003	 1.99642839820049E-0001	
 1.31250000000000E+0003	 2.00110330168431E-0001	
 1.31450000000000E+0003	 2.00317320516813E-0001	
 1.31650000000000E+0003	 2.00189810865195E-0001	
 1.31850000000000E+0003	 1.99821301213576E-0001	
 1.32050000000000E+0003	 1.99333291561958E-0001	
 1.32250000000000E+0003	 1.98766281910340E-0001	
 1.32450000000000E+0003	 1.98360272258722E-0001	
 1.32650000000000E+0003	 1.98196262607103E-0001	
 1.32850000000000E+0003	 1.98349752955485E-0001	
 1.33050000000000E+0003	 1.98782743303867E-0001	
 1.33250000000000E+0003	 1.99431233652249E-0001	
 1.33450000000000E+0003	 2.00062224000631E-0001	
 1.33650000000000E+0003	 2.00509714349012E-0001	
 1.33850000000000E+0003	 2.00767704697394E-0001	
 1.34050000000000E+0003	 2.01074195045776E-0001	
 1.34250000000000E+0003	 2.01173185394158E-0001	
 1.34450000000000E+0003	 2.01044175742539E-0001	
 1.34650000000000E+0003	 2.00839166090921E-0001	
 1.34850000000000E+0003	 2.00831656439303E-0001	
 1.35050000000000E+0003	 2.01216646787685E-0001	
 1.35250000000000E+0003	 2.01998637136067E-0001	
 1.35450000000000E+0003	 2.03143627484448E-0001	
 1.35650000000000E+0003	 2.04493617832830E-0001	
 1.35850000000000E+0003	 2.05706608181212E-0001	
 1.36050000000000E+0003	 2.06717598529594E-0001	
 1.36250000000000E+0003	 2.08015588877975E-0001	
 1.36450000000000E+0003	 2.09737579226357E-0001	
 1.36650000000000E+0003	 2.11603569574739E-0001	
 1.36850000000000E+0003	 2.13486059923121E-0001	
 1.37050000000000E+0003	 2.14570050271503E-0001	
 1.37250000000000E+0003	 2.15138040619884E-0001	
 1.37450000000000E+0003	 2.15953030968266E-0001	
 1.37650000000000E+0003	 2.16733021316648E-0001	
 1.37850000000000E+0003	 2.17367511665030E-0001	
 1.38050000000000E+0003	 2.18214502013411E-0001	
 1.38250000000000E+0003	 2.19200492361793E-0001	
 1.38450000000000E+0003	 2.20086982710175E-0001	
 1.38650000000000E+0003	 2.20588473058557E-0001	
 1.38850000000000E+0003	 2.21219963406939E-0001	
 1.39050000000000E+0003	 2.22260453755320E-0001	
 1.39250000000000E+0003	 2.23559444103702E-0001	
 1.39450000000000E+0003	 2.24742934452084E-0001	
 1.39650000000000E+0003	 2.26071424800466E-0001	
 1.39850000000000E+0003	 2.27542915148847E-0001	
 1.40050000000000E+0003	 2.28955405497229E-0001	
 1.40250000000000E+0003	 2.29549895845611E-0001	
 1.40450000000000E+0003	 2.29865386193993E-0001	
 1.40650000000000E+0003	 2.29776876542375E-0001	
 1.40850000000000E+0003	 2.29241366890756E-0001	
 1.41050000000000E+0003	 2.28645857239138E-0001	
 1.41250000000000E+0003	 2.27923347587520E-0001	
 1.41450000000000E+0003	 2.26965837935902E-0001	
 1.41650000000000E+0003	 2.25515828284283E-0001	
 1.41850000000000E+0003	 2.23616818632665E-0001	
 1.42050000000000E+0003	 2.21458808981047E-0001	
 1.42250000000000E+0003	 2.20105299329429E-0001	
 1.42450000000000E+0003	 2.19412289677811E-0001	
 1.42650000000000E+0003	 2.17646780026192E-0001	
 1.42850000000000E+0003	 2.15833270374574E-0001	
 1.43050000000000E+0003	 2.14731760722956E-0001	
 1.43250000000000E+0003	 2.13948251071338E-0001	
 1.43450000000000E+0003	 2.13398741419719E-0001	
 1.43650000000000E+0003	 2.13123731768101E-0001	
 1.43850000000000E+0003	 2.13852222116483E-0001	
 1.44050000000000E+0003	 2.15621712464865E-0001	
 1.44250000000000E+0003	 2.17443202813247E-0001	
 1.44450000000000E+0003	 2.18294193161628E-0001	
 1.44650000000000E+0003	 2.18953183510010E-0001	
 1.44850000000000E+0003	 2.19663673858392E-0001	
 1.45050000000000E+0003	 2.20202164206774E-0001	
 1.45250000000000E+0003	 2.20517154555155E-0001	
 1.45450000000000E+0003	 2.19557644903537E-0001	
 1.45650000000000E+0003	 2.16417635251919E-0001	
 1.45850000000000E+0003	 2.13812625600301E-0001	
 1.46050000000000E+0003	 2.12226615948683E-0001	
 1.46250000000000E+0003	 2.10754606297064E-0001	
 1.46450000000000E+0003	 2.07977596645446E-0001	
 1.46650000000000E+0003	 2.04947586993828E-0001	
 1.46850000000000E+0003	 2.01826077342210E-0001	
 1.47050000000000E+0003	 1.97967567690591E-0001	
 1.47250000000000E+0003	 1.92702558038973E-0001	
 1.47450000000000E+0003	 1.87689548387355E-0001	
 1.47650000000000E+0003	 1.84718038735737E-0001	
 1.47850000000000E+0003	 1.83028029084118E-0001	
 1.48050000000000E+0003	 1.81700019432500E-0001	
 1.48250000000000E+0003	 1.81095509780882E-0001	
 1.48450000000000E+0003	 1.80658500129264E-0001	
 1.48650000000000E+0003	 1.80841490477646E-0001	
 1.48850000000000E+0003	 1.81646480826027E-0001	
 1.49050000000000E+0003	 1.83548971174409E-0001	
 1.49250000000000E+0003	 1.85753961522791E-0001	
 1.49450000000000E+0003	 1.88223951871173E-0001	
 1.49650000000000E+0003	 1.90919442219554E-0001	
 1.49850000000000E+0003	 1.94459432567936E-0001	
 1.50050000000000E+0003	 1.98522422916318E-0001	
 1.50250000000000E+0003	 2.02537413264700E-0001	
 1.50450000000000E+0003	 2.05308903613082E-0001	
 1.50650000000000E+0003	 2.09186893961463E-0001	
 1.50850000000000E+0003	 2.15862384309845E-0001	
 1.51050000000000E+0003	 2.23078374658227E-0001	
 1.51250000000000E+0003	 2.31205865006609E-0001	
 1.51450000000000E+0003	 2.38121855354990E-0001	
 1.51650000000000E+0003	 2.44670845703372E-0001	
 1.51850000000000E+0003	 2.49890336051754E-0001	
 1.52050000000000E+0003	 2.53045826400136E-0001	
 1.52250000000000E+0003	 2.57865316748518E-0001	
 1.52450000000000E+0003	 2.63390307096899E-0001	
 1.52650000000000E+0003	 2.70190297445281E-0001	
 1.52850000000000E+0003	 2.76757787793663E-0001	
 1.53050000000000E+0003	 2.82408778142045E-0001	
 1.53250000000000E+0003	 2.87809768490426E-0001	
 1.53450000000000E+0003	 2.93951258838808E-0001	
 1.53650000000000E+0003	 2.98126749187190E-0001	
 1.53850000000000E+0003	 3.01279239535572E-0001	
 1.54050000000000E+0003	 3.05501729883954E-0001	
 1.54250000000000E+0003	 3.09102720232335E-0001	
 1.54450000000000E+0003	 3.12726210580717E-0001	
 1.54650000000000E+0003	 3.15045200929099E-0001	
 1.54850000000000E+0003	 3.14986691277481E-0001	
 1.55050000000000E+0003	 3.13094681625862E-0001	
 1.55250000000000E+0003	 3.08791671974244E-0001	
 1.55450000000000E+0003	 3.02518662322626E-0001	
 1.55650000000000E+0003	 2.95388652671008E-0001	
 1.55850000000000E+0003	 2.87300643019390E-0001	
 1.56050000000000E+0003	 2.79220133367771E-0001	
 1.56250000000000E+0003	 2.73250623716153E-0001	
 1.56450000000000E+0003	 2.71940614064535E-0001	
 1.56650000000000E+0003	 2.68083604412917E-0001	
 1.56850000000000E+0003	 2.63412094761298E-0001	
 1.57050000000000E+0003	 2.59174585109680E-0001	
 1.57250000000000E+0003	 2.54879075458062E-0001	
 1.57450000000000E+0003	 2.51070565806444E-0001	
 1.57650000000000E+0003	 2.46379556154826E-0001	
 1.57850000000000E+0003	 2.42179046503207E-0001	
 1.58050000000000E+0003	 2.40634036851589E-0001	
 1.58250000000000E+0003	 2.38801027199971E-0001	
 1.58450000000000E+0003	 2.36775517548353E-0001	
 1.58650000000000E+0003	 2.35321507896734E-0001	
 1.58850000000000E+0003	 2.34792498245116E-0001	
 1.59050000000000E+0003	 2.35020488593498E-0001	
 1.59250000000000E+0003	 2.36113978941880E-0001	
 1.59450000000000E+0003	 2.37817469290262E-0001	
 1.59650000000000E+0003	 2.40162459638643E-0001	
 1.59850000000000E+0003	 2.42698949987025E-0001	
 1.60050000000000E+0003	 2.45871940335407E-0001	
 1.60250000000000E+0003	 2.49595930683789E-0001	
 1.60450000000000E+0003	 2.53933421032170E-0001	
 1.60650000000000E+0003	 2.58681411380552E-0001	
 1.60850000000000E+0003	 2.64504901728934E-0001	
 1.61050000000000E+0003	 2.71150392077316E-0001	
 1.61250000000000E+0003	 2.78514882425698E-0001	
 1.61450000000000E+0003	 2.85852372774079E-0001	
 1.61650000000000E+0003	 2.94561863122461E-0001	
 1.61850000000000E+0003	 3.04575353470843E-0001	
 1.62050000000000E+0003	 3.15453343819225E-0001	
 1.62250000000000E+0003	 3.28219334167606E-0001	
 1.62450000000000E+0003	 3.42008824515988E-0001	
 1.62650000000000E+0003	 3.55131814864370E-0001	
 1.62850000000000E+0003	 3.69828805212752E-0001	
 1.63050000000000E+0003	 3.84204295561134E-0001	
 1.63250000000000E+0003	 3.96901285909515E-0001	
 1.63450000000000E+0003	 4.08666276257897E-0001	
 1.63650000000000E+0003	 4.21091266606279E-0001	
 1.63850000000000E+0003	 4.30562256954661E-0001	
 1.64050000000000E+0003	 4.38680747303042E-0001	
 1.64250000000000E+0003	 4.45100237651424E-0001	
 1.64450000000000E+0003	 4.49386227999806E-0001	
 1.64650000000000E+0003	 4.53881718348188E-0001	
 1.64850000000000E+0003	 4.59540708696570E-0001	
 1.65050000000000E+0003	 4.63239699044951E-0001	
 1.65250000000000E+0003	 4.64349189393333E-0001	
 1.65450000000000E+0003	 4.65944179741715E-0001	
 1.65650000000000E+0003	 4.66111670090097E-0001	
 1.65850000000000E+0003	 4.66504160438478E-0001	
 1.66050000000000E+0003	 4.61690650786860E-0001	
 1.66250000000000E+0003	 4.53730141135242E-0001	
 1.66450000000000E+0003	 4.44041131483624E-0001	
 1.66650000000000E+0003	 4.34451621832006E-0001	
 1.66850000000000E+0003	 4.24725612180387E-0001	
 1.67050000000000E+0003	 4.14354602528769E-0001	
 1.67250000000000E+0003	 4.04518592877151E-0001	
 1.67450000000000E+0003	 3.95292583225533E-0001	
 1.67650000000000E+0003	 3.85382073573914E-0001	
 1.67850000000000E+0003	 3.76539563922296E-0001	
 1.68050000000000E+0003	 3.68840054270678E-0001	
 1.68250000000000E+0003	 3.59993044619060E-0001	
 1.68450000000000E+0003	 3.49212034967442E-0001	
 1.68650000000000E+0003	 3.37403525315823E-0001	
 1.68850000000000E+0003	 3.29862515664205E-0001	
 1.69050000000000E+0003	 3.22579506012587E-0001	
 1.69250000000000E+0003	 3.13064996360969E-0001	
 1.69450000000000E+0003	 3.02710486709350E-0001	
 1.69650000000000E+0003	 2.91058477057732E-0001	
 1.69850000000000E+0003	 2.81679467406114E-0001	
 1.70050000000000E+0003	 2.74197957754496E-0001	
 1.70250000000000E+0003	 2.67053448102878E-0001	
 1.70450000000000E+0003	 2.63794938451259E-0001	
 1.70650000000000E+0003	 2.60999928799641E-0001	
 1.70850000000000E+0003	 2.56331919148023E-0001	
 1.71050000000000E+0003	 2.51952409496405E-0001	
 1.71250000000000E+0003	 2.47022899844786E-0001	
 1.71450000000000E+0003	 2.40965890193168E-0001	
 1.71650000000000E+0003	 2.32893380541550E-0001	
 1.71850000000000E+0003	 2.23257370889932E-0001	
 1.72050000000000E+0003	 2.14504361238314E-0001	
 1.72250000000000E+0003	 2.07783851586695E-0001	
 1.72450000000000E+0003	 2.00918841935077E-0001	
 1.72650000000000E+0003	 1.94202332283459E-0001	
 1.72850000000000E+0003	 1.88488322631841E-0001	
 1.73050000000000E+0003	 1.83864312980222E-0001	
 1.73250000000000E+0003	 1.78939803328604E-0001	
 1.73450000000000E+0003	 1.74212293676986E-0001	
 1.73650000000000E+0003	 1.70747284025368E-0001	
 1.73850000000000E+0003	 1.70280774373750E-0001	
 1.74050000000000E+0003	 1.69819264722131E-0001	
 1.74250000000000E+0003	 1.67835755070513E-0001	
 1.74450000000000E+0003	 1.66194745418895E-0001	
 1.74650000000000E+0003	 1.64182235767277E-0001	
 1.74850000000000E+0003	 1.61778226115658E-0001	
 1.75050000000000E+0003	 1.58643216464040E-0001	
 1.75250000000000E+0003	 1.54867706812422E-0001	
 1.75450000000000E+0003	 1.52097197160804E-0001	
 1.75650000000000E+0003	 1.50210187509185E-0001	
 1.75850000000000E+0003	 1.47697177857567E-0001	
 1.76050000000000E+0003	 1.44954168205949E-0001	
 1.76250000000000E+0003	 1.42977158554331E-0001	
 1.76450000000000E+0003	 1.40725648902713E-0001	
 1.76650000000000E+0003	 1.38914639251094E-0001	
 1.76850000000000E+0003	 1.37154129599476E-0001	
 1.77050000000000E+0003	 1.35433119947858E-0001	
 1.77250000000000E+0003	 1.34462110296240E-0001	
 1.77450000000000E+0003	 1.32851600644621E-0001	
 1.77650000000000E+0003	 1.32087090993003E-0001	
 1.77850000000000E+0003	 1.31842581341385E-0001	
 1.78050000000000E+0003	 1.31156571689767E-0001	
 1.78250000000000E+0003	 1.30271562038149E-0001	
 1.78450000000000E+0003	 1.29073052386530E-0001	
 1.78650000000000E+0003	 1.28250542734912E-0001	
 1.78850000000000E+0003	 1.27314533083294E-0001	
 1.79050000000000E+0003	 1.26426523431676E-0001	
 1.79250000000000E+0003	 1.25783013780057E-0001	
 1.79450000000000E+0003	 1.24777004128439E-0001	
 1.79650000000000E+0003	 1.24210494476821E-0001	
 1.79850000000000E+0003	 1.24062984825203E-0001	
 1.80050000000000E+0003	 1.23542975173585E-0001	
 1.80250000000000E+0003	 1.22903965521966E-0001	
 1.80450000000000E+0003	 1.22234955870348E-0001	
 1.80650000000000E+0003	 1.21804446218730E-0001	
 1.80850000000000E+0003	 1.21282936567112E-0001	
 1.81050000000000E+0003	 1.20896926915493E-0001	
 1.81250000000000E+0003	 1.20494417263875E-0001	
 1.81450000000000E+0003	 1.19862907612257E-0001	
 1.81650000000000E+0003	 1.19362397960639E-0001	
 1.81850000000000E+0003	 1.18974888309021E-0001	
 1.82050000000000E+0003	 1.18496878657402E-0001	
 1.82250000000000E+0003	 1.17903369005784E-0001	
 1.82450000000000E+0003	 1.17428859354166E-0001	
 1.82650000000000E+0003	 1.17025849702548E-0001	
 1.82850000000000E+0003	 1.16411340050929E-0001	
 1.83050000000000E+0003	 1.16644830399311E-0001	
 1.83250000000000E+0003	 1.16004820747693E-0001	
 1.83450000000000E+0003	 1.15491311096075E-0001	
 1.83650000000000E+0003	 1.15486801444457E-0001	
 1.83850000000000E+0003	 1.15269291792838E-0001	
 1.84050000000000E+0003	 1.14703282141220E-0001	
 1.84250000000000E+0003	 1.13897272489602E-0001	
 1.84450000000000E+0003	 1.13490262837984E-0001	
 1.84650000000000E+0003	 1.12957753186365E-0001	
 1.84850000000000E+0003	 1.13105743534747E-0001	
 1.85050000000000E+0003	 1.13471733883129E-0001	
 1.85250000000000E+0003	 1.13313724231511E-0001	
 1.85450000000000E+0003	 1.13149214579893E-0001	
 1.85650000000000E+0003	 1.12898704928274E-0001	
 1.85850000000000E+0003	 1.12679695276656E-0001	
 1.86050000000000E+0003	 1.12459185625038E-0001	
 1.86250000000000E+0003	 1.12234675973420E-0001	
 1.86450000000000E+0003	 1.11923666321801E-0001	
 1.86650000000000E+0003	 1.11583656670183E-0001	
 1.86850000000000E+0003	 1.11616647018565E-0001	
 1.87050000000000E+0003	 1.11478637366947E-0001	
 1.87250000000000E+0003	 1.10965627715329E-0001	
 1.87450000000000E+0003	 1.11093618063710E-0001	
 1.87650000000000E+0003	 1.11146108412092E-0001	
 1.87850000000000E+0003	 1.11013598760474E-0001	
 1.88050000000000E+0003	 1.10874089108856E-0001	
 1.88250000000000E+0003	 1.10733079457237E-0001	
 1.88450000000000E+0003	 1.10636069805619E-0001	
 1.88650000000000E+0003	 1.10417060154001E-0001	
 1.88850000000000E+0003	 1.10230550502383E-0001	
 1.89050000000000E+0003	 1.10337040850765E-0001	
 1.89250000000000E+0003	 1.10022531199146E-0001	
 1.89450000000000E+0003	 1.09918021547528E-0001	
 1.89650000000000E+0003	 1.10033511895910E-0001	
 1.89850000000000E+0003	 1.09865002244292E-0001	
 1.90050000000000E+0003	 1.09764492592673E-0001	
 1.90250000000000E+0003	 1.09700982941055E-0001	
 1.90450000000000E+0003	 1.09626973289437E-0001	
 1.90650000000000E+0003	 1.09500963637819E-0001	
 1.90850000000000E+0003	 1.09446953986201E-0001	
 1.91050000000000E+0003	 1.09491444334582E-0001	
 1.91250000000000E+0003	 1.09380934682964E-0001	
 1.91450000000000E+0003	 1.09173425031346E-0001	
 1.91650000000000E+0003	 1.08958415379728E-0001	
 1.91850000000000E+0003	 1.08987405728109E-0001	
 1.92050000000000E+0003	 1.08735896076491E-0001	
 1.92250000000000E+0003	 1.08828886424873E-0001	
 1.92450000000000E+0003	 1.09184376773255E-0001	
 1.92650000000000E+0003	 1.09038367121637E-0001	
 1.92850000000000E+0003	 1.09044857470018E-0001	
 1.93050000000000E+0003	 1.09052847818400E-0001	
 1.93250000000000E+0003	 1.09033838166782E-0001	
 1.93450000000000E+0003	 1.09015828515164E-0001	
 1.93650000000000E+0003	 1.08989818863545E-0001	
 1.93850000000000E+0003	 1.08923809211927E-0001	
 1.94050000000000E+0003	 1.08745799560309E-0001	
 1.94250000000000E+0003	 1.08856289908691E-0001	
 1.94450000000000E+0003	 1.08956780257073E-0001	
 1.94650000000000E+0003	 1.08863270605454E-0001	
 1.94850000000000E+0003	 1.08951760953836E-0001	
 1.95050000000000E+0003	 1.08956251302218E-0001	
 1.95250000000000E+0003	 1.08971741650600E-0001	
 1.95450000000000E+0003	 1.08988731998981E-0001	
 1.95650000000000E+0003	 1.09028222347363E-0001	
 1.95850000000000E+0003	 1.09025712695745E-0001	
 1.96050000000000E+0003	 1.09045703044127E-0001	
 1.96250000000000E+0003	 1.09064193392509E-0001	
 1.96450000000000E+0003	 1.09001683740890E-0001	
 1.96650000000000E+0003	 1.09029674089272E-0001	
 1.96850000000000E+0003	 1.09153164437654E-0001	
 1.97050000000000E+0003	 1.09095154786036E-0001	
 1.97250000000000E+0003	 1.09111145134417E-0001	
 1.97450000000000E+0003	 1.09166635482799E-0001	
 1.97650000000000E+0003	 1.09192125831181E-0001	
 1.97850000000000E+0003	 1.09212616179563E-0001	
 1.98050000000000E+0003	 1.09237606527945E-0001	
 1.98250000000000E+0003	 1.09262596876326E-0001	
 1.98450000000000E+0003	 1.09275087224708E-0001	
 1.98650000000000E+0003	 1.09266077573090E-0001	
 1.98850000000000E+0003	 1.09264567921472E-0001	
 1.99050000000000E+0003	 1.09220558269853E-0001	
 1.99250000000000E+0003	 1.09353548618235E-0001	
 1.99450000000000E+0003	 1.09412038966617E-0001	
 1.99650000000000E+0003	 1.09405529314999E-0001	
 1.99850000000000E+0003	 1.09529519663381E-0001	
 2.00050000000000E+0003	 1.09596510011762E-0001	
 2.00250000000000E+0003	 1.09647500360144E-0001	
 2.00450000000000E+0003	 1.09702990708526E-0001	
 2.00650000000000E+0003	 1.09765981056908E-0001	
 2.00850000000000E+0003	 1.09840971405289E-0001	
 2.01050000000000E+0003	 1.09920961753671E-0001	
 2.01250000000000E+0003	 1.09988452102053E-0001	
 2.01450000000000E+0003	 1.10020942450435E-0001	
 2.01650000000000E+0003	 1.10108432798816E-0001	
 2.01850000000000E+0003	 1.10257923147198E-0001	
 2.02050000000000E+0003	 1.10320413495580E-0001	
 2.02250000000000E+0003	 1.10419903843962E-0001	
 2.02450000000000E+0003	 1.10543894192344E-0001	
 2.02650000000000E+0003	 1.10654384540725E-0001	
 2.02850000000000E+0003	 1.10758874889107E-0001	
 2.03050000000000E+0003	 1.10853365237489E-0001	
 2.03250000000000E+0003	 1.10948355585871E-0001	
 2.03450000000000E+0003	 1.11041345934252E-0001	
 2.03650000000000E+0003	 1.11128336282634E-0001	
 2.03850000000000E+0003	 1.11195326631016E-0001	
 2.04050000000000E+0003	 1.11268316979398E-0001	
 2.04250000000000E+0003	 1.11377307327780E-0001	
 2.04450000000000E+0003	 1.11455297676161E-0001	
 2.04650000000000E+0003	 1.11528788024543E-0001	
 2.04850000000000E+0003	 1.11606278372925E-0001	
 2.05050000000000E+0003	 1.11675768721307E-0001	
 2.05250000000000E+0003	 1.11740259069688E-0001	
 2.05450000000000E+0003	 1.11796249418070E-0001	
 2.05650000000000E+0003	 1.11851739766452E-0001	
 2.05850000000000E+0003	 1.11901230114834E-0001	
 2.06050000000000E+0003	 1.11957220463216E-0001	
 2.06250000000000E+0003	 1.11982210811597E-0001	
 2.06450000000000E+0003	 1.12023701159979E-0001	
 2.06650000000000E+0003	 1.12107691508361E-0001	
 2.06850000000000E+0003	 1.12146181856743E-0001	
 2.07050000000000E+0003	 1.12205172205124E-0001	
 2.07250000000000E+0003	 1.12268162553506E-0001	
 2.07450000000000E+0003	 1.12320652901888E-0001	
 2.07650000000000E+0003	 1.12366143250270E-0001	
 2.07850000000000E+0003	 1.12402133598652E-0001	
 2.08050000000000E+0003	 1.12449123947033E-0001	
 2.08250000000000E+0003	 1.12493614295415E-0001	
 2.08450000000000E+0003	 1.12536604643797E-0001	
 2.08650000000000E+0003	 1.12565094992179E-0001	
 2.08850000000000E+0003	 1.12593085340560E-0001	
 2.09050000000000E+0003	 1.12634575688942E-0001	
 2.09250000000000E+0003	 1.12675566037324E-0001	
 2.09450000000000E+0003	 1.12701556385706E-0001	
 2.09650000000000E+0003	 1.12746046734088E-0001	
 2.09850000000000E+0003	 1.12777037082469E-0001	
 2.10050000000000E+0003	 1.12809527430851E-0001	
 2.10250000000000E+0003	 1.12834517779233E-0001	
 2.10450000000000E+0003	 1.12858008127615E-0001	
 2.10650000000000E+0003	 1.12876498475996E-0001	
 2.10850000000000E+0003	 1.12896488824378E-0001	
 2.11050000000000E+0003	 1.12910979172760E-0001	
 2.11250000000000E+0003	 1.12915969521142E-0001	
 2.11450000000000E+0003	 1.12921459869524E-0001	
 2.11650000000000E+0003	 1.12934950217905E-0001	
 2.11850000000000E+0003	 1.12944940566287E-0001	
 2.12050000000000E+0003	 1.12956930914669E-0001	
 2.12250000000000E+0003	 1.12966921263051E-0001	
 2.12450000000000E+0003	 1.12976411611432E-0001	
 2.12650000000000E+0003	 1.12985901959814E-0001	
 2.12850000000000E+0003	 1.12992892308196E-0001	
 2.13050000000000E+0003	 1.13003882656578E-0001	
 2.13250000000000E+0003	 1.13011373004960E-0001	
 2.13450000000000E+0003	 1.13013863353341E-0001	
 2.13650000000000E+0003	 1.13020353701723E-0001	
 2.13850000000000E+0003	 1.13025344050105E-0001	
 2.14050000000000E+0003	 1.13027834398487E-0001	
 2.14250000000000E+0003	 1.13032824746868E-0001	
 2.14450000000000E+0003	 1.13032315095250E-0001	
 2.14650000000000E+0003	 1.13026305443632E-0001	
 2.14850000000000E+0003	 1.13011295792014E-0001	
 2.15050000000000E+0003	 1.12987786140396E-0001	
 2.15250000000000E+0003	 1.12961776488777E-0001	
 2.15450000000000E+0003	 1.12935266837159E-0001	
 2.15650000000000E+0003	 1.12907757185541E-0001	
 2.15850000000000E+0003	 1.12871747533923E-0001	
 2.16050000000000E+0003	 1.12830237882304E-0001	
 2.16250000000000E+0003	 1.12788728230686E-0001	
 2.16450000000000E+0003	 1.12745218579068E-0001	
 2.16650000000000E+0003	 1.12703708927450E-0001	
 2.16850000000000E+0003	 1.12668699275832E-0001	
 2.17050000000000E+0003	 1.12622189624213E-0001	
 2.17250000000000E+0003	 1.12560679972595E-0001	
 2.17450000000000E+0003	 1.12498170320977E-0001	
 2.17650000000000E+0003	 1.12442660669359E-0001	
 2.17850000000000E+0003	 1.12386651017740E-0001	
 2.18050000000000E+0003	 1.12337141366122E-0001	
 2.18250000000000E+0003	 1.12292131714504E-0001	
 2.18450000000000E+0003	 1.12245122062886E-0001	
 2.18650000000000E+0003	 1.12200112411268E-0001	
 2.18850000000000E+0003	 1.12158602759649E-0001	
 2.19050000000000E+0003	 1.12114093108031E-0001	
 2.19250000000000E+0003	 1.12070583456413E-0001	
 2.19450000000000E+0003	 1.12029573804795E-0001	
 2.19650000000000E+0003	 1.11991064153176E-0001	
 2.19850000000000E+0003	 1.11950554501558E-0001	
 2.20050000000000E+0003	 1.11909544849940E-0001	
 2.20250000000000E+0003	 1.11865035198322E-0001	
 2.20450000000000E+0003	 1.11822025546704E-0001	
 2.20650000000000E+0003	 1.11782015895085E-0001	
 2.20850000000000E+0003	 1.11745506243467E-0001	
 2.21050000000000E+0003	 1.11709496591849E-0001	
 2.21250000000000E+0003	 1.11673986940231E-0001	
 2.21450000000000E+0003	 1.11635477288612E-0001	
 2.21650000000000E+0003	 1.11598467636994E-0001	
 2.21850000000000E+0003	 1.11562457985376E-0001	
 2.22050000000000E+0003	 1.11528948333758E-0001	
 2.22250000000000E+0003	 1.11495438682140E-0001	
 2.22450000000000E+0003	 1.11460929030521E-0001	
 2.22650000000000E+0003	 1.11427919378903E-0001	
 2.22850000000000E+0003	 1.11394909727285E-0001	
 2.23050000000000E+0003	 1.11361400075667E-0001	
 2.23250000000000E+0003	 1.11333890424048E-0001	
 2.23450000000000E+0003	 1.11308880772430E-0001	
 2.23650000000000E+0003	 1.11283871120812E-0001	
 2.23850000000000E+0003	 1.11254361469194E-0001	
 2.24050000000000E+0003	 1.11226351817576E-0001	
 2.24250000000000E+0003	 1.11199342165957E-0001	
 2.24450000000000E+0003	 1.11176332514339E-0001	
 2.24650000000000E+0003	 1.11153822862721E-0001	
 2.24850000000000E+0003	 1.11134813211103E-0001	
 2.25050000000000E+0003	 1.11110303559484E-0001	
 2.25250000000000E+0003	 1.11084293907866E-0001	
 2.25450000000000E+0003	 1.11056784256248E-0001	
 2.25650000000000E+0003	 1.11036774604630E-0001	
 2.25850000000000E+0003	 1.11021764953012E-0001	
 2.26050000000000E+0003	 1.11011755301393E-0001	
 2.26250000000000E+0003	 1.10999745649775E-0001	
 2.26450000000000E+0003	 1.10989735998157E-0001	
 2.26650000000000E+0003	 1.10982226346539E-0001	
 2.26850000000000E+0003	 1.10983716694920E-0001	
 2.27050000000000E+0003	 1.10983207043302E-0001	
 2.27250000000000E+0003	 1.10980697391684E-0001	
 2.27450000000000E+0003	 1.10972187740066E-0001	
 2.27650000000000E+0003	 1.10962178088448E-0001	
 2.27850000000000E+0003	 1.10950168436829E-0001	
 2.28050000000000E+0003	 1.10935658785211E-0001	
 2.28250000000000E+0003	 1.10914649133593E-0001	
 2.28450000000000E+0003	 1.10892139481975E-0001	
 2.28650000000000E+0003	 1.10838629830356E-0001	
 2.28850000000000E+0003	 1.10747620178738E-0001	
 2.29050000000000E+0003	 1.10634610527120E-0001	
 2.29250000000000E+0003	 1.10498100875502E-0001	
 2.29450000000000E+0003	 1.10347091223883E-0001	
 2.29650000000000E+0003	 1.10212081572265E-0001	
 2.29850000000000E+0003	 1.10112071920647E-0001	
 2.30050000000000E+0003	 1.10085562269029E-0001	
 2.30250000000000E+0003	 1.10155552617411E-0001	
 2.30450000000000E+0003	 1.10220542965792E-0001	
 2.30650000000000E+0003	 1.10193033314174E-0001	
 2.30850000000000E+0003	 1.10189523662556E-0001	
 2.31050000000000E+0003	 1.10294514010938E-0001	
 2.31250000000000E+0003	 1.10522004359319E-0001	
 2.31450000000000E+0003	 1.10661494707701E-0001	
 2.31650000000000E+0003	 1.10574985056083E-0001	
 2.31850000000000E+0003	 1.10412475404465E-0001	
 2.32050000000000E+0003	 1.10171465752847E-0001	
 2.32250000000000E+0003	 1.09933456101228E-0001	
 2.32450000000000E+0003	 1.09890946449610E-0001	
 2.32650000000000E+0003	 1.10028436797992E-0001	
 2.32850000000000E+0003	 1.10317927146374E-0001	
 2.33050000000000E+0003	 1.10511417494755E-0001	
 2.33250000000000E+0003	 1.10667407843137E-0001	
 2.33450000000000E+0003	 1.10936398191519E-0001	
 2.33650000000000E+0003	 1.11150888539901E-0001	
 2.33850000000000E+0003	 1.11115378888283E-0001	
 2.34050000000000E+0003	 1.10888869236664E-0001	
 2.34250000000000E+0003	 1.10677859585046E-0001	
 2.34450000000000E+0003	 1.10948849933428E-0001	
 2.34650000000000E+0003	 1.10838340281810E-0001	
 2.34850000000000E+0003	 1.10164830630191E-0001	
 2.35050000000000E+0003	 1.10801320978573E-0001	
 2.35250000000000E+0003	 1.11874311326955E-0001	
 2.35450000000000E+0003	 1.11803801675337E-0001	
 2.35650000000000E+0003	 1.11512792023719E-0001	
 2.35850000000000E+0003	 1.11598782372100E-0001	
 2.36050000000000E+0003	 1.11966272720482E-0001	
 2.36250000000000E+0003	 1.12234763068864E-0001	
 2.36450000000000E+0003	 1.12289753417246E-0001	
 2.36650000000000E+0003	 1.12302743765627E-0001	
 2.36850000000000E+0003	 1.12368734114009E-0001	
 2.37050000000000E+0003	 1.12630224462391E-0001	
 2.37250000000000E+0003	 1.13272214810773E-0001	
 2.37450000000000E+0003	 1.14032205159155E-0001	
 2.37650000000000E+0003	 1.14236695507536E-0001	
 2.37850000000000E+0003	 1.13692685855918E-0001	
 2.38050000000000E+0003	 1.13009676204300E-0001	
 2.38250000000000E+0003	 1.12814166552682E-0001	
 2.38450000000000E+0003	 1.13141656901063E-0001	
 2.38650000000000E+0003	 1.13651147249445E-0001	
 2.38850000000000E+0003	 1.14075637597827E-0001	
 2.39050000000000E+0003	 1.14354627946209E-0001	
 2.39250000000000E+0003	 1.14539618294591E-0001	
 2.39450000000000E+0003	 1.14682108642972E-0001	
 2.39650000000000E+0003	 1.14818098991354E-0001	
 2.39850000000000E+0003	 1.14956589339736E-0001	
 2.40050000000000E+0003	 1.15101079688118E-0001	
 2.40250000000000E+0003	 1.15245070036499E-0001	
 2.40450000000000E+0003	 1.15394560384881E-0001	
 2.40650000000000E+0003	 1.15546550733263E-0001	
 2.40850000000000E+0003	 1.15706041081645E-0001	
 2.41050000000000E+0003	 1.15868031430027E-0001	
 2.41250000000000E+0003	 1.16036521778408E-0001	
 2.41450000000000E+0003	 1.16209512126790E-0001	
 2.41650000000000E+0003	 1.16387002475172E-0001	
 2.41850000000000E+0003	 1.16565492823554E-0001	
 2.42050000000000E+0003	 1.16753983171935E-0001	
 2.42250000000000E+0003	 1.16945973520317E-0001	
 2.42450000000000E+0003	 1.17145463868699E-0001	
 2.42650000000000E+0003	 1.17345454217081E-0001	
 2.42850000000000E+0003	 1.17545444565463E-0001	
 2.43050000000000E+0003	 1.17748434913844E-0001	
 2.43250000000000E+0003	 1.17956925262226E-0001	
 2.43450000000000E+0003	 1.18167415610608E-0001	
 2.43650000000000E+0003	 1.18383905958990E-0001	
 2.43850000000000E+0003	 1.18596896307371E-0001	
 2.44050000000000E+0003	 1.18811886655753E-0001	
 2.44250000000000E+0003	 1.19026377004135E-0001	
 2.44450000000000E+0003	 1.19238867352517E-0001	
 2.44650000000000E+0003	 1.19447857700899E-0001	
 2.44850000000000E+0003	 1.19661348049280E-0001	
 2.45050000000000E+0003	 1.19874338397662E-0001	
 2.45250000000000E+0003	 1.20092828746044E-0001	
 2.45450000000000E+0003	 1.20311819094426E-0001	
 2.45650000000000E+0003	 1.20537309442807E-0001	
 2.45850000000000E+0003	 1.20762299791189E-0001	
 2.46050000000000E+0003	 1.20993290139571E-0001	
 2.46250000000000E+0003	 1.21227280487953E-0001	
 2.46450000000000E+0003	 1.21464770836335E-0001	
 2.46650000000000E+0003	 1.21701261184716E-0001	
 2.46850000000000E+0003	 1.21942251533098E-0001	
 2.47050000000000E+0003	 1.22181241881480E-0001	
 2.47250000000000E+0003	 1.22423732229862E-0001	
 2.47450000000000E+0003	 1.22667222578243E-0001	
 2.47650000000000E+0003	 1.22913712926625E-0001	
 2.47850000000000E+0003	 1.23157703275007E-0001	
 2.48050000000000E+0003	 1.23398693623389E-0001	
 2.48250000000000E+0003	 1.23637183971771E-0001	
 2.48450000000000E+0003	 1.23877674320152E-0001	
 2.48650000000000E+0003	 1.24112164668534E-0001	
 2.48850000000000E+0003	 1.24345655016916E-0001	
 2.49050000000000E+0003	 1.24576645365298E-0001	
 2.49250000000000E+0003	 1.24807635713679E-0001	
 2.49450000000000E+0003	 1.25039126062061E-0001	
 2.49650000000000E+0003	 1.25271116410443E-0001	
 2.49850000000000E+0003	 1.25497106758825E-0001	
 2.50050000000000E+0003	 1.25721597107207E-0001	
 2.50250000000000E+0003	 1.25945087455588E-0001	
 2.50450000000000E+0003	 1.26170577803970E-0001	
 2.50650000000000E+0003	 1.26390568152352E-0001	
 2.50850000000000E+0003	 1.26610558500734E-0001	
 2.51050000000000E+0003	 1.26828048849115E-0001	
 2.51250000000000E+0003	 1.27045539197497E-0001	
 2.51450000000000E+0003	 1.27256029545879E-0001	
 2.51650000000000E+0003	 1.27467019894261E-0001	
 2.51850000000000E+0003	 1.27674510242643E-0001	
 2.52050000000000E+0003	 1.27882000591024E-0001	
 2.52250000000000E+0003	 1.28084490939406E-0001	
 2.52450000000000E+0003	 1.28287981287788E-0001	
 2.52650000000000E+0003	 1.28491971636170E-0001	
 2.52850000000000E+0003	 1.28699961984551E-0001	
 2.53050000000000E+0003	 1.28906952332933E-0001	
 2.53250000000000E+0003	 1.29118942681315E-0001	
 2.53450000000000E+0003	 1.29329433029697E-0001	
 2.53650000000000E+0003	 1.29539923378079E-0001	
 2.53850000000000E+0003	 1.29749413726460E-0001	
 2.54050000000000E+0003	 1.29963904074842E-0001	
 2.54250000000000E+0003	 1.30178894423224E-0001	
 2.54450000000000E+0003	 1.30392884771606E-0001	
 2.54650000000000E+0003	 1.30602875119987E-0001	
 2.54850000000000E+0003	 1.30816365468369E-0001	
 2.55050000000000E+0003	 1.31032855816751E-0001	
 2.55250000000000E+0003	 1.31251346165133E-0001	
 2.55450000000000E+0003	 1.31467836513514E-0001	
 2.55650000000000E+0003	 1.31687826861896E-0001	
 2.55850000000000E+0003	 1.31907817210278E-0001	
 2.56050000000000E+0003	 1.32132307558660E-0001	
 2.56250000000000E+0003	 1.32354797907042E-0001	
 2.56450000000000E+0003	 1.32577288255423E-0001	
 2.56650000000000E+0003	 1.32800778603805E-0001	
 2.56850000000000E+0003	 1.33030768952187E-0001	
 2.57050000000000E+0003	 1.33266259300569E-0001	
 2.57250000000000E+0003	 1.33510249648950E-0001	
 2.57450000000000E+0003	 1.33757239997332E-0001	
 2.57650000000000E+0003	 1.34009230345714E-0001	
 2.57850000000000E+0003	 1.34266720694096E-0001	
 2.58050000000000E+0003	 1.34533211042478E-0001	
 2.58250000000000E+0003	 1.34805201390859E-0001	
 2.58450000000000E+0003	 1.35085191739241E-0001	
 2.58650000000000E+0003	 1.35366682087623E-0001	
 2.58850000000000E+0003	 1.35654672436005E-0001	
 2.59050000000000E+0003	 1.35953162784386E-0001	
 2.59250000000000E+0003	 1.36259653132768E-0001	
 2.59450000000000E+0003	 1.36567143481150E-0001	
 2.59650000000000E+0003	 1.36882133829532E-0001	
 2.59850000000000E+0003	 1.37201624177914E-0001	
 2.60050000000000E+0003	 1.37526614526295E-0001	
 2.60250000000000E+0003	 1.37854604874677E-0001	
 2.60450000000000E+0003	 1.38188595223059E-0001	
 2.60650000000000E+0003	 1.38523085571441E-0001	
 2.60850000000000E+0003	 1.38864575919822E-0001	
 2.61050000000000E+0003	 1.39209566268204E-0001	
 2.61250000000000E+0003	 1.39556056616586E-0001	
 2.61450000000000E+0003	 1.39902046964968E-0001	
 2.61650000000000E+0003	 1.40256037313350E-0001	
 2.61850000000000E+0003	 1.40613527661731E-0001	
 2.62050000000000E+0003	 1.40974018010113E-0001	
 2.62250000000000E+0003	 1.41337008358495E-0001	
 2.62450000000000E+0003	 1.41705498706877E-0001	
 2.62650000000000E+0003	 1.42076489055258E-0001	
 2.62850000000000E+0003	 1.42449979403640E-0001	
 2.63050000000000E+0003	 1.42827469752022E-0001	
 2.63250000000000E+0003	 1.43207960100404E-0001	
 2.63450000000000E+0003	 1.43589950448786E-0001	
 2.63650000000000E+0003	 1.43975440797167E-0001	
 2.63850000000000E+0003	 1.44360931145549E-0001	
 2.64050000000000E+0003	 1.44745921493931E-0001	
 2.64250000000000E+0003	 1.45131911842313E-0001	
 2.64450000000000E+0003	 1.45525402190694E-0001	
 2.64650000000000E+0003	 1.45918892539076E-0001	
 2.64850000000000E+0003	 1.46311382887458E-0001	
 2.65050000000000E+0003	 1.46705873235840E-0001	
 2.65250000000000E+0003	 1.47102863584222E-0001	
 2.65450000000000E+0003	 1.47498353932603E-0001	
 2.65650000000000E+0003	 1.47897344280985E-0001	
 2.65850000000000E+0003	 1.48295334629367E-0001	
 2.66050000000000E+0003	 1.48694324977749E-0001	
 2.66250000000000E+0003	 1.49090315326130E-0001	
 2.66450000000000E+0003	 1.49489305674512E-0001	
 2.66650000000000E+0003	 1.49890796022894E-0001	
 2.66850000000000E+0003	 1.50291286371276E-0001	
 2.67050000000000E+0003	 1.50689776719658E-0001	
 2.67250000000000E+0003	 1.51089267068039E-0001	
 2.67450000000000E+0003	 1.51482757416421E-0001	
 2.67650000000000E+0003	 1.51875247764803E-0001	
 2.67850000000000E+0003	 1.52266738113185E-0001	
 2.68050000000000E+0003	 1.52655728461566E-0001	
 2.68250000000000E+0003	 1.53039218809948E-0001	
 2.68450000000000E+0003	 1.53417709158330E-0001	
 2.68650000000000E+0003	 1.53792699506712E-0001	
 2.68850000000000E+0003	 1.54167689855094E-0001	
 2.69050000000000E+0003	 1.54544680203475E-0001	
 2.69250000000000E+0003	 1.54922670551857E-0001	
 2.69450000000000E+0003	 1.55298660900239E-0001	
 2.69650000000000E+0003	 1.55681651248621E-0001	
 2.69850000000000E+0003	 1.56071141597002E-0001	
 2.70050000000000E+0003	 1.56465631945384E-0001	
 2.70250000000000E+0003	 1.56864622293766E-0001	
 2.70450000000000E+0003	 1.57274612642148E-0001	
 2.70650000000000E+0003	 1.57695102990530E-0001	
 2.70850000000000E+0003	 1.58124093338911E-0001	
 2.71050000000000E+0003	 1.58565083687293E-0001	
 2.71250000000000E+0003	 1.59019574035675E-0001	
 2.71450000000000E+0003	 1.59484064384057E-0001	
 2.71650000000000E+0003	 1.59956054732438E-0001	
 2.71850000000000E+0003	 1.60431045080820E-0001	
 2.72050000000000E+0003	 1.60912035429202E-0001	
 2.72250000000000E+0003	 1.61397525777584E-0001	
 2.72450000000000E+0003	 1.61883516125966E-0001	
 2.72650000000000E+0003	 1.62373506474347E-0001	
 2.72850000000000E+0003	 1.62855996822729E-0001	
 2.73050000000000E+0003	 1.63325487171111E-0001	
 2.73250000000000E+0003	 1.63790977519493E-0001	
 2.73450000000000E+0003	 1.64246967867874E-0001	
 2.73650000000000E+0003	 1.64699958216256E-0001	
 2.73850000000000E+0003	 1.65146948564638E-0001	
 2.74050000000000E+0003	 1.65586938913020E-0001	
 2.74250000000000E+0003	 1.66022429261402E-0001	
 2.74450000000000E+0003	 1.66455919609783E-0001	
 2.74650000000000E+0003	 1.66889909958165E-0001	
 2.74850000000000E+0003	 1.67327900306547E-0001	
 2.75050000000000E+0003	 1.67762390654929E-0001	
 2.75250000000000E+0003	 1.68200381003310E-0001	
 2.75450000000000E+0003	 1.68645371351692E-0001	
 2.75650000000000E+0003	 1.69103361700074E-0001	
 2.75850000000000E+0003	 1.69569352048456E-0001	
 2.76050000000000E+0003	 1.70044342396838E-0001	
 2.76250000000000E+0003	 1.70528332745219E-0001	
 2.76450000000000E+0003	 1.71022323093601E-0001	
 2.76650000000000E+0003	 1.71518313441983E-0001	
 2.76850000000000E+0003	 1.72023803790365E-0001	
 2.77050000000000E+0003	 1.72535294138746E-0001	
 2.77250000000000E+0003	 1.73057284487128E-0001	
 2.77450000000000E+0003	 1.73599774835510E-0001	
 2.77650000000000E+0003	 1.74150765183892E-0001	
 2.77850000000000E+0003	 1.74697255532274E-0001	
 2.78050000000000E+0003	 1.75261745880655E-0001	
 2.78250000000000E+0003	 1.75845236229037E-0001	
 2.78450000000000E+0003	 1.76440726577419E-0001	
 2.78650000000000E+0003	 1.77048216925801E-0001	
 2.78850000000000E+0003	 1.77683207274182E-0001	
 2.79050000000000E+0003	 1.78331197622564E-0001	
 2.79250000000000E+0003	 1.78980187970946E-0001	
 2.79450000000000E+0003	 1.79635178319328E-0001	
 2.79650000000000E+0003	 1.80310168667710E-0001	
 2.79850000000000E+0003	 1.81009159016091E-0001	
 2.80050000000000E+0003	 1.81714149364473E-0001	
 2.80250000000000E+0003	 1.82421639712855E-0001	
 2.80450000000000E+0003	 1.83149630061237E-0001	
 2.80650000000000E+0003	 1.83888620409618E-0001	
 2.80850000000000E+0003	 1.84648610758000E-0001	
 2.81050000000000E+0003	 1.85434601106382E-0001	
 2.81250000000000E+0003	 1.86230591454764E-0001	
 2.81450000000000E+0003	 1.87033581803146E-0001	
 2.81650000000000E+0003	 1.87862072151527E-0001	
 2.81850000000000E+0003	 1.88716062499909E-0001	
 2.82050000000000E+0003	 1.89597052848291E-0001	
 2.82250000000000E+0003	 1.90504043196673E-0001	
 2.82450000000000E+0003	 1.91445033545054E-0001	
 2.82650000000000E+0003	 1.92419023893436E-0001	
 2.82850000000000E+0003	 1.93433014241818E-0001	
 2.83050000000000E+0003	 1.94502004590200E-0001	
 2.83250000000000E+0003	 1.95647494938581E-0001	
 2.83450000000000E+0003	 1.96883485286963E-0001	
 2.83650000000000E+0003	 1.98249475635345E-0001	
 2.83850000000000E+0003	 1.99810465983727E-0001	
 2.84050000000000E+0003	 2.01606956332109E-0001	
 2.84250000000000E+0003	 2.03732446680490E-0001	
 2.84450000000000E+0003	 2.06324937028872E-0001	
 2.84650000000000E+0003	 2.09402927377254E-0001	
 2.84850000000000E+0003	 2.12823417725636E-0001	
 2.85050000000000E+0003	 2.16220908074017E-0001	
 2.85250000000000E+0003	 2.19109398422399E-0001	
 2.85450000000000E+0003	 2.21113888770781E-0001	
 2.85650000000000E+0003	 2.22268379119163E-0001	
 2.85850000000000E+0003	 2.22964369467545E-0001	
 2.86050000000000E+0003	 2.23628859815926E-0001	
 2.86250000000000E+0003	 2.24533350164308E-0001	
 2.86450000000000E+0003	 2.25836340512690E-0001	
 2.86650000000000E+0003	 2.27538330861072E-0001	
 2.86850000000000E+0003	 2.29497321209453E-0001	
 2.87050000000000E+0003	 2.31503811557835E-0001	
 2.87250000000000E+0003	 2.33326801906217E-0001	
 2.87450000000000E+0003	 2.34686292254599E-0001	
 2.87650000000000E+0003	 2.35488282602981E-0001	
 2.87850000000000E+0003	 2.35918772951362E-0001	
 2.88050000000000E+0003	 2.36182263299744E-0001	
 2.88250000000000E+0003	 2.36421753648126E-0001	
 2.88450000000000E+0003	 2.36756743996508E-0001	
 2.88650000000000E+0003	 2.37255734344889E-0001	
 2.88850000000000E+0003	 2.37940224693271E-0001	
 2.89050000000000E+0003	 2.38796715041653E-0001	
 2.89250000000000E+0003	 2.39812205390035E-0001	
 2.89450000000000E+0003	 2.40976195738417E-0001	
 2.89650000000000E+0003	 2.42263686086798E-0001	
 2.89850000000000E+0003	 2.43638676435180E-0001	
 2.90050000000000E+0003	 2.45135166783562E-0001	
 2.90250000000000E+0003	 2.46802657131944E-0001	
 2.90450000000000E+0003	 2.48678147480325E-0001	
 2.90650000000000E+0003	 2.50789637828707E-0001	
 2.90850000000000E+0003	 2.53189128177089E-0001	
 2.91050000000000E+0003	 2.55925118525471E-0001	
 2.91250000000000E+0003	 2.59026608873853E-0001	
 2.91450000000000E+0003	 2.62412599222234E-0001	
 2.91650000000000E+0003	 2.65948589570616E-0001	
 2.91850000000000E+0003	 2.69493079918998E-0001	
 2.92050000000000E+0003	 2.72794570267380E-0001	
 2.92250000000000E+0003	 2.75582060615761E-0001	
 2.92450000000000E+0003	 2.77680550964143E-0001	
 2.92650000000000E+0003	 2.79076041312525E-0001	
 2.92850000000000E+0003	 2.79888531660907E-0001	
 2.93050000000000E+0003	 2.80164522009289E-0001	
 2.93250000000000E+0003	 2.79882012357670E-0001	
 2.93450000000000E+0003	 2.79076502706052E-0001	
 2.93650000000000E+0003	 2.77732493054434E-0001	
 2.93850000000000E+0003	 2.75855483402816E-0001	
 2.94050000000000E+0003	 2.73583973751197E-0001	
 2.94250000000000E+0003	 2.71162964099579E-0001	
 2.94450000000000E+0003	 2.68817454447961E-0001	
 2.94650000000000E+0003	 2.66723444796343E-0001	
 2.94850000000000E+0003	 2.65074435144725E-0001	
 2.95050000000000E+0003	 2.64040425493106E-0001	
 2.95250000000000E+0003	 2.63633415841488E-0001	
 2.95450000000000E+0003	 2.63607906189870E-0001	
 2.95650000000000E+0003	 2.63708396538252E-0001	
 2.95850000000000E+0003	 2.63703886886633E-0001	
 2.96050000000000E+0003	 2.63386877235015E-0001	
 2.96250000000000E+0003	 2.62614867583397E-0001	
 2.96450000000000E+0003	 2.61317357931779E-0001	
 2.96650000000000E+0003	 2.59514848280161E-0001	
 2.96850000000000E+0003	 2.57308338628542E-0001	
 2.97050000000000E+0003	 2.54980328976924E-0001	
 2.97250000000000E+0003	 2.52812819325306E-0001	
 2.97450000000000E+0003	 2.50740809673688E-0001	
 2.97650000000000E+0003	 2.48644800022069E-0001	
 2.97850000000000E+0003	 2.46582790370451E-0001	
 2.98050000000000E+0003	 2.44608280718833E-0001	
 2.98250000000000E+0003	 2.42703771067215E-0001	
 2.98450000000000E+0003	 2.40913261415597E-0001	
 2.98650000000000E+0003	 2.39296751763978E-0001	
 2.98850000000000E+0003	 2.37874742112360E-0001	
 2.99050000000000E+0003	 2.36664732460742E-0001	
 2.99250000000000E+0003	 2.35660722809124E-0001	
 2.99450000000000E+0003	 2.34813713157505E-0001	
 2.99650000000000E+0003	 2.34203203505887E-0001	
 2.99850000000000E+0003	 2.33851693854269E-0001	
 3.00050000000000E+0003	 2.33701184202651E-0001	
 3.00250000000000E+0003	 2.33766174551033E-0001	
 3.00450000000000E+0003	 2.34027164899414E-0001	
 3.00650000000000E+0003	 2.34424655247796E-0001	
 3.00850000000000E+0003	 2.34964145596178E-0001	
 3.01050000000000E+0003	 2.35672135944560E-0001	
 3.01250000000000E+0003	 2.36499626292941E-0001	
 3.01450000000000E+0003	 2.37370616641323E-0001	
 3.01650000000000E+0003	 2.38305106989705E-0001	
 3.01850000000000E+0003	 2.39387597338087E-0001	
 3.02050000000000E+0003	 2.40608587686469E-0001	
 3.02250000000000E+0003	 2.41913078034850E-0001	
 3.02450000000000E+0003	 2.43314568383232E-0001	
 3.02650000000000E+0003	 2.44758558731614E-0001	
 3.02850000000000E+0003	 2.46219549079996E-0001	
 3.03050000000000E+0003	 2.47709039428377E-0001	
 3.03250000000000E+0003	 2.49223529776759E-0001	
 3.03450000000000E+0003	 2.50769520125141E-0001	
 3.03650000000000E+0003	 2.52310510473523E-0001	
 3.03850000000000E+0003	 2.53866500821905E-0001	
 3.04050000000000E+0003	 2.55504991170286E-0001	
 3.04250000000000E+0003	 2.57182481518668E-0001	
 3.04450000000000E+0003	 2.58836471867050E-0001	
 3.04650000000000E+0003	 2.60478462215432E-0001	
 3.04850000000000E+0003	 2.62147952563813E-0001	
 3.05050000000000E+0003	 2.63875442912195E-0001	
 3.05250000000000E+0003	 2.65604433260577E-0001	
 3.05450000000000E+0003	 2.67306423608959E-0001	
 3.05650000000000E+0003	 2.68999413957341E-0001	
 3.05850000000000E+0003	 2.70646404305722E-0001	
 3.06050000000000E+0003	 2.72223394654104E-0001	
 3.06250000000000E+0003	 2.73721385002486E-0001	
 3.06450000000000E+0003	 2.75148875350868E-0001	
 3.06650000000000E+0003	 2.76528865699249E-0001	
 3.06850000000000E+0003	 2.77855856047631E-0001	
 3.07050000000000E+0003	 2.79103846396013E-0001	
 3.07250000000000E+0003	 2.80312836744395E-0001	
 3.07450000000000E+0003	 2.81499827092777E-0001	
 3.07650000000000E+0003	 2.82690317441158E-0001	
 3.07850000000000E+0003	 2.83885807789540E-0001	
 3.08050000000000E+0003	 2.85042798137922E-0001	
 3.08250000000000E+0003	 2.86155288486304E-0001	
 3.08450000000000E+0003	 2.87260278834685E-0001	
 3.08650000000000E+0003	 2.88332269183067E-0001	
 3.08850000000000E+0003	 2.89379759531449E-0001	
 3.09050000000000E+0003	 2.90421249879831E-0001	
 3.09250000000000E+0003	 2.91428240228212E-0001	
 3.09450000000000E+0003	 2.92405730576594E-0001	
 3.09650000000000E+0003	 2.93401720924976E-0001	
 3.09850000000000E+0003	 2.94426711273358E-0001	
 3.10050000000000E+0003	 2.95481201621740E-0001	
 3.10250000000000E+0003	 2.96546691970121E-0001	
 3.10450000000000E+0003	 2.97633182318503E-0001	
 3.10650000000000E+0003	 2.98774172666885E-0001	
 3.10850000000000E+0003	 2.99985663015267E-0001	
 3.11050000000000E+0003	 3.01214153363648E-0001	
 3.11250000000000E+0003	 3.02467143712030E-0001	
 3.11450000000000E+0003	 3.03829134060412E-0001	
 3.11650000000000E+0003	 3.05291124408794E-0001	
 3.11850000000000E+0003	 3.06782614757176E-0001	
 3.12050000000000E+0003	 3.08290105105557E-0001	
 3.12250000000000E+0003	 3.09798595453939E-0001	
 3.12450000000000E+0003	 3.11368585802321E-0001	
 3.12650000000000E+0003	 3.13040576150703E-0001	
 3.12850000000000E+0003	 3.14791566499084E-0001	
 3.13050000000000E+0003	 3.16581556847466E-0001	
 3.13250000000000E+0003	 3.18392047195848E-0001	
 3.13450000000000E+0003	 3.20254537544230E-0001	
 3.13650000000000E+0003	 3.22199027892612E-0001	
 3.13850000000000E+0003	 3.24219518240993E-0001	
 3.14050000000000E+0003	 3.26236008589375E-0001	
 3.14250000000000E+0003	 3.28233998937757E-0001	
 3.14450000000000E+0003	 3.30301489286139E-0001	
 3.14650000000000E+0003	 3.32444479634520E-0001	
 3.14850000000000E+0003	 3.34651969982902E-0001	
 3.15050000000000E+0003	 3.36967960331284E-0001	
 3.15250000000000E+0003	 3.39332450679666E-0001	
 3.15450000000000E+0003	 3.41609941028048E-0001	
 3.15650000000000E+0003	 3.43888931376429E-0001	
 3.15850000000000E+0003	 3.46259921724811E-0001	
 3.16050000000000E+0003	 3.48692912073193E-0001	
 3.16250000000000E+0003	 3.51154402421575E-0001	
 3.16450000000000E+0003	 3.53646892769956E-0001	
 3.16650000000000E+0003	 3.56165383118338E-0001	
 3.16850000000000E+0003	 3.58699373466720E-0001	
 3.17050000000000E+0003	 3.61241363815102E-0001	
 3.17250000000000E+0003	 3.63794854163484E-0001	
 3.17450000000000E+0003	 3.66347844511865E-0001	
 3.17650000000000E+0003	 3.68893834860247E-0001	
 3.17850000000000E+0003	 3.71436825208629E-0001	
 3.18050000000000E+0003	 3.73981315557011E-0001	
 3.18250000000000E+0003	 3.76508805905392E-0001	
 3.18450000000000E+0003	 3.79017296253774E-0001	
 3.18650000000000E+0003	 3.81510786602156E-0001	
 3.18850000000000E+0003	 3.83985776950538E-0001	
 3.19050000000000E+0003	 3.86418267298920E-0001	
 3.19250000000000E+0003	 3.88816257647301E-0001	
 3.19450000000000E+0003	 3.91182247995683E-0001	
 3.19650000000000E+0003	 3.93514738344065E-0001	
 3.19850000000000E+0003	 3.95822728692447E-0001	
 3.20050000000000E+0003	 3.98114719040828E-0001	
 3.20250000000000E+0003	 4.00373209389210E-0001	
 3.20450000000000E+0003	 4.02596699737592E-0001	
 3.20650000000000E+0003	 4.04793690085974E-0001	
 3.20850000000000E+0003	 4.06967680434356E-0001	
 3.21050000000000E+0003	 4.09124170782737E-0001	
 3.21250000000000E+0003	 4.11285661131119E-0001	
 3.21450000000000E+0003	 4.13444151479501E-0001	
 3.21650000000000E+0003	 4.15598641827883E-0001	
 3.21850000000000E+0003	 4.17749632176264E-0001	
 3.22050000000000E+0003	 4.19908122524646E-0001	
 3.22250000000000E+0003	 4.22075112873028E-0001	
 3.22450000000000E+0003	 4.24256603221410E-0001	
 3.22650000000000E+0003	 4.26451093569792E-0001	
 3.22850000000000E+0003	 4.28686083918173E-0001	
 3.23050000000000E+0003	 4.31012574266555E-0001	
 3.23250000000000E+0003	 4.33438064614937E-0001	
 3.23450000000000E+0003	 4.35801554963319E-0001	
 3.23650000000000E+0003	 4.38103545311700E-0001	
 3.23850000000000E+0003	 4.40500535660082E-0001	
 3.24050000000000E+0003	 4.43008026008464E-0001	
 3.24250000000000E+0003	 4.45574516356846E-0001	
 3.24450000000000E+0003	 4.48231506705228E-0001	
 3.24650000000000E+0003	 4.50974997053609E-0001	
 3.24850000000000E+0003	 4.53714487401991E-0001	
 3.25050000000000E+0003	 4.56455477750373E-0001	
 3.25250000000000E+0003	 4.59283968098755E-0001	
 3.25450000000000E+0003	 4.62188458447136E-0001	
 3.25650000000000E+0003	 4.65117948795518E-0001	
 3.25850000000000E+0003	 4.68036439143900E-0001	
 3.26050000000000E+0003	 4.70967429492282E-0001	
 3.26250000000000E+0003	 4.73898919840664E-0001	
 3.26450000000000E+0003	 4.76813910189045E-0001	
 3.26650000000000E+0003	 4.79698400537427E-0001	
 3.26850000000000E+0003	 4.82561890885809E-0001	
 3.27050000000000E+0003	 4.85355381234191E-0001	
 3.27250000000000E+0003	 4.87981871582572E-0001	
 3.27450000000000E+0003	 4.90461361930954E-0001	
 3.27650000000000E+0003	 4.92860852279336E-0001	
 3.27850000000000E+0003	 4.95141342627718E-0001	
 3.28050000000000E+0003	 4.97301832976100E-0001	
 3.28250000000000E+0003	 4.99336323324481E-0001	
 3.28450000000000E+0003	 5.01237313672863E-0001	
 3.28650000000000E+0003	 5.02985804021245E-0001	
 3.28850000000000E+0003	 5.04603794369627E-0001	
 3.29050000000000E+0003	 5.06114284718008E-0001	
 3.29250000000000E+0003	 5.07498775066390E-0001	
 3.29450000000000E+0003	 5.08717765414772E-0001	
 3.29650000000000E+0003	 5.09807755763154E-0001	
 3.29850000000000E+0003	 5.10774246111536E-0001	
 3.30050000000000E+0003	 5.11640736459917E-0001	
 3.30250000000000E+0003	 5.12444726808299E-0001	
 3.30450000000000E+0003	 5.13225217156681E-0001	
 3.30650000000000E+0003	 5.13901207505063E-0001	
 3.30850000000000E+0003	 5.14426197853444E-0001	
 3.31050000000000E+0003	 5.14858188201826E-0001	
 3.31250000000000E+0003	 5.15265178550208E-0001	
 3.31450000000000E+0003	 5.15655668898590E-0001	
 3.31650000000000E+0003	 5.16032659246972E-0001	
 3.31850000000000E+0003	 5.16388649595353E-0001	
 3.32050000000000E+0003	 5.16743639943735E-0001	
 3.32250000000000E+0003	 5.17098630292117E-0001	
 3.32450000000000E+0003	 5.17477120640499E-0001	
 3.32650000000000E+0003	 5.17842110988880E-0001	
 3.32850000000000E+0003	 5.18178101337262E-0001	
 3.33050000000000E+0003	 5.18524091685644E-0001	
 3.33250000000000E+0003	 5.18907582034026E-0001	
 3.33450000000000E+0003	 5.19310072382408E-0001	
 3.33650000000000E+0003	 5.19753062730789E-0001	
 3.33850000000000E+0003	 5.20201553079171E-0001	
 3.34050000000000E+0003	 5.20607043427553E-0001	
 3.34250000000000E+0003	 5.20996533775935E-0001	
 3.34450000000000E+0003	 5.21401024124316E-0001	
 3.34650000000000E+0003	 5.21805014472698E-0001	
 3.34850000000000E+0003	 5.22279004821080E-0001	
 3.35050000000000E+0003	 5.22770995169462E-0001	
 3.35250000000000E+0003	 5.23159985517844E-0001	
 3.35450000000000E+0003	 5.23499475866225E-0001	
 3.35650000000000E+0003	 5.23891966214607E-0001	
 3.35850000000000E+0003	 5.24322956562989E-0001	
 3.36050000000000E+0003	 5.24762946911371E-0001	
 3.36250000000000E+0003	 5.25171937259752E-0001	
 3.36450000000000E+0003	 5.25621927608134E-0001	
 3.36650000000000E+0003	 5.26154417956516E-0001	
 3.36850000000000E+0003	 5.26665908304898E-0001	
 3.37050000000000E+0003	 5.26985398653279E-0001	
 3.37250000000000E+0003	 5.27178889001661E-0001	
 3.37450000000000E+0003	 5.27444379350043E-0001	
 3.37650000000000E+0003	 5.27786869698425E-0001	
 3.37850000000000E+0003	 5.28100360046807E-0001	
 3.38050000000000E+0003	 5.28386850395188E-0001	
 3.38250000000000E+0003	 5.28642340743570E-0001	
 3.38450000000000E+0003	 5.28885831091952E-0001	
 3.38650000000000E+0003	 5.29136321440334E-0001	
 3.38850000000000E+0003	 5.29482811788715E-0001	
 3.39050000000000E+0003	 5.29914802137097E-0001	
 3.39250000000000E+0003	 5.30156292485479E-0001	
 3.39450000000000E+0003	 5.30145782833861E-0001	
 3.39650000000000E+0003	 5.30222273182243E-0001	
 3.39850000000000E+0003	 5.30559763530624E-0001	
 3.40050000000000E+0003	 5.30872253879006E-0001	
 3.40250000000000E+0003	 5.30768744227388E-0001	
 3.40450000000000E+0003	 5.30495734575770E-0001	
 3.40650000000000E+0003	 5.30399224924151E-0001	
 3.40850000000000E+0003	 5.30414215272533E-0001	
 3.41050000000000E+0003	 5.30359705620915E-0001	
 3.41250000000000E+0003	 5.30218695969297E-0001	
 3.41450000000000E+0003	 5.29941186317679E-0001	
 3.41650000000000E+0003	 5.29591676666060E-0001	
 3.41850000000000E+0003	 5.29259167014442E-0001	
 3.42050000000000E+0003	 5.28904657362824E-0001	
 3.42250000000000E+0003	 5.28449647711206E-0001	
 3.42450000000000E+0003	 5.27960638059587E-0001	
 3.42650000000000E+0003	 5.27496128407969E-0001	
 3.42850000000000E+0003	 5.27035118756351E-0001	
 3.43050000000000E+0003	 5.26438609104733E-0001	
 3.43250000000000E+0003	 5.25774599453115E-0001	
 3.43450000000000E+0003	 5.25147089801496E-0001	
 3.43650000000000E+0003	 5.24335580149878E-0001	
 3.43850000000000E+0003	 5.23209070498260E-0001	
 3.44050000000000E+0003	 5.22012060846642E-0001	
 3.44250000000000E+0003	 5.20907051195023E-0001	
 3.44450000000000E+0003	 5.19854541543405E-0001	
 3.44650000000000E+0003	 5.18751031891787E-0001	
 3.44850000000000E+0003	 5.17558022240169E-0001	
 3.45050000000000E+0003	 5.16303012588551E-0001	
 3.45250000000000E+0003	 5.15027002936932E-0001	
 3.45450000000000E+0003	 5.13701493285314E-0001	
 3.45650000000000E+0003	 5.12363483633696E-0001	
 3.45850000000000E+0003	 5.11038973982078E-0001	
 3.46050000000000E+0003	 5.09615964330459E-0001	
 3.46250000000000E+0003	 5.08046954678841E-0001	
 3.46450000000000E+0003	 5.06595445027223E-0001	
 3.46650000000000E+0003	 5.05309435375605E-0001	
 3.46850000000000E+0003	 5.03808925723987E-0001	
 3.47050000000000E+0003	 5.01832416072368E-0001	
 3.47250000000000E+0003	 4.99722406420750E-0001	
 3.47450000000000E+0003	 4.97794896769132E-0001	
 3.47650000000000E+0003	 4.96041887117514E-0001	
 3.47850000000000E+0003	 4.94368377465895E-0001	
 3.48050000000000E+0003	 4.92487367814277E-0001	
 3.48250000000000E+0003	 4.90355858162659E-0001	
 3.48450000000000E+0003	 4.88343348511041E-0001	
 3.48650000000000E+0003	 4.86410838859423E-0001	
 3.48850000000000E+0003	 4.84345829207804E-0001	
 3.49050000000000E+0003	 4.82228319556186E-0001	
 3.49250000000000E+0003	 4.80177309904568E-0001	
 3.49450000000000E+0003	 4.78138300252950E-0001	
 3.49650000000000E+0003	 4.76059790601331E-0001	
 3.49850000000000E+0003	 4.73908280949713E-0001	
 3.50050000000000E+0003	 4.71793271298095E-0001	
 3.50250000000000E+0003	 4.69625761646477E-0001	
 3.50450000000000E+0003	 4.67197751994859E-0001	
 3.50650000000000E+0003	 4.64733242343240E-0001	
 3.50850000000000E+0003	 4.62395232691622E-0001	
 3.51050000000000E+0003	 4.60126723040004E-0001	
 3.51250000000000E+0003	 4.57933213388386E-0001	
 3.51450000000000E+0003	 4.55624703736767E-0001	
 3.51650000000000E+0003	 4.53150194085149E-0001	
 3.51850000000000E+0003	 4.50681184433531E-0001	
 3.52050000000000E+0003	 4.48321674781913E-0001	
 3.52250000000000E+0003	 4.46028165130295E-0001	
 3.52450000000000E+0003	 4.43549155478676E-0001	
 3.52650000000000E+0003	 4.40850645827058E-0001	
 3.52850000000000E+0003	 4.38194136175440E-0001	
 3.53050000000000E+0003	 4.35613626523822E-0001	
 3.53250000000000E+0003	 4.33085116872203E-0001	
 3.53450000000000E+0003	 4.30621107220585E-0001	
 3.53650000000000E+0003	 4.28057097568967E-0001	
 3.53850000000000E+0003	 4.25272087917349E-0001	
 3.54050000000000E+0003	 4.22560078265731E-0001	
 3.54250000000000E+0003	 4.20011068614112E-0001	
 3.54450000000000E+0003	 4.17335058962494E-0001	
 3.54650000000000E+0003	 4.14294049310876E-0001	
 3.54850000000000E+0003	 4.11163539659258E-0001	
 3.55050000000000E+0003	 4.08212030007639E-0001	
 3.55250000000000E+0003	 4.05246520356021E-0001	
 3.55450000000000E+0003	 4.02212510704403E-0001	
 3.55650000000000E+0003	 3.99232001052785E-0001	
 3.55850000000000E+0003	 3.96258991401167E-0001	
 3.56050000000000E+0003	 3.93242481749548E-0001	
 3.56250000000000E+0003	 3.90143472097930E-0001	
 3.56450000000000E+0003	 3.86940462446312E-0001	
 3.56650000000000E+0003	 3.83618952794694E-0001	
 3.56850000000000E+0003	 3.80347443143075E-0001	
 3.57050000000000E+0003	 3.77217433491457E-0001	
 3.57250000000000E+0003	 3.74041923839839E-0001	
 3.57450000000000E+0003	 3.70767414188221E-0001	
 3.57650000000000E+0003	 3.67488904536603E-0001	
 3.57850000000000E+0003	 3.64219894884984E-0001	
 3.58050000000000E+0003	 3.60972385233366E-0001	
 3.58250000000000E+0003	 3.57782875581748E-0001	
 3.58450000000000E+0003	 3.54597365930130E-0001	
 3.58650000000000E+0003	 3.51092856278511E-0001	
 3.58850000000000E+0003	 3.47285346626893E-0001	
 3.59050000000000E+0003	 3.43736836975275E-0001	
 3.59250000000000E+0003	 3.40439327323657E-0001	
 3.59450000000000E+0003	 3.37029317672039E-0001	
 3.59650000000000E+0003	 3.33607308020420E-0001	
 3.59850000000000E+0003	 3.30261298368802E-0001	
 3.60050000000000E+0003	 3.26853288717184E-0001	
 3.60250000000000E+0003	 3.23434779065566E-0001	
 3.60450000000000E+0003	 3.20066269413947E-0001	
 3.60650000000000E+0003	 3.16599259762329E-0001	
 3.60850000000000E+0003	 3.13035250110711E-0001	
 3.61050000000000E+0003	 3.09568240459093E-0001	
 3.61250000000000E+0003	 3.06239730807475E-0001	
 3.61450000000000E+0003	 3.02985721155856E-0001	
 3.61650000000000E+0003	 2.99857711504238E-0001	
 3.61850000000000E+0003	 2.96742201852620E-0001	
 3.62050000000000E+0003	 2.93343192201002E-0001	
 3.62250000000000E+0003	 2.89805682549383E-0001	
 3.62450000000000E+0003	 2.86513172897765E-0001	
 3.62650000000000E+0003	 2.83325663246147E-0001	
 3.62850000000000E+0003	 2.79915153594529E-0001	
 3.63050000000000E+0003	 2.76463143942910E-0001	
 3.63250000000000E+0003	 2.73381634291292E-0001	
 3.63450000000000E+0003	 2.70456624639674E-0001	
 3.63650000000000E+0003	 2.67480114988056E-0001	
 3.63850000000000E+0003	 2.64532105336438E-0001	
 3.64050000000000E+0003	 2.61603095684819E-0001	
 3.64250000000000E+0003	 2.58734086033201E-0001	
 3.64450000000000E+0003	 2.55956076381583E-0001	
 3.64650000000000E+0003	 2.53228566729965E-0001	
 3.64850000000000E+0003	 2.50453057078346E-0001	
 3.65050000000000E+0003	 2.47681047426728E-0001	
 3.65250000000000E+0003	 2.45021537775110E-0001	
 3.65450000000000E+0003	 2.42521028123492E-0001	
 3.65650000000000E+0003	 2.40080018471874E-0001	
 3.65850000000000E+0003	 2.37706508820255E-0001	
 3.66050000000000E+0003	 2.35426499168637E-0001	
 3.66250000000000E+0003	 2.33100989517019E-0001	
 3.66450000000000E+0003	 2.30860479865401E-0001	
 3.66650000000000E+0003	 2.28811470213782E-0001	
 3.66850000000000E+0003	 2.26811960562164E-0001	
 3.67050000000000E+0003	 2.24846450910546E-0001	
 3.67250000000000E+0003	 2.22953941258928E-0001	
 3.67450000000000E+0003	 2.21153931607310E-0001	
 3.67650000000000E+0003	 2.19368921955691E-0001	
 3.67850000000000E+0003	 2.17705412304073E-0001	
 3.68050000000000E+0003	 2.16212902652455E-0001	
 3.68250000000000E+0003	 2.14776393000837E-0001	
 3.68450000000000E+0003	 2.13500883349218E-0001	
 3.68650000000000E+0003	 2.12362873697600E-0001	
 3.68850000000000E+0003	 2.11251864045982E-0001	
 3.69050000000000E+0003	 2.09908854394364E-0001	
 3.69250000000000E+0003	 2.08529844742746E-0001	
 3.69450000000000E+0003	 2.07415335091127E-0001	
 3.69650000000000E+0003	 2.06456825439509E-0001	
 3.69850000000000E+0003	 2.05526315787891E-0001	
 3.70050000000000E+0003	 2.04636306136273E-0001	
 3.70250000000000E+0003	 2.03778796484654E-0001	
 3.70450000000000E+0003	 2.02901286833036E-0001	
 3.70650000000000E+0003	 2.02051777181418E-0001	
 3.70850000000000E+0003	 2.01220267529800E-0001	
 3.71050000000000E+0003	 2.00452257878182E-0001	
 3.71250000000000E+0003	 1.99866248226563E-0001	
 3.71450000000000E+0003	 1.99346738574945E-0001	
 3.71650000000000E+0003	 1.98829728923327E-0001	
 3.71850000000000E+0003	 1.98273219271709E-0001	
 3.72050000000000E+0003	 1.97639709620090E-0001	
 3.72250000000000E+0003	 1.97026699968472E-0001	
 3.72450000000000E+0003	 1.96415190316854E-0001	
 3.72650000000000E+0003	 1.95851180665236E-0001	
 3.72850000000000E+0003	 1.95377671013618E-0001	
 3.73050000000000E+0003	 1.94967661361999E-0001	
 3.73250000000000E+0003	 1.94596151710381E-0001	
 3.73450000000000E+0003	 1.94093642058763E-0001	
 3.73650000000000E+0003	 1.93574132407145E-0001	
 3.73850000000000E+0003	 1.93150622755526E-0001	
 3.74050000000000E+0003	 1.92816613103908E-0001	
 3.74250000000000E+0003	 1.92361103452290E-0001	
 3.74450000000000E+0003	 1.92046093800672E-0001	
 3.74650000000000E+0003	 1.91759584149054E-0001	
 3.74850000000000E+0003	 1.91301574497435E-0001	
 3.75050000000000E+0003	 1.90957064845817E-0001	
 3.75250000000000E+0003	 1.90773055194199E-0001	
 3.75450000000000E+0003	 1.90531045542581E-0001	
 3.75650000000000E+0003	 1.90237535890962E-0001	
 3.75850000000000E+0003	 1.89942526239344E-0001	
 3.76050000000000E+0003	 1.89688516587726E-0001	
 3.76250000000000E+0003	 1.89379006936108E-0001	
 3.76450000000000E+0003	 1.89088497284490E-0001	
 3.76650000000000E+0003	 1.88844487632871E-0001	
 3.76850000000000E+0003	 1.88546977981253E-0001	
 3.77050000000000E+0003	 1.88307968329635E-0001	
 3.77250000000000E+0003	 1.88073458678017E-0001	
 3.77450000000000E+0003	 1.87817949026398E-0001	
 3.77650000000000E+0003	 1.87552939374780E-0001	
 3.77850000000000E+0003	 1.87330429723162E-0001	
 3.78050000000000E+0003	 1.87150420071544E-0001	
 3.78250000000000E+0003	 1.86876910419926E-0001	
 3.78450000000000E+0003	 1.86624400768307E-0001	
 3.78650000000000E+0003	 1.86425391116689E-0001	
 3.78850000000000E+0003	 1.86231381465071E-0001	
 3.79050000000000E+0003	 1.86031371813453E-0001	
 3.79250000000000E+0003	 1.85804862161834E-0001	
 3.79450000000000E+0003	 1.85523352510216E-0001	
 3.79650000000000E+0003	 1.85362342858598E-0001	
 3.79850000000000E+0003	 1.85210333206980E-0001	
 3.80050000000000E+0003	 1.84969323555362E-0001	
 3.80250000000000E+0003	 1.84834313903743E-0001	
 3.80450000000000E+0003	 1.84614304252125E-0001	
 3.80650000000000E+0003	 1.84427294600507E-0001	
 3.80850000000000E+0003	 1.84311784948889E-0001	
 3.81050000000000E+0003	 1.84169775297270E-0001	
 3.81250000000000E+0003	 1.84015265645652E-0001	
 3.81450000000000E+0003	 1.83800255994034E-0001	
 3.81650000000000E+0003	 1.83705246342416E-0001	
 3.81850000000000E+0003	 1.83560736690798E-0001	
 3.82050000000000E+0003	 1.83429227039179E-0001	
 3.82250000000000E+0003	 1.83349217387561E-0001	
 3.82450000000000E+0003	 1.83130207735943E-0001	
 3.82650000000000E+0003	 1.82977198084325E-0001	
 3.82850000000000E+0003	 1.82856188432706E-0001	
 3.83050000000000E+0003	 1.82723178781088E-0001	
 3.83250000000000E+0003	 1.82682169129470E-0001	
 3.83450000000000E+0003	 1.82690159477852E-0001	
 3.83650000000000E+0003	 1.82620649826234E-0001	
 3.83850000000000E+0003	 1.82452640174615E-0001	
 3.84050000000000E+0003	 1.82272130522997E-0001	
 3.84250000000000E+0003	 1.82123620871379E-0001	
 3.84450000000000E+0003	 1.82037111219761E-0001	
 3.84650000000000E+0003	 1.81914601568142E-0001	
 3.84850000000000E+0003	 1.81819591916524E-0001	
 3.85050000000000E+0003	 1.81742082264906E-0001	
 3.85250000000000E+0003	 1.81751072613288E-0001	
 3.85450000000000E+0003	 1.81882062961670E-0001	
 3.85650000000000E+0003	 1.81696053310051E-0001	
 3.85850000000000E+0003	 1.81424043658433E-0001	
 3.86050000000000E+0003	 1.81279534006815E-0001	
 3.86250000000000E+0003	 1.81237024355197E-0001	
 3.86450000000000E+0003	 1.81262014703578E-0001	
 3.86650000000000E+0003	 1.81212005051960E-0001	
 3.86850000000000E+0003	 1.81081995400342E-0001	
 3.87050000000000E+0003	 1.81088485748724E-0001	
 3.87250000000000E+0003	 1.81016476097106E-0001	
 3.87450000000000E+0003	 1.80953466445487E-0001	
 3.87650000000000E+0003	 1.80858956793869E-0001	
 3.87850000000000E+0003	 1.80724447142251E-0001	
 3.88050000000000E+0003	 1.80766937490633E-0001	
 3.88250000000000E+0003	 1.80775427839014E-0001	
 3.88450000000000E+0003	 1.80684918187396E-0001	
 3.88650000000000E+0003	 1.80688908535778E-0001	
 3.88850000000000E+0003	 1.80612398884160E-0001	
 3.89050000000000E+0003	 1.80600889232542E-0001	
 3.89250000000000E+0003	 1.80641379580923E-0001	
 3.89450000000000E+0003	 1.80541869929305E-0001	
 3.89650000000000E+0003	 1.80416360277687E-0001	
 3.89850000000000E+0003	 1.80383850626069E-0001	
 3.90050000000000E+0003	 1.80366840974450E-0001	
 3.90250000000000E+0003	 1.80376831322832E-0001	
 3.90450000000000E+0003	 1.80510821671214E-0001	
 3.90650000000000E+0003	 1.80518812019596E-0001	
 3.90850000000000E+0003	 1.80386302367977E-0001	
 3.91050000000000E+0003	 1.80311292716359E-0001	
 3.91250000000000E+0003	 1.80292783064741E-0001	
 3.91450000000000E+0003	 1.80255273413123E-0001	
 3.91650000000000E+0003	 1.80244763761505E-0001	
 3.91850000000000E+0003	 1.80281754109886E-0001	
 3.92050000000000E+0003	 1.80311244458268E-0001	
 3.92250000000000E+0003	 1.80302234806650E-0001	
 3.92450000000000E+0003	 1.80335725155032E-0001	
 3.92650000000000E+0003	 1.80351715503413E-0001	
 3.92850000000000E+0003	 1.80287705851795E-0001	
 3.93050000000000E+0003	 1.80238196200177E-0001	
 3.93250000000000E+0003	 1.80257686548559E-0001	
 3.93450000000000E+0003	 1.80280176896941E-0001	
 3.93650000000000E+0003	 1.80254667245322E-0001	
 3.93850000000000E+0003	 1.80231657593704E-0001	
 3.94050000000000E+0003	 1.80216647942086E-0001	
 3.94250000000000E+0003	 1.80251138290468E-0001	
 3.94450000000000E+0003	 1.80244628638849E-0001	
 3.94650000000000E+0003	 1.80170618987231E-0001	
 3.94850000000000E+0003	 1.80166109335613E-0001	
 3.95050000000000E+0003	 1.80202599683995E-0001	
 3.95250000000000E+0003	 1.80185590032377E-0001	
 3.95450000000000E+0003	 1.80146580380758E-0001	
 3.95650000000000E+0003	 1.80129570729140E-0001	
 3.95850000000000E+0003	 1.80117061077522E-0001	
 3.96050000000000E+0003	 1.80098551425904E-0001	
 3.96250000000000E+0003	 1.80095541774285E-0001	
 3.96450000000000E+0003	 1.80090032122667E-0001	
 3.96650000000000E+0003	 1.80074022471049E-0001	
 3.96850000000000E+0003	 1.80065012819431E-0001	
 3.97050000000000E+0003	 1.80063003167813E-0001	
 3.97250000000000E+0003	 1.80054993516194E-0001	
 3.97450000000000E+0003	 1.80049983864576E-0001	
 3.97650000000000E+0003	 1.80050474212958E-0001	
 3.97850000000000E+0003	 1.80041964561340E-0001	
 3.98050000000000E+0003	 1.80030954909721E-0001	
 3.98250000000000E+0003	 1.80040445258103E-0001	
 3.98450000000000E+0003	 1.80046935606485E-0001	
 3.98650000000000E+0003	 1.80026425954867E-0001	
 3.98850000000000E+0003	 1.79998416303249E-0001	
 3.99050000000000E+0003	 1.79995906651630E-0001	
 3.99250000000000E+0003	 1.79995397000012E-0001	
 3.99450000000000E+0003	 1.79991887348394E-0001	
 3.99650000000000E+0003	 1.79985877696776E-0001	
 3.99850000000000E+0003	 1.79946389705882E-0001	

>1	DATALINE
