*CPCWIN*

>1	DATALINE
DATALINE
1
Operator:

Description:

Remarks:





15.9.2008
11:27


_x	_y
	
	
UNIT	UNIT
 4.50500000000000E+0002	 1.53681424923585E-0001	
 4.52500000000000E+0002	 1.54195436885584E-0001	
 4.54500000000000E+0002	 1.54763448847584E-0001	
 4.56500000000000E+0002	 1.55325960809583E-0001	
 4.58500000000000E+0002	 1.56007472771582E-0001	
 4.60500000000000E+0002	 1.56580984733581E-0001	
 4.62500000000000E+0002	 1.57183996695580E-0001	
 4.64500000000000E+0002	 1.57947508657580E-0001	
 4.66500000000000E+0002	 1.58756020619579E-0001	
 4.68500000000000E+0002	 1.59513532581578E-0001	
 4.70500000000000E+0002	 1.60113544543577E-0001	
 4.72500000000000E+0002	 1.60724056505576E-0001	
 4.74500000000000E+0002	 1.61395568467575E-0001	
 4.76500000000000E+0002	 1.62041080429575E-0001	
 4.78500000000000E+0002	 1.62708092391574E-0001	
 4.80500000000000E+0002	 1.63545604353573E-0001	
 4.82500000000000E+0002	 1.64395616315572E-0001	
 4.84500000000000E+0002	 1.65177128277571E-0001	
 4.86500000000000E+0002	 1.65979140239570E-0001	
 4.88500000000000E+0002	 1.66852652201570E-0001	
 4.90500000000000E+0002	 1.67650664163569E-0001	
 4.92500000000000E+0002	 1.68528176125568E-0001	
 4.94500000000000E+0002	 1.69637188087567E-0001	
 4.96500000000000E+0002	 1.70737200049566E-0001	
 4.98500000000000E+0002	 1.71708712011565E-0001	
 5.00500000000000E+0002	 1.72475223973565E-0001	
 5.02500000000000E+0002	 1.73193735935564E-0001	
 5.04500000000000E+0002	 1.74097247897563E-0001	
 5.06500000000000E+0002	 1.74954759859562E-0001	
 5.08500000000000E+0002	 1.75710771821561E-0001	
 5.10500000000000E+0002	 1.76512783783561E-0001	
 5.12500000000000E+0002	 1.77415795745560E-0001	
 5.14500000000000E+0002	 1.78310807707559E-0001	
 5.16500000000000E+0002	 1.79072819669558E-0001	
 5.18500000000000E+0002	 1.79887331631557E-0001	
 5.20500000000000E+0002	 1.80704843593556E-0001	
 5.22500000000000E+0002	 1.81423855555556E-0001	
 5.24500000000000E+0002	 1.81907367517555E-0001	
 5.26500000000000E+0002	 1.82360379479554E-0001	
 5.28500000000000E+0002	 1.82941891441553E-0001	
 5.30500000000000E+0002	 1.83460403403552E-0001	
 5.32500000000000E+0002	 1.83815915365551E-0001	
 5.34500000000000E+0002	 1.83982927327551E-0001	
 5.36500000000000E+0002	 1.84024439289550E-0001	
 5.38500000000000E+0002	 1.83974951251549E-0001	
 5.40500000000000E+0002	 1.83778463213548E-0001	
 5.42500000000000E+0002	 1.83537975175547E-0001	
 5.44500000000000E+0002	 1.83178487137546E-0001	
 5.46500000000000E+0002	 1.82789999099546E-0001	
 5.48500000000000E+0002	 1.82426511061545E-0001	
 5.50500000000000E+0002	 1.82180023023544E-0001	
 5.52500000000000E+0002	 1.81927034985543E-0001	
 5.54500000000000E+0002	 1.81734046947542E-0001	
 5.56500000000000E+0002	 1.81632058909542E-0001	
 5.58500000000000E+0002	 1.81568570871541E-0001	
 5.60500000000000E+0002	 1.81384582833540E-0001	
 5.62500000000000E+0002	 1.81217094795539E-0001	
 5.64500000000000E+0002	 1.81085606757538E-0001	
 5.66500000000000E+0002	 1.80888118719537E-0001	
 5.68500000000000E+0002	 1.80611130681537E-0001	
 5.70500000000000E+0002	 1.80423642643536E-0001	
 5.72500000000000E+0002	 1.80249154605535E-0001	
 5.74500000000000E+0002	 1.79976666567534E-0001	
 5.76500000000000E+0002	 1.79661178529533E-0001	
 5.78500000000000E+0002	 1.79384690491532E-0001	
 5.80500000000000E+0002	 1.78794202453532E-0001	
 5.82500000000000E+0002	 1.78064214415531E-0001	
 5.84500000000000E+0002	 1.77460226377530E-0001	
 5.86500000000000E+0002	 1.77062238339529E-0001	
 5.88500000000000E+0002	 1.76784250301528E-0001	
 5.90500000000000E+0002	 1.76597762263527E-0001	
 5.92500000000000E+0002	 1.76600774225527E-0001	
 5.94500000000000E+0002	 1.76773286187526E-0001	
 5.96500000000000E+0002	 1.76920798149525E-0001	
 5.98500000000000E+0002	 1.76964310111524E-0001	
 6.00500000000000E+0002	 1.76957822073523E-0001	
 6.02500000000000E+0002	 1.77043834035523E-0001	
 6.04500000000000E+0002	 1.77094345997522E-0001	
 6.06500000000000E+0002	 1.77172357959521E-0001	
 6.08500000000000E+0002	 1.77335869921520E-0001	
 6.10500000000000E+0002	 1.77480881883519E-0001	
 6.12500000000000E+0002	 1.77602393845518E-0001	
 6.14500000000000E+0002	 1.77653405807518E-0001	
 6.16500000000000E+0002	 1.77489417769517E-0001	
 6.18500000000000E+0002	 1.77115929731516E-0001	
 6.20500000000000E+0002	 1.76626941693515E-0001	
 6.22500000000000E+0002	 1.76057953655514E-0001	
 6.24500000000000E+0002	 1.75463465617513E-0001	
 6.26500000000000E+0002	 1.74947477579513E-0001	
 6.28500000000000E+0002	 1.74531489541512E-0001	
 6.30500000000000E+0002	 1.74082501503511E-0001	
 6.32500000000000E+0002	 1.73575513465510E-0001	
 6.34500000000000E+0002	 1.73143025427509E-0001	
 6.36500000000000E+0002	 1.72878037389508E-0001	
 6.38500000000000E+0002	 1.72616049351508E-0001	
 6.40500000000000E+0002	 1.72328561313507E-0001	
 6.42500000000000E+0002	 1.71949073275506E-0001	
 6.44500000000000E+0002	 1.71477085237505E-0001	
 6.46500000000000E+0002	 1.70999597199504E-0001	
 6.48500000000000E+0002	 1.70515609161504E-0001	
 6.50500000000000E+0002	 1.69992121123503E-0001	
 6.52500000000000E+0002	 1.69474133085502E-0001	
 6.54500000000000E+0002	 1.69055645047501E-0001	
 6.56500000000000E+0002	 1.68757157009500E-0001	
 6.58500000000000E+0002	 1.68442168971499E-0001	
 6.60500000000000E+0002	 1.68181180933499E-0001	
 6.62500000000000E+0002	 1.67871692895498E-0001	
 6.64500000000000E+0002	 1.67491204857497E-0001	
 6.66500000000000E+0002	 1.66952216819496E-0001	
 6.68500000000000E+0002	 1.66536728781495E-0001	
 6.70500000000000E+0002	 1.66296240743494E-0001	
 6.72500000000000E+0002	 1.65852752705494E-0001	
 6.74500000000000E+0002	 1.65288764667493E-0001	
 6.76500000000000E+0002	 1.64676276629492E-0001	
 6.78500000000000E+0002	 1.64064788591491E-0001	
 6.80500000000000E+0002	 1.63503300553490E-0001	
 6.82500000000000E+0002	 1.63016312515489E-0001	
 6.84500000000000E+0002	 1.62569324477489E-0001	
 6.86500000000000E+0002	 1.62123836439488E-0001	
 6.88500000000000E+0002	 1.61730848401487E-0001	
 6.90500000000000E+0002	 1.61432860363486E-0001	
 6.92500000000000E+0002	 1.61203872325485E-0001	
 6.94500000000000E+0002	 1.61088384287485E-0001	
 6.96500000000000E+0002	 1.61059396249484E-0001	
 6.98500000000000E+0002	 1.61019908211483E-0001	
 7.00500000000000E+0002	 1.60809920173482E-0001	
 7.02500000000000E+0002	 1.60361932135481E-0001	
 7.04500000000000E+0002	 1.59691944097480E-0001	
 7.06500000000000E+0002	 1.58921456059480E-0001	
 7.08500000000000E+0002	 1.58080468021479E-0001	
 7.10500000000000E+0002	 1.57194479983478E-0001	
 7.12500000000000E+0002	 1.56271991945477E-0001	
 7.14500000000000E+0002	 1.55348003907476E-0001	
 7.16500000000000E+0002	 1.54463515869475E-0001	
 7.18500000000000E+0002	 1.53747527831475E-0001	
 7.20500000000000E+0002	 1.53025539793474E-0001	
 7.22500000000000E+0002	 1.52127551755473E-0001	
 7.24500000000000E+0002	 1.51070063717472E-0001	
 7.26500000000000E+0002	 1.49921075679471E-0001	
 7.28500000000000E+0002	 1.48745587641470E-0001	
 7.30500000000000E+0002	 1.47617099603470E-0001	
 7.32500000000000E+0002	 1.46587111565469E-0001	
 7.34500000000000E+0002	 1.45676123527468E-0001	
 7.36500000000000E+0002	 1.44845135489467E-0001	
 7.38500000000000E+0002	 1.44077147451466E-0001	
 7.40500000000000E+0002	 1.43420159413466E-0001	
 7.42500000000000E+0002	 1.42838671375465E-0001	
 7.44500000000000E+0002	 1.42333183337464E-0001	
 7.46500000000000E+0002	 1.41899195299463E-0001	
 7.48500000000000E+0002	 1.41459207261462E-0001	
 7.50500000000000E+0002	 1.40945219223461E-0001	
 7.52500000000000E+0002	 1.40354231185461E-0001	
 7.54500000000000E+0002	 1.39672743147460E-0001	
 7.56500000000000E+0002	 1.38933755109459E-0001	
 7.58500000000000E+0002	 1.38103767071458E-0001	
 7.60500000000000E+0002	 1.37312279033457E-0001	
 7.62500000000000E+0002	 1.36590790995456E-0001	
 7.64500000000000E+0002	 1.35991302957456E-0001	
 7.66500000000000E+0002	 1.35267314919455E-0001	
 7.68500000000000E+0002	 1.34347326881454E-0001	
 7.70500000000000E+0002	 1.33395338843453E-0001	
 7.72500000000000E+0002	 1.32680850805452E-0001	
 7.74500000000000E+0002	 1.32312862767451E-0001	
 7.76500000000000E+0002	 1.32454874729451E-0001	
 7.78500000000000E+0002	 1.32891886691450E-0001	
 7.80500000000000E+0002	 1.32943398653449E-0001	
 7.82500000000000E+0002	 1.32291410615448E-0001	
 7.84500000000000E+0002	 1.31410922577447E-0001	
 7.86500000000000E+0002	 1.30656434539447E-0001	
 7.88500000000000E+0002	 1.30090946501446E-0001	
 7.90500000000000E+0002	 1.29688458463445E-0001	
 7.92500000000000E+0002	 1.29625470425444E-0001	
 7.94500000000000E+0002	 1.29880982387443E-0001	
 7.96500000000000E+0002	 1.30247994349442E-0001	
 7.98500000000000E+0002	 1.30447506311442E-0001	
 8.00500000000000E+0002	 1.30483518273441E-0001	
 8.02500000000000E+0002	 1.30416030235440E-0001	
 8.04500000000000E+0002	 1.30268042197439E-0001	
 8.06500000000000E+0002	 1.29883054159438E-0001	
 8.08500000000000E+0002	 1.29265566121437E-0001	
 8.10500000000000E+0002	 1.28516578083437E-0001	
 8.12500000000000E+0002	 1.27762090045436E-0001	
 8.14500000000000E+0002	 1.27057602007435E-0001	
 8.16500000000000E+0002	 1.26439613969434E-0001	
 8.18500000000000E+0002	 1.25876625931433E-0001	
 8.20500000000000E+0002	 1.25422637893432E-0001	
 8.22500000000000E+0002	 1.25059149855432E-0001	
 8.24500000000000E+0002	 1.24728661817431E-0001	
 8.26500000000000E+0002	 1.24424173779430E-0001	
 8.28500000000000E+0002	 1.24186185741429E-0001	
 8.30500000000000E+0002	 1.23967697703428E-0001	
 8.32500000000000E+0002	 1.23813709665428E-0001	
 8.34500000000000E+0002	 1.23725221627427E-0001	
 8.36500000000000E+0002	 1.23651733589426E-0001	
 8.38500000000000E+0002	 1.23589245551425E-0001	
 8.40500000000000E+0002	 1.23594257513424E-0001	
 8.42500000000000E+0002	 1.23652269475423E-0001	
 8.44500000000000E+0002	 1.23776781437423E-0001	
 8.46500000000000E+0002	 1.24008293399422E-0001	
 8.48500000000000E+0002	 1.24392805361421E-0001	
 8.50500000000000E+0002	 1.24864317323420E-0001	
 8.52500000000000E+0002	 1.25466829285419E-0001	
 8.54500000000000E+0002	 1.26151841247418E-0001	
 8.56500000000000E+0002	 1.26850353209418E-0001	
 8.58500000000000E+0002	 1.27409865171417E-0001	
 8.60500000000000E+0002	 1.27754877133416E-0001	
 8.62500000000000E+0002	 1.27801389095415E-0001	
 8.64500000000000E+0002	 1.27601901057414E-0001	
 8.66500000000000E+0002	 1.27134413019413E-0001	
 8.68500000000000E+0002	 1.26621924981413E-0001	
 8.70500000000000E+0002	 1.26313936943412E-0001	
 8.72500000000000E+0002	 1.26043948905411E-0001	
 8.74500000000000E+0002	 1.25329960867410E-0001	
 8.76500000000000E+0002	 1.24421972829409E-0001	
 8.78500000000000E+0002	 1.23543984791409E-0001	
 8.80500000000000E+0002	 1.22746996753408E-0001	
 8.82500000000000E+0002	 1.21990508715407E-0001	
 8.84500000000000E+0002	 1.21276020677406E-0001	
 8.86500000000000E+0002	 1.20522032639405E-0001	
 8.88500000000000E+0002	 1.19878044601404E-0001	
 8.90500000000000E+0002	 1.19354056563404E-0001	
 8.92500000000000E+0002	 1.19001568525403E-0001	
 8.94500000000000E+0002	 1.18760080487402E-0001	
 8.96500000000000E+0002	 1.18620592449401E-0001	
 8.98500000000000E+0002	 1.18529604411400E-0001	
 9.00500000000000E+0002	 1.18556116373399E-0001	
 9.02500000000000E+0002	 1.18746128335399E-0001	
 9.04500000000000E+0002	 1.19177140297398E-0001	
 9.06500000000000E+0002	 1.19808152259397E-0001	
 9.08500000000000E+0002	 1.20627164221396E-0001	
 9.10500000000000E+0002	 1.21483676183395E-0001	
 9.12500000000000E+0002	 1.22237688145394E-0001	
 9.14500000000000E+0002	 1.22707700107394E-0001	
 9.16500000000000E+0002	 1.22836212069393E-0001	
 9.18500000000000E+0002	 1.22683224031392E-0001	
 9.20500000000000E+0002	 1.22393735993391E-0001	
 9.22500000000000E+0002	 1.22168247955390E-0001	
 9.24500000000000E+0002	 1.22194759917390E-0001	
 9.26500000000000E+0002	 1.22514771879389E-0001	
 9.28500000000000E+0002	 1.23066283841388E-0001	
 9.30500000000000E+0002	 1.23772295803387E-0001	
 9.32500000000000E+0002	 1.24593807765386E-0001	
 9.34500000000000E+0002	 1.25463819727385E-0001	
 9.36500000000000E+0002	 1.26341331689385E-0001	
 9.38500000000000E+0002	 1.27209343651384E-0001	
 9.40500000000000E+0002	 1.28051355613383E-0001	
 9.42500000000000E+0002	 1.28801867575382E-0001	
 9.44500000000000E+0002	 1.29409879537381E-0001	
 9.46500000000000E+0002	 1.29840891499380E-0001	
 9.48500000000000E+0002	 1.30094403461380E-0001	
 9.50500000000000E+0002	 1.30270415423379E-0001	
 9.52500000000000E+0002	 1.30529927385378E-0001	
 9.54500000000000E+0002	 1.31073439347377E-0001	
 9.56500000000000E+0002	 1.32004951309376E-0001	
 9.58500000000000E+0002	 1.33291963271375E-0001	
 9.60500000000000E+0002	 1.34856975233375E-0001	
 9.62500000000000E+0002	 1.36561987195374E-0001	
 9.64500000000000E+0002	 1.38254999157373E-0001	
 9.66500000000000E+0002	 1.39823011119372E-0001	
 9.68500000000000E+0002	 1.41265023081371E-0001	
 9.70500000000000E+0002	 1.42661535043371E-0001	
 9.72500000000000E+0002	 1.44203047005370E-0001	
 9.74500000000000E+0002	 1.46090558967369E-0001	
 9.76500000000000E+0002	 1.48633070929368E-0001	
 9.78500000000000E+0002	 1.52016582891367E-0001	
 9.80500000000000E+0002	 1.56328094853366E-0001	
 9.82500000000000E+0002	 1.61366106815366E-0001	
 9.84500000000000E+0002	 1.66680618777365E-0001	
 9.86500000000000E+0002	 1.71716130739364E-0001	
 9.88500000000000E+0002	 1.76044642701363E-0001	
 9.90500000000000E+0002	 1.79267654663362E-0001	
 9.92500000000000E+0002	 1.81243666625361E-0001	
 9.94500000000000E+0002	 1.82003178587361E-0001	
 9.96500000000000E+0002	 1.81856690549360E-0001	
 9.98500000000000E+0002	 1.81243702511359E-0001	
 1.00050000000000E+0003	 1.80779714473358E-0001	
 1.00250000000000E+0003	 1.80974726435357E-0001	
 1.00450000000000E+0003	 1.82180738397356E-0001	
 1.00650000000000E+0003	 1.84441750359356E-0001	
 1.00850000000000E+0003	 1.87627762321355E-0001	
 1.01050000000000E+0003	 1.91330774283354E-0001	
 1.01250000000000E+0003	 1.95164786245353E-0001	
 1.01450000000000E+0003	 1.98828298207352E-0001	
 1.01650000000000E+0003	 2.02241310169352E-0001	
 1.01850000000000E+0003	 2.05488322131351E-0001	
 1.02050000000000E+0003	 2.08817834093350E-0001	
 1.02250000000000E+0003	 2.12394346055349E-0001	
 1.02450000000000E+0003	 2.16302358017348E-0001	
 1.02650000000000E+0003	 2.20364369979347E-0001	
 1.02850000000000E+0003	 2.24203881941347E-0001	
 1.03050000000000E+0003	 2.27443393903346E-0001	
 1.03250000000000E+0003	 2.29918905865345E-0001	
 1.03450000000000E+0003	 2.31682417827344E-0001	
 1.03650000000000E+0003	 2.32966929789343E-0001	
 1.03850000000000E+0003	 2.34023941751342E-0001	
 1.04050000000000E+0003	 2.35087453713342E-0001	
 1.04250000000000E+0003	 2.36364965675341E-0001	
 1.04450000000000E+0003	 2.37953977637340E-0001	
 1.04650000000000E+0003	 2.39823989599339E-0001	
 1.04850000000000E+0003	 2.41726001561338E-0001	
 1.05050000000000E+0003	 2.43406513523337E-0001	
 1.05250000000000E+0003	 2.44719025485337E-0001	
 1.05450000000000E+0003	 2.45623037447336E-0001	
 1.05650000000000E+0003	 2.46201049409335E-0001	
 1.05850000000000E+0003	 2.46516061371334E-0001	
 1.06050000000000E+0003	 2.46528073333333E-0001	
 1.06250000000000E+0003	 2.46279085295333E-0001	
 1.06450000000000E+0003	 2.45926097257332E-0001	
 1.06650000000000E+0003	 2.45697109219331E-0001	
 1.06850000000000E+0003	 2.45840621181330E-0001	
 1.07050000000000E+0003	 2.46375133143329E-0001	
 1.07250000000000E+0003	 2.47173145105328E-0001	
 1.07450000000000E+0003	 2.47968657067328E-0001	
 1.07650000000000E+0003	 2.48495669029327E-0001	
 1.07850000000000E+0003	 2.48534680991326E-0001	
 1.08050000000000E+0003	 2.47933692953325E-0001	
 1.08250000000000E+0003	 2.46612704915324E-0001	
 1.08450000000000E+0003	 2.44642716877323E-0001	
 1.08650000000000E+0003	 2.42087728839323E-0001	
 1.08850000000000E+0003	 2.39123740801322E-0001	
 1.09050000000000E+0003	 2.35990252763321E-0001	
 1.09250000000000E+0003	 2.33085264725320E-0001	
 1.09450000000000E+0003	 2.30675776687319E-0001	
 1.09650000000000E+0003	 2.28822788649318E-0001	
 1.09850000000000E+0003	 2.27349800611318E-0001	
 1.10050000000000E+0003	 2.26149312573317E-0001	
 1.10250000000000E+0003	 2.25079324535316E-0001	
 1.10450000000000E+0003	 2.24042336497315E-0001	
 1.10650000000000E+0003	 2.22965848459314E-0001	
 1.10850000000000E+0003	 2.21908360421314E-0001	
 1.11050000000000E+0003	 2.20856872383313E-0001	
 1.11250000000000E+0003	 2.19747384345312E-0001	
 1.11450000000000E+0003	 2.18347896307311E-0001	
 1.11650000000000E+0003	 2.16494908269310E-0001	
 1.11850000000000E+0003	 2.14037420231309E-0001	
 1.12050000000000E+0003	 2.11008432193309E-0001	
 1.12250000000000E+0003	 2.07475444155308E-0001	
 1.12450000000000E+0003	 2.03592456117307E-0001	
 1.12650000000000E+0003	 1.99480468079306E-0001	
 1.12850000000000E+0003	 1.95306980041305E-0001	
 1.13050000000000E+0003	 1.91162492003304E-0001	
 1.13250000000000E+0003	 1.87259503965304E-0001	
 1.13450000000000E+0003	 1.83797515927303E-0001	
 1.13650000000000E+0003	 1.80961527889302E-0001	
 1.13850000000000E+0003	 1.78899039851301E-0001	
 1.14050000000000E+0003	 1.77701551813300E-0001	
 1.14250000000000E+0003	 1.77276063775299E-0001	
 1.14450000000000E+0003	 1.77427575737299E-0001	
 1.14650000000000E+0003	 1.77783087699298E-0001	
 1.14850000000000E+0003	 1.77920099661297E-0001	
 1.15050000000000E+0003	 1.77505111623296E-0001	
 1.15250000000000E+0003	 1.76374123585295E-0001	
 1.15450000000000E+0003	 1.74513635547295E-0001	
 1.15650000000000E+0003	 1.72121647509294E-0001	
 1.15850000000000E+0003	 1.69440159471293E-0001	
 1.16050000000000E+0003	 1.66680171433292E-0001	
 1.16250000000000E+0003	 1.64016183395291E-0001	
 1.16450000000000E+0003	 1.61574695357290E-0001	
 1.16650000000000E+0003	 1.59405207319290E-0001	
 1.16850000000000E+0003	 1.57544719281289E-0001	
 1.17050000000000E+0003	 1.55956231243288E-0001	
 1.17250000000000E+0003	 1.54538743205287E-0001	
 1.17450000000000E+0003	 1.53185255167286E-0001	
 1.17650000000000E+0003	 1.51917767129285E-0001	
 1.17850000000000E+0003	 1.50854279091285E-0001	
 1.18050000000000E+0003	 1.50141791053284E-0001	
 1.18250000000000E+0003	 1.49888303015283E-0001	
 1.18450000000000E+0003	 1.50197314977282E-0001	
 1.18650000000000E+0003	 1.51115826939281E-0001	
 1.18850000000000E+0003	 1.52669338901280E-0001	
 1.19050000000000E+0003	 1.54805350863280E-0001	
 1.19250000000000E+0003	 1.57484362825279E-0001	
 1.19450000000000E+0003	 1.60659374787278E-0001	
 1.19650000000000E+0003	 1.64187386749277E-0001	
 1.19850000000000E+0003	 1.67910898711276E-0001	
 1.20050000000000E+0003	 1.71697910673276E-0001	
 1.20250000000000E+0003	 1.75396922635275E-0001	
 1.20450000000000E+0003	 1.78880434597274E-0001	
 1.20650000000000E+0003	 1.82063946559273E-0001	
 1.20850000000000E+0003	 1.84897958521272E-0001	
 1.21050000000000E+0003	 1.87413470483271E-0001	
 1.21250000000000E+0003	 1.89727482445271E-0001	
 1.21450000000000E+0003	 1.91884494407270E-0001	
 1.21650000000000E+0003	 1.93835006369269E-0001	
 1.21850000000000E+0003	 1.95535518331268E-0001	
 1.22050000000000E+0003	 1.96957530293267E-0001	
 1.22250000000000E+0003	 1.98097542255266E-0001	
 1.22450000000000E+0003	 1.99045054217266E-0001	
 1.22650000000000E+0003	 1.99905066179265E-0001	
 1.22850000000000E+0003	 2.00714578141264E-0001	
 1.23050000000000E+0003	 2.01445090103263E-0001	
 1.23250000000000E+0003	 2.02072602065262E-0001	
 1.23450000000000E+0003	 2.02518614027261E-0001	
 1.23650000000000E+0003	 2.02702625989261E-0001	
 1.23850000000000E+0003	 2.02556637951260E-0001	
 1.24050000000000E+0003	 2.02058149913259E-0001	
 1.24250000000000E+0003	 2.01169161875258E-0001	
 1.24450000000000E+0003	 1.99920673837257E-0001	
 1.24650000000000E+0003	 1.98335685799257E-0001	
 1.24850000000000E+0003	 1.96461197761256E-0001	
 1.25050000000000E+0003	 1.94347709723255E-0001	
 1.25250000000000E+0003	 1.92102221685254E-0001	
 1.25450000000000E+0003	 1.89764733647253E-0001	
 1.25650000000000E+0003	 1.87373245609252E-0001	
 1.25850000000000E+0003	 1.84921257571252E-0001	
 1.26050000000000E+0003	 1.82423769533251E-0001	
 1.26250000000000E+0003	 1.79866781495250E-0001	
 1.26450000000000E+0003	 1.77298793457249E-0001	
 1.26650000000000E+0003	 1.74788305419248E-0001	
 1.26850000000000E+0003	 1.72488317381247E-0001	
 1.27050000000000E+0003	 1.70393829343247E-0001	
 1.27250000000000E+0003	 1.68562841305246E-0001	
 1.27450000000000E+0003	 1.66967853267245E-0001	
 1.27650000000000E+0003	 1.65578865229244E-0001	
 1.27850000000000E+0003	 1.64337377191243E-0001	
 1.28050000000000E+0003	 1.63219889153242E-0001	
 1.28250000000000E+0003	 1.62138901115242E-0001	
 1.28450000000000E+0003	 1.61067913077241E-0001	
 1.28650000000000E+0003	 1.59996425039240E-0001	
 1.28850000000000E+0003	 1.59031937001239E-0001	
 1.29050000000000E+0003	 1.58236948963238E-0001	
 1.29250000000000E+0003	 1.57632960925238E-0001	
 1.29450000000000E+0003	 1.57174472887237E-0001	
 1.29650000000000E+0003	 1.56896984849236E-0001	
 1.29850000000000E+0003	 1.56835996811235E-0001	
 1.30050000000000E+0003	 1.56978008773234E-0001	
 1.30250000000000E+0003	 1.57221020735233E-0001	
 1.30450000000000E+0003	 1.57515032697233E-0001	
 1.30650000000000E+0003	 1.57819044659232E-0001	
 1.30850000000000E+0003	 1.58151056621231E-0001	
 1.31050000000000E+0003	 1.58459068583230E-0001	
 1.31250000000000E+0003	 1.58704580545229E-0001	
 1.31450000000000E+0003	 1.58896592507228E-0001	
 1.31650000000000E+0003	 1.58984604469228E-0001	
 1.31850000000000E+0003	 1.58937116431227E-0001	
 1.32050000000000E+0003	 1.58793628393226E-0001	
 1.32250000000000E+0003	 1.58560140355225E-0001	
 1.32450000000000E+0003	 1.58259152317224E-0001	
 1.32650000000000E+0003	 1.57906664279223E-0001	
 1.32850000000000E+0003	 1.57551676241223E-0001	
 1.33050000000000E+0003	 1.57217688203222E-0001	
 1.33250000000000E+0003	 1.56882700165221E-0001	
 1.33450000000000E+0003	 1.56443712127220E-0001	
 1.33650000000000E+0003	 1.55805724089219E-0001	
 1.33850000000000E+0003	 1.54973236051219E-0001	
 1.34050000000000E+0003	 1.54247748013218E-0001	
 1.34250000000000E+0003	 1.53659759975217E-0001	
 1.34450000000000E+0003	 1.52908771937216E-0001	
 1.34650000000000E+0003	 1.52004283899215E-0001	
 1.34850000000000E+0003	 1.51182295861214E-0001	
 1.35050000000000E+0003	 1.50541807823214E-0001	
 1.35250000000000E+0003	 1.50111319785213E-0001	
 1.35450000000000E+0003	 1.49893831747212E-0001	
 1.35650000000000E+0003	 1.49944843709211E-0001	
 1.35850000000000E+0003	 1.50255855671210E-0001	
 1.36050000000000E+0003	 1.50895367633209E-0001	
 1.36250000000000E+0003	 1.52169379595209E-0001	
 1.36450000000000E+0003	 1.54333891557208E-0001	
 1.36650000000000E+0003	 1.57032903519207E-0001	
 1.36850000000000E+0003	 1.60020415481206E-0001	
 1.37050000000000E+0003	 1.62760427443205E-0001	
 1.37250000000000E+0003	 1.65085939405204E-0001	
 1.37450000000000E+0003	 1.67123451367204E-0001	
 1.37650000000000E+0003	 1.68716463329203E-0001	
 1.37850000000000E+0003	 1.69810475291202E-0001	
 1.38050000000000E+0003	 1.70564987253201E-0001	
 1.38250000000000E+0003	 1.71170499215200E-0001	
 1.38450000000000E+0003	 1.71582511177200E-0001	
 1.38650000000000E+0003	 1.71739523139199E-0001	
 1.38850000000000E+0003	 1.72109535101198E-0001	
 1.39050000000000E+0003	 1.72761547063197E-0001	
 1.39250000000000E+0003	 1.73384059025196E-0001	
 1.39450000000000E+0003	 1.73979570987195E-0001	
 1.39650000000000E+0003	 1.74539082949195E-0001	
 1.39850000000000E+0003	 1.75211594911194E-0001	
 1.40050000000000E+0003	 1.75653606873193E-0001	
 1.40250000000000E+0003	 1.75472618835192E-0001	
 1.40450000000000E+0003	 1.74986630797191E-0001	
 1.40650000000000E+0003	 1.74122642759190E-0001	
 1.40850000000000E+0003	 1.73132654721190E-0001	
 1.41050000000000E+0003	 1.72124166683189E-0001	
 1.41250000000000E+0003	 1.71116178645188E-0001	
 1.41450000000000E+0003	 1.70134190607187E-0001	
 1.41650000000000E+0003	 1.68828702569186E-0001	
 1.41850000000000E+0003	 1.67281714531185E-0001	
 1.42050000000000E+0003	 1.65924226493185E-0001	
 1.42250000000000E+0003	 1.65193238455184E-0001	
 1.42450000000000E+0003	 1.64429750417183E-0001	
 1.42650000000000E+0003	 1.63283762379182E-0001	
 1.42850000000000E+0003	 1.62387274341181E-0001	
 1.43050000000000E+0003	 1.61826286303181E-0001	
 1.43250000000000E+0003	 1.61484298265180E-0001	
 1.43450000000000E+0003	 1.61379810227179E-0001	
 1.43650000000000E+0003	 1.61946322189178E-0001	
 1.43850000000000E+0003	 1.63055834151177E-0001	
 1.44050000000000E+0003	 1.64462846113176E-0001	
 1.44250000000000E+0003	 1.65844858075176E-0001	
 1.44450000000000E+0003	 1.66867870037175E-0001	
 1.44650000000000E+0003	 1.67920381999174E-0001	
 1.44850000000000E+0003	 1.69009893961173E-0001	
 1.45050000000000E+0003	 1.69902405923172E-0001	
 1.45250000000000E+0003	 1.70573417885171E-0001	
 1.45450000000000E+0003	 1.70133929847171E-0001	
 1.45650000000000E+0003	 1.68772441809170E-0001	
 1.45850000000000E+0003	 1.67822953771169E-0001	
 1.46050000000000E+0003	 1.67358465733168E-0001	
 1.46250000000000E+0003	 1.66157977695167E-0001	
 1.46450000000000E+0003	 1.64182489657166E-0001	
 1.46650000000000E+0003	 1.61777501619166E-0001	
 1.46850000000000E+0003	 1.59356013581165E-0001	
 1.47050000000000E+0003	 1.56498525543164E-0001	
 1.47250000000000E+0003	 1.52814537505163E-0001	
 1.47450000000000E+0003	 1.49624549467162E-0001	
 1.47650000000000E+0003	 1.48117561429162E-0001	
 1.47850000000000E+0003	 1.47012573391161E-0001	
 1.48050000000000E+0003	 1.46286585353160E-0001	
 1.48250000000000E+0003	 1.46182097315159E-0001	
 1.48450000000000E+0003	 1.46432609277158E-0001	
 1.48650000000000E+0003	 1.47225121239157E-0001	
 1.48850000000000E+0003	 1.48405633201157E-0001	
 1.49050000000000E+0003	 1.50534645163156E-0001	
 1.49250000000000E+0003	 1.52886657125155E-0001	
 1.49450000000000E+0003	 1.54907669087154E-0001	
 1.49650000000000E+0003	 1.57541181049153E-0001	
 1.49850000000000E+0003	 1.61345193011152E-0001	
 1.50050000000000E+0003	 1.65096704973152E-0001	
 1.50250000000000E+0003	 1.68180216935151E-0001	
 1.50450000000000E+0003	 1.70343728897150E-0001	
 1.50650000000000E+0003	 1.74419240859149E-0001	
 1.50850000000000E+0003	 1.80454752821148E-0001	
 1.51050000000000E+0003	 1.86791764783147E-0001	
 1.51250000000000E+0003	 1.92835276745147E-0001	
 1.51450000000000E+0003	 1.98103288707146E-0001	
 1.51650000000000E+0003	 2.03043300669145E-0001	
 1.51850000000000E+0003	 2.06735312631144E-0001	
 1.52050000000000E+0003	 2.09258324593143E-0001	
 1.52250000000000E+0003	 2.13350336555143E-0001	
 1.52450000000000E+0003	 2.17836848517142E-0001	
 1.52650000000000E+0003	 2.22450860479141E-0001	
 1.52850000000000E+0003	 2.26743872441140E-0001	
 1.53050000000000E+0003	 2.30184884403139E-0001	
 1.53250000000000E+0003	 2.33509896365138E-0001	
 1.53450000000000E+0003	 2.36964408327138E-0001	
 1.53650000000000E+0003	 2.38528920289137E-0001	
 1.53850000000000E+0003	 2.39152932251136E-0001	
 1.54050000000000E+0003	 2.41207944213135E-0001	
 1.54250000000000E+0003	 2.43701456175134E-0001	
 1.54450000000000E+0003	 2.45736468137133E-0001	
 1.54650000000000E+0003	 2.46605980099133E-0001	
 1.54850000000000E+0003	 2.46208492061132E-0001	
 1.55050000000000E+0003	 2.44575004023131E-0001	
 1.55250000000000E+0003	 2.41674015985130E-0001	
 1.55450000000000E+0003	 2.37873027947129E-0001	
 1.55650000000000E+0003	 2.33507039909128E-0001	
 1.55850000000000E+0003	 2.28638051871128E-0001	
 1.56050000000000E+0003	 2.23180563833127E-0001	
 1.56250000000000E+0003	 2.20429075795126E-0001	
 1.56450000000000E+0003	 2.18879587757125E-0001	
 1.56650000000000E+0003	 2.15531099719124E-0001	
 1.56850000000000E+0003	 2.12270611681124E-0001	
 1.57050000000000E+0003	 2.09029123643123E-0001	
 1.57250000000000E+0003	 2.05832635605122E-0001	
 1.57450000000000E+0003	 2.02441647567121E-0001	
 1.57650000000000E+0003	 1.98947159529120E-0001	
 1.57850000000000E+0003	 1.97111171491119E-0001	
 1.58050000000000E+0003	 1.96572183453119E-0001	
 1.58250000000000E+0003	 1.95296195415118E-0001	
 1.58450000000000E+0003	 1.94186707377117E-0001	
 1.58650000000000E+0003	 1.93514219339116E-0001	
 1.58850000000000E+0003	 1.93506731301115E-0001	
 1.59050000000000E+0003	 1.94003743263114E-0001	
 1.59250000000000E+0003	 1.95132755225114E-0001	
 1.59450000000000E+0003	 1.96650767187113E-0001	
 1.59650000000000E+0003	 1.98631779149112E-0001	
 1.59850000000000E+0003	 2.00815291111111E-0001	
 1.60050000000000E+0003	 2.03408803073110E-0001	
 1.60250000000000E+0003	 2.06324315035109E-0001	
 1.60450000000000E+0003	 2.09771826997109E-0001	
 1.60650000000000E+0003	 2.13578338959108E-0001	
 1.60850000000000E+0003	 2.18162850921107E-0001	
 1.61050000000000E+0003	 2.23433362883106E-0001	
 1.61250000000000E+0003	 2.29167874845105E-0001	
 1.61450000000000E+0003	 2.34319386807105E-0001	
 1.61650000000000E+0003	 2.40852398769104E-0001	
 1.61850000000000E+0003	 2.49267910731103E-0001	
 1.62050000000000E+0003	 2.57350922693102E-0001	
 1.62250000000000E+0003	 2.65764934655101E-0001	
 1.62450000000000E+0003	 2.74717946617100E-0001	
 1.62650000000000E+0003	 2.82760458579100E-0001	
 1.62850000000000E+0003	 2.91191970541099E-0001	
 1.63050000000000E+0003	 2.98959482503098E-0001	
 1.63250000000000E+0003	 3.05260494465097E-0001	
 1.63450000000000E+0003	 3.11076506427096E-0001	
 1.63650000000000E+0003	 3.17616518389095E-0001	
 1.63850000000000E+0003	 3.22909030351095E-0001	
 1.64050000000000E+0003	 3.27247542313094E-0001	
 1.64250000000000E+0003	 3.30467054275093E-0001	
 1.64450000000000E+0003	 3.32439066237092E-0001	
 1.64650000000000E+0003	 3.35066078199091E-0001	
 1.64850000000000E+0003	 3.37982590161090E-0001	
 1.65050000000000E+0003	 3.38553602123090E-0001	
 1.65250000000000E+0003	 3.38510114085089E-0001	
 1.65450000000000E+0003	 3.40379626047088E-0001	
 1.65650000000000E+0003	 3.41886138009087E-0001	
 1.65850000000000E+0003	 3.42201649971086E-0001	
 1.66050000000000E+0003	 3.40116161933086E-0001	
 1.66250000000000E+0003	 3.36898173895085E-0001	
 1.66450000000000E+0003	 3.32669185857084E-0001	
 1.66650000000000E+0003	 3.28455697819083E-0001	
 1.66850000000000E+0003	 3.24099209781082E-0001	
 1.67050000000000E+0003	 3.19071221743081E-0001	
 1.67250000000000E+0003	 3.14202233705081E-0001	
 1.67450000000000E+0003	 3.09880245667080E-0001	
 1.67650000000000E+0003	 3.04803257629079E-0001	
 1.67850000000000E+0003	 3.00013769591078E-0001	
 1.68050000000000E+0003	 2.95471781553077E-0001	
 1.68250000000000E+0003	 2.90164793515076E-0001	
 1.68450000000000E+0003	 2.83420805477076E-0001	
 1.68650000000000E+0003	 2.77323817439075E-0001	
 1.68850000000000E+0003	 2.74153329401074E-0001	
 1.69050000000000E+0003	 2.69717841363073E-0001	
 1.69250000000000E+0003	 2.63968353325072E-0001	
 1.69450000000000E+0003	 2.57236865287071E-0001	
 1.69650000000000E+0003	 2.49169377249071E-0001	
 1.69850000000000E+0003	 2.43016389211070E-0001	
 1.70050000000000E+0003	 2.37499901173069E-0001	
 1.70250000000000E+0003	 2.30898413135068E-0001	
 1.70450000000000E+0003	 2.26745425097067E-0001	
 1.70650000000000E+0003	 2.22018437059067E-0001	
 1.70850000000000E+0003	 2.16901949021066E-0001	
 1.71050000000000E+0003	 2.12503460983065E-0001	
 1.71250000000000E+0003	 2.08149472945064E-0001	
 1.71450000000000E+0003	 2.03500984907063E-0001	
 1.71650000000000E+0003	 1.98058996869062E-0001	
 1.71850000000000E+0003	 1.93704008831062E-0001	
 1.72050000000000E+0003	 1.90771520793061E-0001	
 1.72250000000000E+0003	 1.88182032755060E-0001	
 1.72450000000000E+0003	 1.85199044717059E-0001	
 1.72650000000000E+0003	 1.82390056679058E-0001	
 1.72850000000000E+0003	 1.80033568641057E-0001	
 1.73050000000000E+0003	 1.77699580603057E-0001	
 1.73250000000000E+0003	 1.75009592565056E-0001	
 1.73450000000000E+0003	 1.73801604527055E-0001	
 1.73650000000000E+0003	 1.73602116489054E-0001	
 1.73850000000000E+0003	 1.74417628451053E-0001	
 1.74050000000000E+0003	 1.74784140413052E-0001	
 1.74250000000000E+0003	 1.74377152375052E-0001	
 1.74450000000000E+0003	 1.73941164337051E-0001	
 1.74650000000000E+0003	 1.73162676299050E-0001	
 1.74850000000000E+0003	 1.71782188261049E-0001	
 1.75050000000000E+0003	 1.69479200223048E-0001	
 1.75250000000000E+0003	 1.66784712185048E-0001	
 1.75450000000000E+0003	 1.64399724147047E-0001	
 1.75650000000000E+0003	 1.61594236109046E-0001	
 1.75850000000000E+0003	 1.57774248071045E-0001	
 1.76050000000000E+0003	 1.54053260033044E-0001	
 1.76250000000000E+0003	 1.50430771995043E-0001	
 1.76450000000000E+0003	 1.46731783957043E-0001	
 1.76650000000000E+0003	 1.43636795919042E-0001	
 1.76850000000000E+0003	 1.40502807881041E-0001	
 1.77050000000000E+0003	 1.37595819843040E-0001	
 1.77250000000000E+0003	 1.35039831805039E-0001	
 1.77450000000000E+0003	 1.32787843767038E-0001	
 1.77650000000000E+0003	 1.31540855729038E-0001	
 1.77850000000000E+0003	 1.30275867691037E-0001	
 1.78050000000000E+0003	 1.28900879653036E-0001	
 1.78250000000000E+0003	 1.27513891615035E-0001	
 1.78450000000000E+0003	 1.26284403577034E-0001	
 1.78650000000000E+0003	 1.25201915539033E-0001	
 1.78850000000000E+0003	 1.24063927501033E-0001	
 1.79050000000000E+0003	 1.23003939463032E-0001	
 1.79250000000000E+0003	 1.21992951425031E-0001	
 1.79450000000000E+0003	 1.20924463387030E-0001	
 1.79650000000000E+0003	 1.20213975349029E-0001	
 1.79850000000000E+0003	 1.19691487311029E-0001	
 1.80050000000000E+0003	 1.18984999273028E-0001	
 1.80250000000000E+0003	 1.18162011235027E-0001	
 1.80450000000000E+0003	 1.17459023197026E-0001	
 1.80650000000000E+0003	 1.16871035159025E-0001	
 1.80850000000000E+0003	 1.16201047121024E-0001	
 1.81050000000000E+0003	 1.15628559083024E-0001	
 1.81250000000000E+0003	 1.15006071045023E-0001	
 1.81450000000000E+0003	 1.14435083007022E-0001	
 1.81650000000000E+0003	 1.13937094969021E-0001	
 1.81850000000000E+0003	 1.13415106931020E-0001	
 1.82050000000000E+0003	 1.12868618893019E-0001	
 1.82250000000000E+0003	 1.12290630855019E-0001	
 1.82450000000000E+0003	 1.11857142817018E-0001	
 1.82650000000000E+0003	 1.11290154779017E-0001	
 1.82850000000000E+0003	 1.10765166741016E-0001	
 1.83050000000000E+0003	 1.10606178703015E-0001	
 1.83250000000000E+0003	 1.09981190665014E-0001	
 1.83450000000000E+0003	 1.09598202627014E-0001	
 1.83650000000000E+0003	 1.09305214589013E-0001	
 1.83850000000000E+0003	 1.08940226551012E-0001	
 1.84050000000000E+0003	 1.08406738513011E-0001	
 1.84250000000000E+0003	 1.07778250475010E-0001	
 1.84450000000000E+0003	 1.07440762437010E-0001	
 1.84650000000000E+0003	 1.07004774399009E-0001	
 1.84850000000000E+0003	 1.06936286361008E-0001	
 1.85050000000000E+0003	 1.06878298323007E-0001	
 1.85250000000000E+0003	 1.06659310285006E-0001	
 1.85450000000000E+0003	 1.06407822247005E-0001	
 1.85650000000000E+0003	 1.06114834209005E-0001	
 1.85850000000000E+0003	 1.05831846171004E-0001	
 1.86050000000000E+0003	 1.05550858133003E-0001	
 1.86250000000000E+0003	 1.05291870095002E-0001	
 1.86450000000000E+0003	 1.04981882057001E-0001	
 1.86650000000000E+0003	 1.04616394019000E-0001	
 1.86850000000000E+0003	 1.04431405981000E-0001	
 1.87050000000000E+0003	 1.04209417942999E-0001	
 1.87250000000000E+0003	 1.03966929904998E-0001	
 1.87450000000000E+0003	 1.03954441866997E-0001	
 1.87650000000000E+0003	 1.03811953828996E-0001	
 1.87850000000000E+0003	 1.03623465790995E-0001	
 1.88050000000000E+0003	 1.03428977752995E-0001	
 1.88250000000000E+0003	 1.03240989714994E-0001	
 1.88450000000000E+0003	 1.03061001676993E-0001	
 1.88650000000000E+0003	 1.02834013638992E-0001	
 1.88850000000000E+0003	 1.02703525600991E-0001	
 1.89050000000000E+0003	 1.02595037562991E-0001	
 1.89250000000000E+0003	 1.02316549524990E-0001	
 1.89450000000000E+0003	 1.02222561486989E-0001	
 1.89650000000000E+0003	 1.02123073448988E-0001	
 1.89850000000000E+0003	 1.01997085410987E-0001	
 1.90050000000000E+0003	 1.01892097372986E-0001	
 1.90250000000000E+0003	 1.01762609334986E-0001	
 1.90450000000000E+0003	 1.01624121296985E-0001	
 1.90650000000000E+0003	 1.01459633258984E-0001	
 1.90850000000000E+0003	 1.01297645220983E-0001	
 1.91050000000000E+0003	 1.01191657182982E-0001	
 1.91250000000000E+0003	 1.01100669144981E-0001	
 1.91450000000000E+0003	 1.00962681106981E-0001	
 1.91650000000000E+0003	 1.00816693068980E-0001	
 1.91850000000000E+0003	 1.00767205030979E-0001	
 1.92050000000000E+0003	 1.00509716992978E-0001	
 1.92250000000000E+0003	 1.00468228954977E-0001	
 1.92450000000000E+0003	 1.00464740916976E-0001	
 1.92650000000000E+0003	 1.00421252878976E-0001	
 1.92850000000000E+0003	 1.00415764840975E-0001	
 1.93050000000000E+0003	 1.00344776802974E-0001	
 1.93250000000000E+0003	 1.00264288764973E-0001	
 1.93450000000000E+0003	 1.00204800726972E-0001	
 1.93650000000000E+0003	 1.00152312688971E-0001	
 1.93850000000000E+0003	 1.00075824650971E-0001	
 1.94050000000000E+0003	 9.99508366129698E-0002	
 1.94250000000000E+0003	 9.99323485749690E-0002	
 1.94450000000000E+0003	 9.98428605369682E-0002	
 1.94650000000000E+0003	 9.98193724989674E-0002	
 1.94850000000000E+0003	 9.98623844609665E-0002	
 1.95050000000000E+0003	 9.98523964229657E-0002	
 1.95250000000000E+0003	 9.98219083849649E-0002	
 1.95450000000000E+0003	 9.97949203469641E-0002	
 1.95650000000000E+0003	 9.97769323089632E-0002	
 1.95850000000000E+0003	 9.97564442709624E-0002	
 1.96050000000000E+0003	 9.97319562329616E-0002	
 1.96250000000000E+0003	 9.97069681949608E-0002	
 1.96450000000000E+0003	 9.96384801569599E-0002	
 1.96650000000000E+0003	 9.95939921189591E-0002	
 1.96850000000000E+0003	 9.95780040809583E-0002	
 1.97050000000000E+0003	 9.95875160429575E-0002	
 1.97250000000000E+0003	 9.96260280049566E-0002	
 1.97450000000000E+0003	 9.96255399669558E-0002	
 1.97650000000000E+0003	 9.96140519289550E-0002	
 1.97850000000000E+0003	 9.96125638909542E-0002	
 1.98050000000000E+0003	 9.96100758529533E-0002	
 1.98250000000000E+0003	 9.96060878149525E-0002	
 1.98450000000000E+0003	 9.95990997769517E-0002	
 1.98650000000000E+0003	 9.95806117389508E-0002	
 1.98850000000000E+0003	 9.95301237009500E-0002	
 1.99050000000000E+0003	 9.95001356629492E-0002	
 1.99250000000000E+0003	 9.95366476249484E-0002	
 1.99450000000000E+0003	 9.95441595869475E-0002	
 1.99650000000000E+0003	 9.96086715489467E-0002	
 1.99850000000000E+0003	 9.96671835109459E-0002	
 2.00050000000000E+0003	 9.96781954729451E-0002	
 2.00250000000000E+0003	 9.96982074349442E-0002	
 2.00450000000000E+0003	 9.97232193969434E-0002	
 2.00650000000000E+0003	 9.97487313589426E-0002	
 2.00850000000000E+0003	 9.97797433209418E-0002	
 2.01050000000000E+0003	 9.98217552829409E-0002	
 2.01250000000000E+0003	 9.98587672449401E-0002	
 2.01450000000000E+0003	 9.98637792069393E-0002	
 2.01650000000000E+0003	 9.98777911689385E-0002	
 2.01850000000000E+0003	 9.99113031309376E-0002	
 2.02050000000000E+0003	 9.99768150929368E-0002	
 2.02250000000000E+0003	 1.00072327054936E-0001	
 2.02450000000000E+0003	 1.00147339016935E-0001	
 2.02650000000000E+0003	 1.00207850978934E-0001	
 2.02850000000000E+0003	 1.00258862940933E-0001	
 2.03050000000000E+0003	 1.00310374902933E-0001	
 2.03250000000000E+0003	 1.00358386864932E-0001	
 2.03450000000000E+0003	 1.00401898826931E-0001	
 2.03650000000000E+0003	 1.00450410788930E-0001	
 2.03850000000000E+0003	 1.00493422750929E-0001	
 2.04050000000000E+0003	 1.00519934712929E-0001	
 2.04250000000000E+0003	 1.00553946674928E-0001	
 2.04450000000000E+0003	 1.00609458636927E-0001	
 2.04650000000000E+0003	 1.00678470598926E-0001	
 2.04850000000000E+0003	 1.00734482560925E-0001	
 2.05050000000000E+0003	 1.00776994522924E-0001	
 2.05250000000000E+0003	 1.00815506484924E-0001	
 2.05450000000000E+0003	 1.00849018446923E-0001	
 2.05650000000000E+0003	 1.00880530408922E-0001	
 2.05850000000000E+0003	 1.00918042370921E-0001	
 2.06050000000000E+0003	 1.00955554332920E-0001	
 2.06250000000000E+0003	 1.00971566294919E-0001	
 2.06450000000000E+0003	 1.00981078256919E-0001	
 2.06650000000000E+0003	 1.01003090218918E-0001	
 2.06850000000000E+0003	 1.01046102180917E-0001	
 2.07050000000000E+0003	 1.01099114142916E-0001	
 2.07250000000000E+0003	 1.01123626104915E-0001	
 2.07450000000000E+0003	 1.01146638066914E-0001	
 2.07650000000000E+0003	 1.01163150028914E-0001	
 2.07850000000000E+0003	 1.01182161990913E-0001	
 2.08050000000000E+0003	 1.01211173952912E-0001	
 2.08250000000000E+0003	 1.01238185914911E-0001	
 2.08450000000000E+0003	 1.01255197876910E-0001	
 2.08650000000000E+0003	 1.01265709838910E-0001	
 2.08850000000000E+0003	 1.01264721800909E-0001	
 2.09050000000000E+0003	 1.01275233762908E-0001	
 2.09250000000000E+0003	 1.01299745724907E-0001	
 2.09450000000000E+0003	 1.01327757686906E-0001	
 2.09650000000000E+0003	 1.01340769648905E-0001	
 2.09850000000000E+0003	 1.01341281610905E-0001	
 2.10050000000000E+0003	 1.01340293572904E-0001	
 2.10250000000000E+0003	 1.01343305534903E-0001	
 2.10450000000000E+0003	 1.01348817496902E-0001	
 2.10650000000000E+0003	 1.01358329458901E-0001	
 2.10850000000000E+0003	 1.01355841420900E-0001	
 2.11050000000000E+0003	 1.01346353382900E-0001	
 2.11250000000000E+0003	 1.01335865344899E-0001	
 2.11450000000000E+0003	 1.01321377306898E-0001	
 2.11650000000000E+0003	 1.01308389268897E-0001	
 2.11850000000000E+0003	 1.01308401230896E-0001	
 2.12050000000000E+0003	 1.01307913192895E-0001	
 2.12250000000000E+0003	 1.01296425154895E-0001	
 2.12450000000000E+0003	 1.01275437116894E-0001	
 2.12650000000000E+0003	 1.01254449078893E-0001	
 2.12850000000000E+0003	 1.01231961040892E-0001	
 2.13050000000000E+0003	 1.01204973002891E-0001	
 2.13250000000000E+0003	 1.01177484964891E-0001	
 2.13450000000000E+0003	 1.01149996926890E-0001	
 2.13650000000000E+0003	 1.01117008888889E-0001	
 2.13850000000000E+0003	 1.01083520850888E-0001	
 2.14050000000000E+0003	 1.01054532812887E-0001	
 2.14250000000000E+0003	 1.01025544774886E-0001	
 2.14450000000000E+0003	 1.00987556736886E-0001	
 2.14650000000000E+0003	 1.00947568698885E-0001	
 2.14850000000000E+0003	 1.00915080660884E-0001	
 2.15050000000000E+0003	 1.00881092622883E-0001	
 2.15250000000000E+0003	 1.00833604584882E-0001	
 2.15450000000000E+0003	 1.00790116546881E-0001	
 2.15650000000000E+0003	 1.00751128508881E-0001	
 2.15850000000000E+0003	 1.00710140470880E-0001	
 2.16050000000000E+0003	 1.00660652432879E-0001	
 2.16250000000000E+0003	 1.00615164394878E-0001	
 2.16450000000000E+0003	 1.00561676356877E-0001	
 2.16650000000000E+0003	 1.00511188318876E-0001	
 2.16850000000000E+0003	 1.00475200280876E-0001	
 2.17050000000000E+0003	 1.00433212242875E-0001	
 2.17250000000000E+0003	 1.00370724204874E-0001	
 2.17450000000000E+0003	 1.00313736166873E-0001	
 2.17650000000000E+0003	 1.00263248128872E-0001	
 2.17850000000000E+0003	 1.00206760090872E-0001	
 2.18050000000000E+0003	 1.00140772052871E-0001	
 2.18250000000000E+0003	 1.00075784014870E-0001	
 2.18450000000000E+0003	 1.00019295976869E-0001	
 2.18650000000000E+0003	 9.99703079388682E-0002	
 2.18850000000000E+0003	 9.99163199008674E-0002	
 2.19050000000000E+0003	 9.98553318628666E-0002	
 2.19250000000000E+0003	 9.97923438248658E-0002	
 2.19450000000000E+0003	 9.97408557868649E-0002	
 2.19650000000000E+0003	 9.96913677488641E-0002	
 2.19850000000000E+0003	 9.96388797108633E-0002	
 2.20050000000000E+0003	 9.95803916728625E-0002	
 2.20250000000000E+0003	 9.95244036348616E-0002	
 2.20450000000000E+0003	 9.94779155968608E-0002	
 2.20650000000000E+0003	 9.94379275588600E-0002	
 2.20850000000000E+0003	 9.93884395208591E-0002	
 2.21050000000000E+0003	 9.93324514828583E-0002	
 2.21250000000000E+0003	 9.92779634448575E-0002	
 2.21450000000000E+0003	 9.92339754068567E-0002	
 2.21650000000000E+0003	 9.91864873688558E-0002	
 2.21850000000000E+0003	 9.91354993308550E-0002	
 2.22050000000000E+0003	 9.90875112928542E-0002	
 2.22250000000000E+0003	 9.90400232548534E-0002	
 2.22450000000000E+0003	 9.89890352168525E-0002	
 2.22650000000000E+0003	 9.89460471788517E-0002	
 2.22850000000000E+0003	 9.89085591408509E-0002	
 2.23050000000000E+0003	 9.88740711028501E-0002	
 2.23250000000000E+0003	 9.88375830648492E-0002	
 2.23450000000000E+0003	 9.88020950268484E-0002	
 2.23650000000000E+0003	 9.87716069888476E-0002	
 2.23850000000000E+0003	 9.87396189508468E-0002	
 2.24050000000000E+0003	 9.87146309128459E-0002	
 2.24250000000000E+0003	 9.87046428748451E-0002	
 2.24450000000000E+0003	 9.86911548368443E-0002	
 2.24650000000000E+0003	 9.86691667988435E-0002	
 2.24850000000000E+0003	 9.86511787608426E-0002	
 2.25050000000000E+0003	 9.86431907228418E-0002	
 2.25250000000000E+0003	 9.86347026848410E-0002	
 2.25450000000000E+0003	 9.86182146468401E-0002	
 2.25650000000000E+0003	 9.85957266088393E-0002	
 2.25850000000000E+0003	 9.85822385708385E-0002	
 2.26050000000000E+0003	 9.85727505328377E-0002	
 2.26250000000000E+0003	 9.85662624948368E-0002	
 2.26450000000000E+0003	 9.85612744568360E-0002	
 2.26650000000000E+0003	 9.85547864188352E-0002	
 2.26850000000000E+0003	 9.85452983808344E-0002	
 2.27050000000000E+0003	 9.85328103428335E-0002	
 2.27250000000000E+0003	 9.85268223048327E-0002	
 2.27450000000000E+0003	 9.85268342668319E-0002	
 2.27650000000000E+0003	 9.85278462288311E-0002	
 2.27850000000000E+0003	 9.85323581908302E-0002	
 2.28050000000000E+0003	 9.85428701528294E-0002	
 2.28250000000000E+0003	 9.85618821148286E-0002	
 2.28450000000000E+0003	 9.85773940768278E-0002	
 2.28650000000000E+0003	 9.85969060388269E-0002	
 2.28850000000000E+0003	 9.86314180008261E-0002	
 2.29050000000000E+0003	 9.86709299628253E-0002	
 2.29250000000000E+0003	 9.87109419248245E-0002	
 2.29450000000000E+0003	 9.87509538868236E-0002	
 2.29650000000000E+0003	 9.87914658488228E-0002	
 2.29850000000000E+0003	 9.88354778108220E-0002	
 2.30050000000000E+0003	 9.88819897728211E-0002	
 2.30250000000000E+0003	 9.89165017348203E-0002	
 2.30450000000000E+0003	 9.89400136968195E-0002	
 2.30650000000000E+0003	 9.89760256588187E-0002	
 2.30850000000000E+0003	 9.90255376208178E-0002	
 2.31050000000000E+0003	 9.90650495828170E-0002	
 2.31250000000000E+0003	 9.90905615448162E-0002	
 2.31450000000000E+0003	 9.91185735068154E-0002	
 2.31650000000000E+0003	 9.91670854688145E-0002	
 2.31850000000000E+0003	 9.92250974308137E-0002	
 2.32050000000000E+0003	 9.93036093928129E-0002	
 2.32250000000000E+0003	 9.93836213548121E-0002	
 2.32450000000000E+0003	 9.94076333168112E-0002	
 2.32650000000000E+0003	 9.94001452788104E-0002	
 2.32850000000000E+0003	 9.94081572408096E-0002	
 2.33050000000000E+0003	 9.94336692028088E-0002	
 2.33250000000000E+0003	 9.94486811648079E-0002	
 2.33450000000000E+0003	 9.94746931268071E-0002	
 2.33650000000000E+0003	 9.95362050888063E-0002	
 2.33850000000000E+0003	 9.96117170508055E-0002	
 2.34050000000000E+0003	 9.96867290128046E-0002	
 2.34250000000000E+0003	 9.97457409748038E-0002	
 2.34450000000000E+0003	 9.97512529368030E-0002	
 2.34650000000000E+0003	 9.97447648988021E-0002	
 2.34850000000000E+0003	 9.97857768608013E-0002	
 2.35050000000000E+0003	 9.97907888228005E-0002	
 2.35250000000000E+0003	 9.97798007847997E-0002	
 2.35450000000000E+0003	 9.98538127467988E-0002	
 2.35650000000000E+0003	 9.99548247087980E-0002	
 2.35850000000000E+0003	 1.00018336670797E-0001	
 2.36050000000000E+0003	 1.00046348632796E-0001	
 2.36250000000000E+0003	 1.00085860594796E-0001	
 2.36450000000000E+0003	 1.00147872556795E-0001	
 2.36650000000000E+0003	 1.00216384518794E-0001	
 2.36850000000000E+0003	 1.00277396480793E-0001	
 2.37050000000000E+0003	 1.00305408442792E-0001	
 2.37250000000000E+0003	 1.00286420404791E-0001	
 2.37450000000000E+0003	 1.00273432366791E-0001	
 2.37650000000000E+0003	 1.00347944328790E-0001	
 2.37850000000000E+0003	 1.00513956290789E-0001	
 2.38050000000000E+0003	 1.00682468252788E-0001	
 2.38250000000000E+0003	 1.00786480214787E-0001	
 2.38450000000000E+0003	 1.00832992176786E-0001	
 2.38650000000000E+0003	 1.00864504138786E-0001	
 2.38850000000000E+0003	 1.00916516100785E-0001	
 2.39050000000000E+0003	 1.00989028062784E-0001	
 2.39250000000000E+0003	 1.01074040024783E-0001	
 2.39450000000000E+0003	 1.01169551986782E-0001	
 2.39650000000000E+0003	 1.01268563948781E-0001	
 2.39850000000000E+0003	 1.01372575910781E-0001	
 2.40050000000000E+0003	 1.01487587872780E-0001	
 2.40250000000000E+0003	 1.01600599834779E-0001	
 2.40450000000000E+0003	 1.01708611796778E-0001	
 2.40650000000000E+0003	 1.01828123758777E-0001	
 2.40850000000000E+0003	 1.01950635720777E-0001	
 2.41050000000000E+0003	 1.02070147682776E-0001	
 2.41250000000000E+0003	 1.02194159644775E-0001	
 2.41450000000000E+0003	 1.02322171606774E-0001	
 2.41650000000000E+0003	 1.02447683568773E-0001	
 2.41850000000000E+0003	 1.02574195530772E-0001	
 2.42050000000000E+0003	 1.02706207492772E-0001	
 2.42250000000000E+0003	 1.02848219454771E-0001	
 2.42450000000000E+0003	 1.02997231416770E-0001	
 2.42650000000000E+0003	 1.03140743378769E-0001	
 2.42850000000000E+0003	 1.03286255340768E-0001	
 2.43050000000000E+0003	 1.03437267302767E-0001	
 2.43250000000000E+0003	 1.03587279264767E-0001	
 2.43450000000000E+0003	 1.03733291226766E-0001	
 2.43650000000000E+0003	 1.03888803188765E-0001	
 2.43850000000000E+0003	 1.04051315150764E-0001	
 2.44050000000000E+0003	 1.04217327112763E-0001	
 2.44250000000000E+0003	 1.04379839074762E-0001	
 2.44450000000000E+0003	 1.04540851036762E-0001	
 2.44650000000000E+0003	 1.04703362998761E-0001	
 2.44850000000000E+0003	 1.04871374960760E-0001	
 2.45050000000000E+0003	 1.05039886922759E-0001	
 2.45250000000000E+0003	 1.05209898884758E-0001	
 2.45450000000000E+0003	 1.05385910846758E-0001	
 2.45650000000000E+0003	 1.05562922808757E-0001	
 2.45850000000000E+0003	 1.05731934770756E-0001	
 2.46050000000000E+0003	 1.05908946732755E-0001	
 2.46250000000000E+0003	 1.06099958694754E-0001	
 2.46450000000000E+0003	 1.06291970656753E-0001	
 2.46650000000000E+0003	 1.06484482618753E-0001	
 2.46850000000000E+0003	 1.06671994580752E-0001	
 2.47050000000000E+0003	 1.06858506542751E-0001	
 2.47250000000000E+0003	 1.07059018504750E-0001	
 2.47450000000000E+0003	 1.07267530466749E-0001	
 2.47650000000000E+0003	 1.07471542428748E-0001	
 2.47850000000000E+0003	 1.07670554390748E-0001	
 2.48050000000000E+0003	 1.07878066352747E-0001	
 2.48250000000000E+0003	 1.08089578314746E-0001	
 2.48450000000000E+0003	 1.08304590276745E-0001	
 2.48650000000000E+0003	 1.08513602238744E-0001	
 2.48850000000000E+0003	 1.08723614200743E-0001	
 2.49050000000000E+0003	 1.08939626162743E-0001	
 2.49250000000000E+0003	 1.09156638124742E-0001	
 2.49450000000000E+0003	 1.09369650086741E-0001	
 2.49650000000000E+0003	 1.09586662048740E-0001	
 2.49850000000000E+0003	 1.09809674010739E-0001	
 2.50050000000000E+0003	 1.10035185972739E-0001	
 2.50250000000000E+0003	 1.10254197934738E-0001	
 2.50450000000000E+0003	 1.10472709896737E-0001	
 2.50650000000000E+0003	 1.10696721858736E-0001	
 2.50850000000000E+0003	 1.10923733820735E-0001	
 2.51050000000000E+0003	 1.11139245782734E-0001	
 2.51250000000000E+0003	 1.11360257744734E-0001	
 2.51450000000000E+0003	 1.11587269706733E-0001	
 2.51650000000000E+0003	 1.11809281668732E-0001	
 2.51850000000000E+0003	 1.12016793630731E-0001	
 2.52050000000000E+0003	 1.12220805592730E-0001	
 2.52250000000000E+0003	 1.12423817554729E-0001	
 2.52450000000000E+0003	 1.12627329516729E-0001	
 2.52650000000000E+0003	 1.12828841478728E-0001	
 2.52850000000000E+0003	 1.13032853440727E-0001	
 2.53050000000000E+0003	 1.13236365402726E-0001	
 2.53250000000000E+0003	 1.13430877364725E-0001	
 2.53450000000000E+0003	 1.13613889326724E-0001	
 2.53650000000000E+0003	 1.13797401288724E-0001	
 2.53850000000000E+0003	 1.13986913250723E-0001	
 2.54050000000000E+0003	 1.14163425212722E-0001	
 2.54250000000000E+0003	 1.14320437174721E-0001	
 2.54450000000000E+0003	 1.14478449136720E-0001	
 2.54650000000000E+0003	 1.14650461098720E-0001	
 2.54850000000000E+0003	 1.14813973060719E-0001	
 2.55050000000000E+0003	 1.14966985022718E-0001	
 2.55250000000000E+0003	 1.15116996984717E-0001	
 2.55450000000000E+0003	 1.15269508946716E-0001	
 2.55650000000000E+0003	 1.15419520908715E-0001	
 2.55850000000000E+0003	 1.15558532870715E-0001	
 2.56050000000000E+0003	 1.15694044832714E-0001	
 2.56250000000000E+0003	 1.15830556794713E-0001	
 2.56450000000000E+0003	 1.15958568756712E-0001	
 2.56650000000000E+0003	 1.16091580718711E-0001	
 2.56850000000000E+0003	 1.16234592680710E-0001	
 2.57050000000000E+0003	 1.16387104642710E-0001	
 2.57250000000000E+0003	 1.16539116604709E-0001	
 2.57450000000000E+0003	 1.16704128566708E-0001	
 2.57650000000000E+0003	 1.16873640528707E-0001	
 2.57850000000000E+0003	 1.17045152490706E-0001	
 2.58050000000000E+0003	 1.17234164452705E-0001	
 2.58250000000000E+0003	 1.17430676414705E-0001	
 2.58450000000000E+0003	 1.17629188376704E-0001	
 2.58650000000000E+0003	 1.17839200338703E-0001	
 2.58850000000000E+0003	 1.18057712300702E-0001	
 2.59050000000000E+0003	 1.18283224262701E-0001	
 2.59250000000000E+0003	 1.18513236224701E-0001	
 2.59450000000000E+0003	 1.18748248186700E-0001	
 2.59650000000000E+0003	 1.18987260148699E-0001	
 2.59850000000000E+0003	 1.19230772110698E-0001	
 2.60050000000000E+0003	 1.19481784072697E-0001	
 2.60250000000000E+0003	 1.19741796034696E-0001	
 2.60450000000000E+0003	 1.20001807996696E-0001	
 2.60650000000000E+0003	 1.20253819958695E-0001	
 2.60850000000000E+0003	 1.20498831920694E-0001	
 2.61050000000000E+0003	 1.20753343882693E-0001	
 2.61250000000000E+0003	 1.21008855844692E-0001	
 2.61450000000000E+0003	 1.21255867806691E-0001	
 2.61650000000000E+0003	 1.21503879768691E-0001	
 2.61850000000000E+0003	 1.21754391730690E-0001	
 2.62050000000000E+0003	 1.22001403692689E-0001	
 2.62250000000000E+0003	 1.22245415654688E-0001	
 2.62450000000000E+0003	 1.22486427616687E-0001	
 2.62650000000000E+0003	 1.22730939578686E-0001	
 2.62850000000000E+0003	 1.22967951540686E-0001	
 2.63050000000000E+0003	 1.23203463502685E-0001	
 2.63250000000000E+0003	 1.23444475464684E-0001	
 2.63450000000000E+0003	 1.23682487426683E-0001	
 2.63650000000000E+0003	 1.23919999388682E-0001	
 2.63850000000000E+0003	 1.24159511350682E-0001	
 2.64050000000000E+0003	 1.24394023312681E-0001	
 2.64250000000000E+0003	 1.24631035274680E-0001	
 2.64450000000000E+0003	 1.24868047236679E-0001	
 2.64650000000000E+0003	 1.25104559198678E-0001	
 2.64850000000000E+0003	 1.25337571160677E-0001	
 2.65050000000000E+0003	 1.25571083122677E-0001	
 2.65250000000000E+0003	 1.25814095084676E-0001	
 2.65450000000000E+0003	 1.26058607046675E-0001	
 2.65650000000000E+0003	 1.26299119008674E-0001	
 2.65850000000000E+0003	 1.26538130970673E-0001	
 2.66050000000000E+0003	 1.26778142932672E-0001	
 2.66250000000000E+0003	 1.27022154894672E-0001	
 2.66450000000000E+0003	 1.27268666856671E-0001	
 2.66650000000000E+0003	 1.27518678818670E-0001	
 2.66850000000000E+0003	 1.27768690780669E-0001	
 2.67050000000000E+0003	 1.28018702742668E-0001	
 2.67250000000000E+0003	 1.28282214704667E-0001	
 2.67450000000000E+0003	 1.28551226666667E-0001	
 2.67650000000000E+0003	 1.28815238628666E-0001	
 2.67850000000000E+0003	 1.29074750590665E-0001	
 2.68050000000000E+0003	 1.29338262552664E-0001	
 2.68250000000000E+0003	 1.29599774514663E-0001	
 2.68450000000000E+0003	 1.29855786476663E-0001	
 2.68650000000000E+0003	 1.30117798438662E-0001	
 2.68850000000000E+0003	 1.30390810400661E-0001	
 2.69050000000000E+0003	 1.30666322362660E-0001	
 2.69250000000000E+0003	 1.30939334324659E-0001	
 2.69450000000000E+0003	 1.31207346286658E-0001	
 2.69650000000000E+0003	 1.31492858248658E-0001	
 2.69850000000000E+0003	 1.31789370210657E-0001	
 2.70050000000000E+0003	 1.32086382172656E-0001	
 2.70250000000000E+0003	 1.32391894134655E-0001	
 2.70450000000000E+0003	 1.32709906096654E-0001	
 2.70650000000000E+0003	 1.33033418058653E-0001	
 2.70850000000000E+0003	 1.33367930020653E-0001	
 2.71050000000000E+0003	 1.33710941982652E-0001	
 2.71250000000000E+0003	 1.34066953944651E-0001	
 2.71450000000000E+0003	 1.34434465906650E-0001	
 2.71650000000000E+0003	 1.34801977868649E-0001	
 2.71850000000000E+0003	 1.35169989830648E-0001	
 2.72050000000000E+0003	 1.35552501792648E-0001	
 2.72250000000000E+0003	 1.35938013754647E-0001	
 2.72450000000000E+0003	 1.36320525716646E-0001	
 2.72650000000000E+0003	 1.36703037678645E-0001	
 2.72850000000000E+0003	 1.37062549640644E-0001	
 2.73050000000000E+0003	 1.37404561602644E-0001	
 2.73250000000000E+0003	 1.37753573564643E-0001	
 2.73450000000000E+0003	 1.38102085526642E-0001	
 2.73650000000000E+0003	 1.38444097488641E-0001	
 2.73850000000000E+0003	 1.38768609450640E-0001	
 2.74050000000000E+0003	 1.39070621412639E-0001	
 2.74250000000000E+0003	 1.39371633374639E-0001	
 2.74450000000000E+0003	 1.39673145336638E-0001	
 2.74650000000000E+0003	 1.39985157298637E-0001	
 2.74850000000000E+0003	 1.40292169260636E-0001	
 2.75050000000000E+0003	 1.40581181222635E-0001	
 2.75250000000000E+0003	 1.40862693184634E-0001	
 2.75450000000000E+0003	 1.41150705146634E-0001	
 2.75650000000000E+0003	 1.41451217108633E-0001	
 2.75850000000000E+0003	 1.41755729070632E-0001	
 2.76050000000000E+0003	 1.42068741032631E-0001	
 2.76250000000000E+0003	 1.42393252994630E-0001	
 2.76450000000000E+0003	 1.42714264956629E-0001	
 2.76650000000000E+0003	 1.43041276918629E-0001	
 2.76850000000000E+0003	 1.43373788880628E-0001	
 2.77050000000000E+0003	 1.43716800842627E-0001	
 2.77250000000000E+0003	 1.44070312804626E-0001	
 2.77450000000000E+0003	 1.44437824766625E-0001	
 2.77650000000000E+0003	 1.44798336728625E-0001	
 2.77850000000000E+0003	 1.45153348690624E-0001	
 2.78050000000000E+0003	 1.45526360652623E-0001	
 2.78250000000000E+0003	 1.45911372614622E-0001	
 2.78450000000000E+0003	 1.46303384576621E-0001	
 2.78650000000000E+0003	 1.46719896538620E-0001	
 2.78850000000000E+0003	 1.47155908500620E-0001	
 2.79050000000000E+0003	 1.47584420462619E-0001	
 2.79250000000000E+0003	 1.48004932424618E-0001	
 2.79450000000000E+0003	 1.48431944386617E-0001	
 2.79650000000000E+0003	 1.48873456348616E-0001	
 2.79850000000000E+0003	 1.49329968310615E-0001	
 2.80050000000000E+0003	 1.49790980272615E-0001	
 2.80250000000000E+0003	 1.50255492234614E-0001	
 2.80450000000000E+0003	 1.50731504196613E-0001	
 2.80650000000000E+0003	 1.51221516158612E-0001	
 2.80850000000000E+0003	 1.51728028120611E-0001	
 2.81050000000000E+0003	 1.52234040082610E-0001	
 2.81250000000000E+0003	 1.52730552044610E-0001	
 2.81450000000000E+0003	 1.53241564006609E-0001	
 2.81650000000000E+0003	 1.53776575968608E-0001	
 2.81850000000000E+0003	 1.54318587930607E-0001	
 2.82050000000000E+0003	 1.54874599892606E-0001	
 2.82250000000000E+0003	 1.55447111854606E-0001	
 2.82450000000000E+0003	 1.56031623816605E-0001	
 2.82650000000000E+0003	 1.56635635778604E-0001	
 2.82850000000000E+0003	 1.57271147740603E-0001	
 2.83050000000000E+0003	 1.57946159702602E-0001	
 2.83250000000000E+0003	 1.58663171664601E-0001	
 2.83450000000000E+0003	 1.59431183626601E-0001	
 2.83650000000000E+0003	 1.60293695588600E-0001	
 2.83850000000000E+0003	 1.61282207550599E-0001	
 2.84050000000000E+0003	 1.62403719512598E-0001	
 2.84250000000000E+0003	 1.63748231474597E-0001	
 2.84450000000000E+0003	 1.65443743436596E-0001	
 2.84650000000000E+0003	 1.67513255398596E-0001	
 2.84850000000000E+0003	 1.69826767360595E-0001	
 2.85050000000000E+0003	 1.72089279322594E-0001	
 2.85250000000000E+0003	 1.73954291284593E-0001	
 2.85450000000000E+0003	 1.75185803246592E-0001	
 2.85650000000000E+0003	 1.75830315208591E-0001	
 2.85850000000000E+0003	 1.76156327170591E-0001	
 2.86050000000000E+0003	 1.76436839132590E-0001	
 2.86250000000000E+0003	 1.76856851094589E-0001	
 2.86450000000000E+0003	 1.77551363056588E-0001	
 2.86650000000000E+0003	 1.78531375018587E-0001	
 2.86850000000000E+0003	 1.79700886980587E-0001	
 2.87050000000000E+0003	 1.80928898942586E-0001	
 2.87250000000000E+0003	 1.82054910904585E-0001	
 2.87450000000000E+0003	 1.82865922866584E-0001	
 2.87650000000000E+0003	 1.83305934828583E-0001	
 2.87850000000000E+0003	 1.83555946790582E-0001	
 2.88050000000000E+0003	 1.83748458752582E-0001	
 2.88250000000000E+0003	 1.83955470714581E-0001	
 2.88450000000000E+0003	 1.84247482676580E-0001	
 2.88650000000000E+0003	 1.84672494638579E-0001	
 2.88850000000000E+0003	 1.85226506600578E-0001	
 2.89050000000000E+0003	 1.85886518562577E-0001	
 2.89250000000000E+0003	 1.86642030524577E-0001	
 2.89450000000000E+0003	 1.87496042486576E-0001	
 2.89650000000000E+0003	 1.88392054448575E-0001	
 2.89850000000000E+0003	 1.89295066410574E-0001	
 2.90050000000000E+0003	 1.90242078372573E-0001	
 2.90250000000000E+0003	 1.91273090334572E-0001	
 2.90450000000000E+0003	 1.92412602296572E-0001	
 2.90650000000000E+0003	 1.93693614258571E-0001	
 2.90850000000000E+0003	 1.95170626220570E-0001	
 2.91050000000000E+0003	 1.96899638182569E-0001	
 2.91250000000000E+0003	 1.98912150144568E-0001	
 2.91450000000000E+0003	 2.01152662106568E-0001	
 2.91650000000000E+0003	 2.03510174068567E-0001	
 2.91850000000000E+0003	 2.05872686030566E-0001	
 2.92050000000000E+0003	 2.08059197992565E-0001	
 2.92250000000000E+0003	 2.09925209954564E-0001	
 2.92450000000000E+0003	 2.11365221916563E-0001	
 2.92650000000000E+0003	 2.12365733878563E-0001	
 2.92850000000000E+0003	 2.13005245840562E-0001	
 2.93050000000000E+0003	 2.13295757802561E-0001	
 2.93250000000000E+0003	 2.13224769764560E-0001	
 2.93450000000000E+0003	 2.12896781726559E-0001	
 2.93650000000000E+0003	 2.12343793688558E-0001	
 2.93850000000000E+0003	 2.11566305650558E-0001	
 2.94050000000000E+0003	 2.10648317612557E-0001	
 2.94250000000000E+0003	 2.09729329574556E-0001	
 2.94450000000000E+0003	 2.08882841536555E-0001	
 2.94650000000000E+0003	 2.08168853498554E-0001	
 2.94850000000000E+0003	 2.07689865460553E-0001	
 2.95050000000000E+0003	 2.07579877422553E-0001	
 2.95250000000000E+0003	 2.07843889384552E-0001	
 2.95450000000000E+0003	 2.08256401346551E-0001	
 2.95650000000000E+0003	 2.08661413308550E-0001	
 2.95850000000000E+0003	 2.08949925270549E-0001	
 2.96050000000000E+0003	 2.08988937232549E-0001	
 2.96250000000000E+0003	 2.08681949194548E-0001	
 2.96450000000000E+0003	 2.07985961156547E-0001	
 2.96650000000000E+0003	 2.06956473118546E-0001	
 2.96850000000000E+0003	 2.05699485080545E-0001	
 2.97050000000000E+0003	 2.04324497042544E-0001	
 2.97250000000000E+0003	 2.02953009004544E-0001	
 2.97450000000000E+0003	 2.01630020966543E-0001	
 2.97650000000000E+0003	 2.00371032928542E-0001	
 2.97850000000000E+0003	 1.99226544890541E-0001	
 2.98050000000000E+0003	 1.98178056852540E-0001	
 2.98250000000000E+0003	 1.97156068814539E-0001	
 2.98450000000000E+0003	 1.96180080776539E-0001	
 2.98650000000000E+0003	 1.95295592738538E-0001	
 2.98850000000000E+0003	 1.94515104700537E-0001	
 2.99050000000000E+0003	 1.93856616662536E-0001	
 2.99250000000000E+0003	 1.93307128624535E-0001	
 2.99450000000000E+0003	 1.92821140586534E-0001	
 2.99650000000000E+0003	 1.92473152548534E-0001	
 2.99850000000000E+0003	 1.92274664510533E-0001	
 3.00050000000000E+0003	 1.92171176472532E-0001	
 3.00250000000000E+0003	 1.92205188434531E-0001	
 3.00450000000000E+0003	 1.92371700396530E-0001	
 3.00650000000000E+0003	 1.92623212358530E-0001	
 3.00850000000000E+0003	 1.92978224320529E-0001	
 3.01050000000000E+0003	 1.93470736282528E-0001	
 3.01250000000000E+0003	 1.94050748244527E-0001	
 3.01450000000000E+0003	 1.94634260206526E-0001	
 3.01650000000000E+0003	 1.95228772168525E-0001	
 3.01850000000000E+0003	 1.95891284130525E-0001	
 3.02050000000000E+0003	 1.96630296092524E-0001	
 3.02250000000000E+0003	 1.97442308054523E-0001	
 3.02450000000000E+0003	 1.98336320016522E-0001	
 3.02650000000000E+0003	 1.99247831978521E-0001	
 3.02850000000000E+0003	 2.00168843940520E-0001	
 3.03050000000000E+0003	 2.01121355902520E-0001	
 3.03250000000000E+0003	 2.02100367864519E-0001	
 3.03450000000000E+0003	 2.03099379826518E-0001	
 3.03650000000000E+0003	 2.04070891788517E-0001	
 3.03850000000000E+0003	 2.05053903750516E-0001	
 3.04050000000000E+0003	 2.06111915712515E-0001	
 3.04250000000000E+0003	 2.07205927674515E-0001	
 3.04450000000000E+0003	 2.08278439636514E-0001	
 3.04650000000000E+0003	 2.09323451598513E-0001	
 3.04850000000000E+0003	 2.10380463560512E-0001	
 3.05050000000000E+0003	 2.11492475522511E-0001	
 3.05250000000000E+0003	 2.12595487484511E-0001	
 3.05450000000000E+0003	 2.13673999446510E-0001	
 3.05650000000000E+0003	 2.14744511408509E-0001	
 3.05850000000000E+0003	 2.15766023370508E-0001	
 3.06050000000000E+0003	 2.16733035332507E-0001	
 3.06250000000000E+0003	 2.17670047294506E-0001	
 3.06450000000000E+0003	 2.18560559256506E-0001	
 3.06650000000000E+0003	 2.19409571218505E-0001	
 3.06850000000000E+0003	 2.20200083180504E-0001	
 3.07050000000000E+0003	 2.20905595142503E-0001	
 3.07250000000000E+0003	 2.21569607104502E-0001	
 3.07450000000000E+0003	 2.22217119066501E-0001	
 3.07650000000000E+0003	 2.22865131028501E-0001	
 3.07850000000000E+0003	 2.23510642990500E-0001	
 3.08050000000000E+0003	 2.24105654952499E-0001	
 3.08250000000000E+0003	 2.24649166914498E-0001	
 3.08450000000000E+0003	 2.25177678876497E-0001	
 3.08650000000000E+0003	 2.25669190838496E-0001	
 3.08850000000000E+0003	 2.26144702800496E-0001	
 3.09050000000000E+0003	 2.26622214762495E-0001	
 3.09250000000000E+0003	 2.27062726724494E-0001	
 3.09450000000000E+0003	 2.27485238686493E-0001	
 3.09650000000000E+0003	 2.27933250648492E-0001	
 3.09850000000000E+0003	 2.28417762610492E-0001	
 3.10050000000000E+0003	 2.28925774572491E-0001	
 3.10250000000000E+0003	 2.29420286534490E-0001	
 3.10450000000000E+0003	 2.29928798496489E-0001	
 3.10650000000000E+0003	 2.30494810458488E-0001	
 3.10850000000000E+0003	 2.31126822420487E-0001	
 3.11050000000000E+0003	 2.31763834382487E-0001	
 3.11250000000000E+0003	 2.32412346344486E-0001	
 3.11450000000000E+0003	 2.33161358306485E-0001	
 3.11650000000000E+0003	 2.33985370268484E-0001	
 3.11850000000000E+0003	 2.34821382230483E-0001	
 3.12050000000000E+0003	 2.35659394192482E-0001	
 3.12250000000000E+0003	 2.36480906154482E-0001	
 3.12450000000000E+0003	 2.37349918116481E-0001	
 3.12650000000000E+0003	 2.38312430078480E-0001	
 3.12850000000000E+0003	 2.39337442040479E-0001	
 3.13050000000000E+0003	 2.40386954002478E-0001	
 3.13250000000000E+0003	 2.41451965964477E-0001	
 3.13450000000000E+0003	 2.42558477926477E-0001	
 3.13650000000000E+0003	 2.43735489888476E-0001	
 3.13850000000000E+0003	 2.44972501850475E-0001	
 3.14050000000000E+0003	 2.46192013812474E-0001	
 3.14250000000000E+0003	 2.47382525774473E-0001	
 3.14450000000000E+0003	 2.48624537736473E-0001	
 3.14650000000000E+0003	 2.49925049698472E-0001	
 3.14850000000000E+0003	 2.51279061660471E-0001	
 3.15050000000000E+0003	 2.52728073622470E-0001	
 3.15250000000000E+0003	 2.54211085584469E-0001	
 3.15450000000000E+0003	 2.55591097546468E-0001	
 3.15650000000000E+0003	 2.56954109508468E-0001	
 3.15850000000000E+0003	 2.58398621470467E-0001	
 3.16050000000000E+0003	 2.59898133432466E-0001	
 3.16250000000000E+0003	 2.61422145394465E-0001	
 3.16450000000000E+0003	 2.62971157356464E-0001	
 3.16650000000000E+0003	 2.64535669318463E-0001	
 3.16850000000000E+0003	 2.66098181280463E-0001	
 3.17050000000000E+0003	 2.67666193242462E-0001	
 3.17250000000000E+0003	 2.69248205204461E-0001	
 3.17450000000000E+0003	 2.70832717166460E-0001	
 3.17650000000000E+0003	 2.72404229128459E-0001	
 3.17850000000000E+0003	 2.73974741090458E-0001	
 3.18050000000000E+0003	 2.75541753052458E-0001	
 3.18250000000000E+0003	 2.77083265014457E-0001	
 3.18450000000000E+0003	 2.78603776976456E-0001	
 3.18650000000000E+0003	 2.80115288938455E-0001	
 3.18850000000000E+0003	 2.81609800900454E-0001	
 3.19050000000000E+0003	 2.83068312862454E-0001	
 3.19250000000000E+0003	 2.84491324824453E-0001	
 3.19450000000000E+0003	 2.85886336786452E-0001	
 3.19650000000000E+0003	 2.87259848748451E-0001	
 3.19850000000000E+0003	 2.88612360710450E-0001	
 3.20050000000000E+0003	 2.89927872672449E-0001	
 3.20250000000000E+0003	 2.91215384634449E-0001	
 3.20450000000000E+0003	 2.92492896596448E-0001	
 3.20650000000000E+0003	 2.93744908558447E-0001	
 3.20850000000000E+0003	 2.94969420520446E-0001	
 3.21050000000000E+0003	 2.96190932482445E-0001	
 3.21250000000000E+0003	 2.97418444444444E-0001	
 3.21450000000000E+0003	 2.98642956406444E-0001	
 3.21650000000000E+0003	 2.99859468368443E-0001	
 3.21850000000000E+0003	 3.01083980330442E-0001	
 3.22050000000000E+0003	 3.02326492292441E-0001	
 3.22250000000000E+0003	 3.03565004254440E-0001	
 3.22450000000000E+0003	 3.04812016216439E-0001	
 3.22650000000000E+0003	 3.06074528178439E-0001	
 3.22850000000000E+0003	 3.07371540140438E-0001	
 3.23050000000000E+0003	 3.08732052102437E-0001	
 3.23250000000000E+0003	 3.10155064064436E-0001	
 3.23450000000000E+0003	 3.11528576026435E-0001	
 3.23650000000000E+0003	 3.12839087988435E-0001	
 3.23850000000000E+0003	 3.14201099950434E-0001	
 3.24050000000000E+0003	 3.15635611912433E-0001	
 3.24250000000000E+0003	 3.17104123874432E-0001	
 3.24450000000000E+0003	 3.18627635836431E-0001	
 3.24650000000000E+0003	 3.20207647798430E-0001	
 3.24850000000000E+0003	 3.21761159760430E-0001	
 3.25050000000000E+0003	 3.23286171722429E-0001	
 3.25250000000000E+0003	 3.24858183684428E-0001	
 3.25450000000000E+0003	 3.26485195646427E-0001	
 3.25650000000000E+0003	 3.28124207608426E-0001	
 3.25850000000000E+0003	 3.29734719570425E-0001	
 3.26050000000000E+0003	 3.31338231532425E-0001	
 3.26250000000000E+0003	 3.32942743494424E-0001	
 3.26450000000000E+0003	 3.34541255456423E-0001	
 3.26650000000000E+0003	 3.36113267418422E-0001	
 3.26850000000000E+0003	 3.37674779380421E-0001	
 3.27050000000000E+0003	 3.39206291342420E-0001	
 3.27250000000000E+0003	 3.40612803304420E-0001	
 3.27450000000000E+0003	 3.41906815266419E-0001	
 3.27650000000000E+0003	 3.43155327228418E-0001	
 3.27850000000000E+0003	 3.44332339190417E-0001	
 3.28050000000000E+0003	 3.45450851152416E-0001	
 3.28250000000000E+0003	 3.46506363114416E-0001	
 3.28450000000000E+0003	 3.47493875076415E-0001	
 3.28650000000000E+0003	 3.48400387038414E-0001	
 3.28850000000000E+0003	 3.49237399000413E-0001	
 3.29050000000000E+0003	 3.50044410962412E-0001	
 3.29250000000000E+0003	 3.50803422924411E-0001	
 3.29450000000000E+0003	 3.51467934886411E-0001	
 3.29650000000000E+0003	 3.52056446848410E-0001	
 3.29850000000000E+0003	 3.52575958810409E-0001	
 3.30050000000000E+0003	 3.53065970772408E-0001	
 3.30250000000000E+0003	 3.53565482734407E-0001	
 3.30450000000000E+0003	 3.54087494696406E-0001	
 3.30650000000000E+0003	 3.54549006658406E-0001	
 3.30850000000000E+0003	 3.54910018620405E-0001	
 3.31050000000000E+0003	 3.55228030582404E-0001	
 3.31250000000000E+0003	 3.55556542544403E-0001	
 3.31450000000000E+0003	 3.55907054506402E-0001	
 3.31650000000000E+0003	 3.56277566468401E-0001	
 3.31850000000000E+0003	 3.56648578430401E-0001	
 3.32050000000000E+0003	 3.57012590392400E-0001	
 3.32250000000000E+0003	 3.57386102354399E-0001	
 3.32450000000000E+0003	 3.57806614316398E-0001	
 3.32650000000000E+0003	 3.58233126278397E-0001	
 3.32850000000000E+0003	 3.58632138240397E-0001	
 3.33050000000000E+0003	 3.59048650202396E-0001	
 3.33250000000000E+0003	 3.59496162164395E-0001	
 3.33450000000000E+0003	 3.59963174126394E-0001	
 3.33650000000000E+0003	 3.60480686088393E-0001	
 3.33850000000000E+0003	 3.61016198050392E-0001	
 3.34050000000000E+0003	 3.61506710012392E-0001	
 3.34250000000000E+0003	 3.61989721974391E-0001	
 3.34450000000000E+0003	 3.62494233936390E-0001	
 3.34650000000000E+0003	 3.63006745898389E-0001	
 3.34850000000000E+0003	 3.63582757860388E-0001	
 3.35050000000000E+0003	 3.64188769822387E-0001	
 3.35250000000000E+0003	 3.64718281784387E-0001	
 3.35450000000000E+0003	 3.65199793746386E-0001	
 3.35650000000000E+0003	 3.65739805708385E-0001	
 3.35850000000000E+0003	 3.66332317670384E-0001	
 3.36050000000000E+0003	 3.66918829632383E-0001	
 3.36250000000000E+0003	 3.67474841594382E-0001	
 3.36450000000000E+0003	 3.68076853556382E-0001	
 3.36650000000000E+0003	 3.68749365518381E-0001	
 3.36850000000000E+0003	 3.69401877480380E-0001	
 3.37050000000000E+0003	 3.69918889442379E-0001	
 3.37250000000000E+0003	 3.70353901404378E-0001	
 3.37450000000000E+0003	 3.70849413366378E-0001	
 3.37650000000000E+0003	 3.71403425328377E-0001	
 3.37850000000000E+0003	 3.71947937290376E-0001	
 3.38050000000000E+0003	 3.72473449252375E-0001	
 3.38250000000000E+0003	 3.72973461214374E-0001	
 3.38450000000000E+0003	 3.73478973176373E-0001	
 3.38650000000000E+0003	 3.73998985138373E-0001	
 3.38850000000000E+0003	 3.74576997100372E-0001	
 3.39050000000000E+0003	 3.75216509062371E-0001	
 3.39250000000000E+0003	 3.75734521024370E-0001	
 3.39450000000000E+0003	 3.76087532986369E-0001	
 3.39650000000000E+0003	 3.76498044948368E-0001	
 3.39850000000000E+0003	 3.77081556910368E-0001	
 3.40050000000000E+0003	 3.77645568872367E-0001	
 3.40250000000000E+0003	 3.77923580834366E-0001	
 3.40450000000000E+0003	 3.78066592796365E-0001	
 3.40650000000000E+0003	 3.78336604758364E-0001	
 3.40850000000000E+0003	 3.78695616720363E-0001	
 3.41050000000000E+0003	 3.79005628682363E-0001	
 3.41250000000000E+0003	 3.79263640644362E-0001	
 3.41450000000000E+0003	 3.79424152606361E-0001	
 3.41650000000000E+0003	 3.79523664568360E-0001	
 3.41850000000000E+0003	 3.79649176530359E-0001	
 3.42050000000000E+0003	 3.79770688492359E-0001	
 3.42250000000000E+0003	 3.79831200454358E-0001	
 3.42450000000000E+0003	 3.79878712416357E-0001	
 3.42650000000000E+0003	 3.79958724378356E-0001	
 3.42850000000000E+0003	 3.80043736340355E-0001	
 3.43050000000000E+0003	 3.80029248302354E-0001	
 3.43250000000000E+0003	 3.79955260264354E-0001	
 3.43450000000000E+0003	 3.79913272226353E-0001	
 3.43650000000000E+0003	 3.79759784188352E-0001	
 3.43850000000000E+0003	 3.79385796150351E-0001	
 3.44050000000000E+0003	 3.78944308112350E-0001	
 3.44250000000000E+0003	 3.78574820074349E-0001	
 3.44450000000000E+0003	 3.78248332036349E-0001	
 3.44650000000000E+0003	 3.77890843998348E-0001	
 3.44850000000000E+0003	 3.77483355960347E-0001	
 3.45050000000000E+0003	 3.77023367922346E-0001	
 3.45250000000000E+0003	 3.76542879884345E-0001	
 3.45450000000000E+0003	 3.76037891846344E-0001	
 3.45650000000000E+0003	 3.75522903808344E-0001	
 3.45850000000000E+0003	 3.75025915770343E-0001	
 3.46050000000000E+0003	 3.74457927732342E-0001	
 3.46250000000000E+0003	 3.73781439694341E-0001	
 3.46450000000000E+0003	 3.73189451656340E-0001	
 3.46650000000000E+0003	 3.72706963618340E-0001	
 3.46850000000000E+0003	 3.72066975580339E-0001	
 3.47050000000000E+0003	 3.71101987542338E-0001	
 3.47250000000000E+0003	 3.70049499504337E-0001	
 3.47450000000000E+0003	 3.69120511466336E-0001	
 3.47650000000000E+0003	 3.68300023428335E-0001	
 3.47850000000000E+0003	 3.67533035390335E-0001	
 3.48050000000000E+0003	 3.66617547352334E-0001	
 3.48250000000000E+0003	 3.65538559314333E-0001	
 3.48450000000000E+0003	 3.64553571276332E-0001	
 3.48650000000000E+0003	 3.63611083238331E-0001	
 3.48850000000000E+0003	 3.62561095200330E-0001	
 3.49050000000000E+0003	 3.61475607162330E-0001	
 3.49250000000000E+0003	 3.60431619124329E-0001	
 3.49450000000000E+0003	 3.59403631086328E-0001	
 3.49650000000000E+0003	 3.58358643048327E-0001	
 3.49850000000000E+0003	 3.57260655010326E-0001	
 3.50050000000000E+0003	 3.56162166972325E-0001	
 3.50250000000000E+0003	 3.55021178934325E-0001	
 3.50450000000000E+0003	 3.53730190896324E-0001	
 3.50650000000000E+0003	 3.52418702858323E-0001	
 3.50850000000000E+0003	 3.51166714820322E-0001	
 3.51050000000000E+0003	 3.49959226782321E-0001	
 3.51250000000000E+0003	 3.48812738744321E-0001	
 3.51450000000000E+0003	 3.47588250706320E-0001	
 3.51650000000000E+0003	 3.46239262668319E-0001	
 3.51850000000000E+0003	 3.44902774630318E-0001	
 3.52050000000000E+0003	 3.43661786592317E-0001	
 3.52250000000000E+0003	 3.42457298554316E-0001	
 3.52450000000000E+0003	 3.41091810516316E-0001	
 3.52650000000000E+0003	 3.39568822478315E-0001	
 3.52850000000000E+0003	 3.38094334440314E-0001	
 3.53050000000000E+0003	 3.36685346402313E-0001	
 3.53250000000000E+0003	 3.35316858364312E-0001	
 3.53450000000000E+0003	 3.34000870326311E-0001	
 3.53650000000000E+0003	 3.32600882288311E-0001	
 3.53850000000000E+0003	 3.31046394250310E-0001	
 3.54050000000000E+0003	 3.29558906212309E-0001	
 3.54250000000000E+0003	 3.28197918174308E-0001	
 3.54450000000000E+0003	 3.26731430136307E-0001	
 3.54650000000000E+0003	 3.24985442098306E-0001	
 3.54850000000000E+0003	 3.23171954060306E-0001	
 3.55050000000000E+0003	 3.21488466022305E-0001	
 3.55250000000000E+0003	 3.19783977984304E-0001	
 3.55450000000000E+0003	 3.18030989946303E-0001	
 3.55650000000000E+0003	 3.16324501908302E-0001	
 3.55850000000000E+0003	 3.14624513870302E-0001	
 3.56050000000000E+0003	 3.12897025832301E-0001	
 3.56250000000000E+0003	 3.11103537794300E-0001	
 3.56450000000000E+0003	 3.09225549756299E-0001	
 3.56650000000000E+0003	 3.07251061718298E-0001	
 3.56850000000000E+0003	 3.05336073680297E-0001	
 3.57050000000000E+0003	 3.03520585642297E-0001	
 3.57250000000000E+0003	 3.01622597604296E-0001	
 3.57450000000000E+0003	 2.99643609566295E-0001	
 3.57650000000000E+0003	 2.97669621528294E-0001	
 3.57850000000000E+0003	 2.95716133490293E-0001	
 3.58050000000000E+0003	 2.93791645452292E-0001	
 3.58250000000000E+0003	 2.91899157414292E-0001	
 3.58450000000000E+0003	 2.89985169376291E-0001	
 3.58650000000000E+0003	 2.87785681338290E-0001	
 3.58850000000000E+0003	 2.85350193300289E-0001	
 3.59050000000000E+0003	 2.83156705262288E-0001	
 3.59250000000000E+0003	 2.81124717224287E-0001	
 3.59450000000000E+0003	 2.78946229186287E-0001	
 3.59650000000000E+0003	 2.76740741148286E-0001	
 3.59850000000000E+0003	 2.74620753110285E-0001	
 3.60050000000000E+0003	 2.72430265072284E-0001	
 3.60250000000000E+0003	 2.70184277034283E-0001	
 3.60450000000000E+0003	 2.67984288996283E-0001	
 3.60650000000000E+0003	 2.65708800958282E-0001	
 3.60850000000000E+0003	 2.63298812920281E-0001	
 3.61050000000000E+0003	 2.60932824882280E-0001	
 3.61250000000000E+0003	 2.58648336844279E-0001	
 3.61450000000000E+0003	 2.56365348806278E-0001	
 3.61650000000000E+0003	 2.54118360768278E-0001	
 3.61850000000000E+0003	 2.51812372730277E-0001	
 3.62050000000000E+0003	 2.49418884692276E-0001	
 3.62250000000000E+0003	 2.47081396654275E-0001	
 3.62450000000000E+0003	 2.44853408616274E-0001	
 3.62650000000000E+0003	 2.42621420578273E-0001	
 3.62850000000000E+0003	 2.40104932540273E-0001	
 3.63050000000000E+0003	 2.37497944502272E-0001	
 3.63250000000000E+0003	 2.35256456464271E-0001	
 3.63450000000000E+0003	 2.33085468426270E-0001	
 3.63650000000000E+0003	 2.30788480388269E-0001	
 3.63850000000000E+0003	 2.28499492350268E-0001	
 3.64050000000000E+0003	 2.26220004312268E-0001	
 3.64250000000000E+0003	 2.23963516274267E-0001	
 3.64450000000000E+0003	 2.21761028236266E-0001	
 3.64650000000000E+0003	 2.19566540198265E-0001	
 3.64850000000000E+0003	 2.17280052160264E-0001	
 3.65050000000000E+0003	 2.15009064122264E-0001	
 3.65250000000000E+0003	 2.12868576084263E-0001	
 3.65450000000000E+0003	 2.10858088046262E-0001	
 3.65650000000000E+0003	 2.08840600008261E-0001	
 3.65850000000000E+0003	 2.06885111970260E-0001	
 3.66050000000000E+0003	 2.05013123932259E-0001	
 3.66250000000000E+0003	 2.03048635894259E-0001	
 3.66450000000000E+0003	 2.01123147856258E-0001	
 3.66650000000000E+0003	 1.99366159818257E-0001	
 3.66850000000000E+0003	 1.97633671780256E-0001	
 3.67050000000000E+0003	 1.95848183742255E-0001	
 3.67250000000000E+0003	 1.94230695704254E-0001	
 3.67450000000000E+0003	 1.92763207666254E-0001	
 3.67650000000000E+0003	 1.91198719628253E-0001	
 3.67850000000000E+0003	 1.89756731590252E-0001	
 3.68050000000000E+0003	 1.88503243552251E-0001	
 3.68250000000000E+0003	 1.87256255514250E-0001	
 3.68450000000000E+0003	 1.86095267476249E-0001	
 3.68650000000000E+0003	 1.85025279438249E-0001	
 3.68850000000000E+0003	 1.83972291400248E-0001	
 3.69050000000000E+0003	 1.82844803362247E-0001	
 3.69250000000000E+0003	 1.81759315324246E-0001	
 3.69450000000000E+0003	 1.80802827286245E-0001	
 3.69650000000000E+0003	 1.79909339248245E-0001	
 3.69850000000000E+0003	 1.79034851210244E-0001	
 3.70050000000000E+0003	 1.78214863172243E-0001	
 3.70250000000000E+0003	 1.77433375134242E-0001	
 3.70450000000000E+0003	 1.76666887096241E-0001	
 3.70650000000000E+0003	 1.75952899058240E-0001	
 3.70850000000000E+0003	 1.75279911020240E-0001	
 3.71050000000000E+0003	 1.74626422982239E-0001	
 3.71250000000000E+0003	 1.74017434944238E-0001	
 3.71450000000000E+0003	 1.73443946906237E-0001	
 3.71650000000000E+0003	 1.72890458868236E-0001	
 3.71850000000000E+0003	 1.72339470830235E-0001	
 3.72050000000000E+0003	 1.71800482792235E-0001	
 3.72250000000000E+0003	 1.71297994754234E-0001	
 3.72450000000000E+0003	 1.70806006716233E-0001	
 3.72650000000000E+0003	 1.70328518678232E-0001	
 3.72850000000000E+0003	 1.69853030640231E-0001	
 3.73050000000000E+0003	 1.69395542602230E-0001	
 3.73250000000000E+0003	 1.69005054564230E-0001	
 3.73450000000000E+0003	 1.68665066526229E-0001	
 3.73650000000000E+0003	 1.68354578488228E-0001	
 3.73850000000000E+0003	 1.67963590450227E-0001	
 3.74050000000000E+0003	 1.67571602412226E-0001	
 3.74250000000000E+0003	 1.67137614374226E-0001	
 3.74450000000000E+0003	 1.66691126336225E-0001	
 3.74650000000000E+0003	 1.66290138298224E-0001	
 3.74850000000000E+0003	 1.65945650260223E-0001	
 3.75050000000000E+0003	 1.65621162222222E-0001	
 3.75250000000000E+0003	 1.65348674184221E-0001	
 3.75450000000000E+0003	 1.65083186146221E-0001	
 3.75650000000000E+0003	 1.64814198108220E-0001	
 3.75850000000000E+0003	 1.64547210070219E-0001	
 3.76050000000000E+0003	 1.64296222032218E-0001	
 3.76250000000000E+0003	 1.64010233994217E-0001	
 3.76450000000000E+0003	 1.63725745956216E-0001	
 3.76650000000000E+0003	 1.63475257918216E-0001	
 3.76850000000000E+0003	 1.63212769880215E-0001	
 3.77050000000000E+0003	 1.62984281842214E-0001	
 3.77250000000000E+0003	 1.62740293804213E-0001	
 3.77450000000000E+0003	 1.62482805766212E-0001	
 3.77650000000000E+0003	 1.62241817728211E-0001	
 3.77850000000000E+0003	 1.62047829690211E-0001	
 3.78050000000000E+0003	 1.61862341652210E-0001	
 3.78250000000000E+0003	 1.61606353614209E-0001	
 3.78450000000000E+0003	 1.61362865576208E-0001	
 3.78650000000000E+0003	 1.61141877538207E-0001	
 3.78850000000000E+0003	 1.60942389500207E-0001	
 3.79050000000000E+0003	 1.60750401462206E-0001	
 3.79250000000000E+0003	 1.60533913424205E-0001	
 3.79450000000000E+0003	 1.60292925386204E-0001	
 3.79650000000000E+0003	 1.60108437348203E-0001	
 3.79850000000000E+0003	 1.59932949310202E-0001	
 3.80050000000000E+0003	 1.59704961272202E-0001	
 3.80250000000000E+0003	 1.59523973234201E-0001	
 3.80450000000000E+0003	 1.59336985196200E-0001	
 3.80650000000000E+0003	 1.59204997158199E-0001	
 3.80850000000000E+0003	 1.59075009120198E-0001	
 3.81050000000000E+0003	 1.58904021082197E-0001	
 3.81250000000000E+0003	 1.58744033044197E-0001	
 3.81450000000000E+0003	 1.58546545006196E-0001	
 3.81650000000000E+0003	 1.58396556968195E-0001	
 3.81850000000000E+0003	 1.58260068930194E-0001	
 3.82050000000000E+0003	 1.58174080892193E-0001	
 3.82250000000000E+0003	 1.58085092854192E-0001	
 3.82450000000000E+0003	 1.57884104816192E-0001	
 3.82650000000000E+0003	 1.57728116778191E-0001	
 3.82850000000000E+0003	 1.57588628740190E-0001	
 3.83050000000000E+0003	 1.57459140702189E-0001	
 3.83250000000000E+0003	 1.57378652664188E-0001	
 3.83450000000000E+0003	 1.57323664626188E-0001	
 3.83650000000000E+0003	 1.57211676588187E-0001	
 3.83850000000000E+0003	 1.57011188550186E-0001	
 3.84050000000000E+0003	 1.56856700512185E-0001	
 3.84250000000000E+0003	 1.56776712474184E-0001	
 3.84450000000000E+0003	 1.56712724436183E-0001	
 3.84650000000000E+0003	 1.56596736398183E-0001	
 3.84850000000000E+0003	 1.56458748360182E-0001	
 3.85050000000000E+0003	 1.56325260322181E-0001	
 3.85250000000000E+0003	 1.56208272284180E-0001	
 3.85450000000000E+0003	 1.56193284246179E-0001	
 3.85650000000000E+0003	 1.56081796208178E-0001	
 3.85850000000000E+0003	 1.55963308170178E-0001	
 3.86050000000000E+0003	 1.55870820132177E-0001	
 3.86250000000000E+0003	 1.55797832094176E-0001	
 3.86450000000000E+0003	 1.55745344056175E-0001	
 3.86650000000000E+0003	 1.55684356018174E-0001	
 3.86850000000000E+0003	 1.55582867980173E-0001	
 3.87050000000000E+0003	 1.55528879942173E-0001	
 3.87250000000000E+0003	 1.55454391904172E-0001	
 3.87450000000000E+0003	 1.55403903866171E-0001	
 3.87650000000000E+0003	 1.55318415828170E-0001	
 3.87850000000000E+0003	 1.55233927790169E-0001	
 3.88050000000000E+0003	 1.55214939752169E-0001	
 3.88250000000000E+0003	 1.55183451714168E-0001	
 3.88450000000000E+0003	 1.55126463676167E-0001	
 3.88650000000000E+0003	 1.55076475638166E-0001	
 3.88850000000000E+0003	 1.54980987600165E-0001	
 3.89050000000000E+0003	 1.54942999562164E-0001	
 3.89250000000000E+0003	 1.54913511524164E-0001	
 3.89450000000000E+0003	 1.54830023486163E-0001	
 3.89650000000000E+0003	 1.54763035448162E-0001	
 3.89850000000000E+0003	 1.54729047410161E-0001	
 3.90050000000000E+0003	 1.54679059372160E-0001	
 3.90250000000000E+0003	 1.54626571334159E-0001	
 3.90450000000000E+0003	 1.54645583296159E-0001	
 3.90650000000000E+0003	 1.54631595258158E-0001	
 3.90850000000000E+0003	 1.54567607220157E-0001	
 3.91050000000000E+0003	 1.54519119182156E-0001	
 3.91250000000000E+0003	 1.54487131144155E-0001	
 3.91450000000000E+0003	 1.54445143106154E-0001	
 3.91650000000000E+0003	 1.54407655068154E-0001	
 3.91850000000000E+0003	 1.54382167030153E-0001	
 3.92050000000000E+0003	 1.54364678992152E-0001	
 3.92250000000000E+0003	 1.54338190954151E-0001	
 3.92450000000000E+0003	 1.54328702916150E-0001	
 3.92650000000000E+0003	 1.54316214878150E-0001	
 3.92850000000000E+0003	 1.54279226840149E-0001	
 3.93050000000000E+0003	 1.54246238802148E-0001	
 3.93250000000000E+0003	 1.54224250764147E-0001	
 3.93450000000000E+0003	 1.54213262726146E-0001	
 3.93650000000000E+0003	 1.54176774688145E-0001	
 3.93850000000000E+0003	 1.54131786650145E-0001	
 3.94050000000000E+0003	 1.54098298612144E-0001	
 3.94250000000000E+0003	 1.54086310574143E-0001	
 3.94450000000000E+0003	 1.54065322536142E-0001	
 3.94650000000000E+0003	 1.54029334498141E-0001	
 3.94850000000000E+0003	 1.54009346460140E-0001	
 3.95050000000000E+0003	 1.53995358422140E-0001	
 3.95250000000000E+0003	 1.53971370384139E-0001	
 3.95450000000000E+0003	 1.53944382346138E-0001	
 3.95650000000000E+0003	 1.53922894308137E-0001	
 3.95850000000000E+0003	 1.53901906270136E-0001	
 3.96050000000000E+0003	 1.53871418232135E-0001	
 3.96250000000000E+0003	 1.53842930194135E-0001	
 3.96450000000000E+0003	 1.53826942156134E-0001	
 3.96650000000000E+0003	 1.53811454118133E-0001	
 3.96850000000000E+0003	 1.53790466080132E-0001	
 3.97050000000000E+0003	 1.53771478042131E-0001	
 3.97250000000000E+0003	 1.53753990004131E-0001	
 3.97450000000000E+0003	 1.53735501966130E-0001	
 3.97650000000000E+0003	 1.53720513928129E-0001	
 3.97850000000000E+0003	 1.53707025890128E-0001	
 3.98050000000000E+0003	 1.53689037852127E-0001	
 3.98250000000000E+0003	 1.53681549814126E-0001	
 3.98450000000000E+0003	 1.53675061776126E-0001	
 3.98650000000000E+0003	 1.53642073738125E-0001	
 3.98850000000000E+0003	 1.53596085700124E-0001	
 3.99050000000000E+0003	 1.53562597662123E-0001	
 3.99250000000000E+0003	 1.53539609624122E-0001	
 3.99450000000000E+0003	 1.53524621586121E-0001	
 3.99650000000000E+0003	 1.53469633548121E-0001	
 3.99850000000000E+0003	 1.53484645510120E-0001	

>1	DATALINE
