*CPCWIN*

>1	DATALINE
DATALINE
1
Operator:

Description:

Remarks:





15.9.2008
11:30


_x	_y
	
	
UNIT	UNIT
 4.50500000000000E+0002	 8.97051815099621E-0002	
 4.52500000000000E+0002	 8.99155920168937E-0002	
 4.54500000000000E+0002	 9.02560025238252E-0002	
 4.56500000000000E+0002	 9.08169130307567E-0002	
 4.58500000000000E+0002	 9.12878235376882E-0002	
 4.60500000000000E+0002	 9.17457340446197E-0002	
 4.62500000000000E+0002	 9.22231445515512E-0002	
 4.64500000000000E+0002	 9.28915550584827E-0002	
 4.66500000000000E+0002	 9.33514655654142E-0002	
 4.68500000000000E+0002	 9.37458760723458E-0002	
 4.70500000000000E+0002	 9.40817865792773E-0002	
 4.72500000000000E+0002	 9.45196970862088E-0002	
 4.74500000000000E+0002	 9.50531075931403E-0002	
 4.76500000000000E+0002	 9.56190181000718E-0002	
 4.78500000000000E+0002	 9.60909286070033E-0002	
 4.80500000000000E+0002	 9.65443391139348E-0002	
 4.82500000000000E+0002	 9.69167496208663E-0002	
 4.84500000000000E+0002	 9.73846601277979E-0002	
 4.86500000000000E+0002	 9.79975706347294E-0002	
 4.88500000000000E+0002	 9.85929811416609E-0002	
 4.90500000000000E+0002	 9.90203916485924E-0002	
 4.92500000000000E+0002	 9.95733021555239E-0002	
 4.94500000000000E+0002	 1.00306212662455E-0001	
 4.96500000000000E+0002	 1.00985123169387E-0001	
 4.98500000000000E+0002	 1.01582533676318E-0001	
 5.00500000000000E+0002	 1.02199944183250E-0001	
 5.02500000000000E+0002	 1.02779354690181E-0001	
 5.04500000000000E+0002	 1.03391265197113E-0001	
 5.06500000000000E+0002	 1.03938175704044E-0001	
 5.08500000000000E+0002	 1.04413086210976E-0001	
 5.10500000000000E+0002	 1.04907996717908E-0001	
 5.12500000000000E+0002	 1.05522907224839E-0001	
 5.14500000000000E+0002	 1.06166817731771E-0001	
 5.16500000000000E+0002	 1.06781728238702E-0001	
 5.18500000000000E+0002	 1.07322638745634E-0001	
 5.20500000000000E+0002	 1.07928049252565E-0001	
 5.22500000000000E+0002	 1.08504459759497E-0001	
 5.24500000000000E+0002	 1.08959370266428E-0001	
 5.26500000000000E+0002	 1.09345780773360E-0001	
 5.28500000000000E+0002	 1.09754691280291E-0001	
 5.30500000000000E+0002	 1.10028101787223E-0001	
 5.32500000000000E+0002	 1.10374512294154E-0001	
 5.34500000000000E+0002	 1.10672422801086E-0001	
 5.36500000000000E+0002	 1.10836833308017E-0001	
 5.38500000000000E+0002	 1.10852243814949E-0001	
 5.40500000000000E+0002	 1.10852154321880E-0001	
 5.42500000000000E+0002	 1.10878064828812E-0001	
 5.44500000000000E+0002	 1.10959975335743E-0001	
 5.46500000000000E+0002	 1.10867385842675E-0001	
 5.48500000000000E+0002	 1.10831296349606E-0001	
 5.50500000000000E+0002	 1.10845706856538E-0001	
 5.52500000000000E+0002	 1.10955117363469E-0001	
 5.54500000000000E+0002	 1.11098027870401E-0001	
 5.56500000000000E+0002	 1.11212438377332E-0001	
 5.58500000000000E+0002	 1.11290348884264E-0001	
 5.60500000000000E+0002	 1.11410759391195E-0001	
 5.62500000000000E+0002	 1.11458169898127E-0001	
 5.64500000000000E+0002	 1.11414580405058E-0001	
 5.66500000000000E+0002	 1.11291490911990E-0001	
 5.68500000000000E+0002	 1.11198901418921E-0001	
 5.70500000000000E+0002	 1.11222811925853E-0001	
 5.72500000000000E+0002	 1.11248722432784E-0001	
 5.74500000000000E+0002	 1.11287632939716E-0001	
 5.76500000000000E+0002	 1.11333543446647E-0001	
 5.78500000000000E+0002	 1.11333453953579E-0001	
 5.80500000000000E+0002	 1.11123364460510E-0001	
 5.82500000000000E+0002	 1.10889774967442E-0001	
 5.84500000000000E+0002	 1.10661185474373E-0001	
 5.86500000000000E+0002	 1.10517095981305E-0001	
 5.88500000000000E+0002	 1.10392006488237E-0001	
 5.90500000000000E+0002	 1.10382916995168E-0001	
 5.92500000000000E+0002	 1.10435327502100E-0001	
 5.94500000000000E+0002	 1.10599238009031E-0001	
 5.96500000000000E+0002	 1.10752648515963E-0001	
 5.98500000000000E+0002	 1.10941059022894E-0001	
 6.00500000000000E+0002	 1.11087969529826E-0001	
 6.02500000000000E+0002	 1.11268880036757E-0001	
 6.04500000000000E+0002	 1.11428290543689E-0001	
 6.06500000000000E+0002	 1.11615201050620E-0001	
 6.08500000000000E+0002	 1.11834611557552E-0001	
 6.10500000000000E+0002	 1.12062022064483E-0001	
 6.12500000000000E+0002	 1.12223932571415E-0001	
 6.14500000000000E+0002	 1.12333843078346E-0001	
 6.16500000000000E+0002	 1.12400753585278E-0001	
 6.18500000000000E+0002	 1.12349664092209E-0001	
 6.20500000000000E+0002	 1.12180074599141E-0001	
 6.22500000000000E+0002	 1.11861985106072E-0001	
 6.24500000000000E+0002	 1.11516895613004E-0001	
 6.26500000000000E+0002	 1.11230306119935E-0001	
 6.28500000000000E+0002	 1.11083716626867E-0001	
 6.30500000000000E+0002	 1.10899127133798E-0001	
 6.32500000000000E+0002	 1.10719537640730E-0001	
 6.34500000000000E+0002	 1.10485448147661E-0001	
 6.36500000000000E+0002	 1.10379858654593E-0001	
 6.38500000000000E+0002	 1.10279769161524E-0001	
 6.40500000000000E+0002	 1.10211179668456E-0001	
 6.42500000000000E+0002	 1.10091090175387E-0001	
 6.44500000000000E+0002	 1.09980000682319E-0001	
 6.46500000000000E+0002	 1.09793911189250E-0001	
 6.48500000000000E+0002	 1.09643821696182E-0001	
 6.50500000000000E+0002	 1.09497732203113E-0001	
 6.52500000000000E+0002	 1.09379642710045E-0001	
 6.54500000000000E+0002	 1.09285053216976E-0001	
 6.56500000000000E+0002	 1.09252963723908E-0001	
 6.58500000000000E+0002	 1.09219374230839E-0001	
 6.60500000000000E+0002	 1.09204284737771E-0001	
 6.62500000000000E+0002	 1.09205195244702E-0001	
 6.64500000000000E+0002	 1.09221105751634E-0001	
 6.66500000000000E+0002	 1.09468016258565E-0001	
 6.68500000000000E+0002	 1.09534926765497E-0001	
 6.70500000000000E+0002	 1.08841837272429E-0001	
 6.72500000000000E+0002	 1.08430247779360E-0001	
 6.74500000000000E+0002	 1.08180158286292E-0001	
 6.76500000000000E+0002	 1.07920568793223E-0001	
 6.78500000000000E+0002	 1.07658979300155E-0001	
 6.80500000000000E+0002	 1.07392389807086E-0001	
 6.82500000000000E+0002	 1.07159800314018E-0001	
 6.84500000000000E+0002	 1.06955710820949E-0001	
 6.86500000000000E+0002	 1.06826621327881E-0001	
 6.88500000000000E+0002	 1.06688031834812E-0001	
 6.90500000000000E+0002	 1.06610442341744E-0001	
 6.92500000000000E+0002	 1.06574352848675E-0001	
 6.94500000000000E+0002	 1.06614763355607E-0001	
 6.96500000000000E+0002	 1.06663673862538E-0001	
 6.98500000000000E+0002	 1.06738084369470E-0001	
 7.00500000000000E+0002	 1.06748994876401E-0001	
 7.02500000000000E+0002	 1.06619905383333E-0001	
 7.04500000000000E+0002	 1.06371815890264E-0001	
 7.06500000000000E+0002	 1.06059226397196E-0001	
 7.08500000000000E+0002	 1.05741136904127E-0001	
 7.10500000000000E+0002	 1.05447547411059E-0001	
 7.12500000000000E+0002	 1.05165457917990E-0001	
 7.14500000000000E+0002	 1.04678368424922E-0001	
 7.16500000000000E+0002	 1.04135278931853E-0001	
 7.18500000000000E+0002	 1.03676689438785E-0001	
 7.20500000000000E+0002	 1.03316599945716E-0001	
 7.22500000000000E+0002	 1.02875010452648E-0001	
 7.24500000000000E+0002	 1.02345420959579E-0001	
 7.26500000000000E+0002	 1.01718331466511E-0001	
 7.28500000000000E+0002	 1.01109241973442E-0001	
 7.30500000000000E+0002	 1.00469652480374E-0001	
 7.32500000000000E+0002	 9.99135629873054E-0002	
 7.34500000000000E+0002	 9.94029734942369E-0002	
 7.36500000000000E+0002	 9.89918840011684E-0002	
 7.38500000000000E+0002	 9.86232945081000E-0002	
 7.40500000000000E+0002	 9.83137050150315E-0002	
 7.42500000000000E+0002	 9.80456155219630E-0002	
 7.44500000000000E+0002	 9.78400260288945E-0002	
 7.46500000000000E+0002	 9.76679365358260E-0002	
 7.48500000000000E+0002	 9.74823470427575E-0002	
 7.50500000000000E+0002	 9.72232575496890E-0002	
 7.52500000000000E+0002	 9.69431680566205E-0002	
 7.54500000000000E+0002	 9.66550785635521E-0002	
 7.56500000000000E+0002	 9.63024890704836E-0002	
 7.58500000000000E+0002	 9.59208995774151E-0002	
 7.60500000000000E+0002	 9.55283100843466E-0002	
 7.62500000000000E+0002	 9.52102205912781E-0002	
 7.64500000000000E+0002	 9.49456310982096E-0002	
 7.66500000000000E+0002	 9.46145416051411E-0002	
 7.68500000000000E+0002	 9.41549521120726E-0002	
 7.70500000000000E+0002	 9.36983626190042E-0002	
 7.72500000000000E+0002	 9.33437731259357E-0002	
 7.74500000000000E+0002	 9.31646836328672E-0002	
 7.76500000000000E+0002	 9.32520941397987E-0002	
 7.78500000000000E+0002	 9.35415046467302E-0002	
 7.80500000000000E+0002	 9.36464151536617E-0002	
 7.82500000000000E+0002	 9.33278256605932E-0002	
 7.84500000000000E+0002	 9.28667361675247E-0002	
 7.86500000000000E+0002	 9.24846466744563E-0002	
 7.88500000000000E+0002	 9.22280571813878E-0002	
 7.90500000000000E+0002	 9.20764676883193E-0002	
 7.92500000000000E+0002	 9.20828781952508E-0002	
 7.94500000000000E+0002	 9.22792887021823E-0002	
 7.96500000000000E+0002	 9.25421992091138E-0002	
 7.98500000000000E+0002	 9.26726097160453E-0002	
 8.00500000000000E+0002	 9.27175202229768E-0002	
 8.02500000000000E+0002	 9.27389307299084E-0002	
 8.04500000000000E+0002	 9.26693412368399E-0002	
 8.06500000000000E+0002	 9.24672517437714E-0002	
 8.08500000000000E+0002	 9.21716622507029E-0002	
 8.10500000000000E+0002	 9.18055727576344E-0002	
 8.12500000000000E+0002	 9.14074832645659E-0002	
 8.14500000000000E+0002	 9.10613937714974E-0002	
 8.16500000000000E+0002	 9.07658042784289E-0002	
 8.18500000000000E+0002	 9.05107147853605E-0002	
 8.20500000000000E+0002	 9.02936252922920E-0002	
 8.22500000000000E+0002	 9.01520357992235E-0002	
 8.24500000000000E+0002	 9.00119463061550E-0002	
 8.26500000000000E+0002	 8.98958568130865E-0002	
 8.28500000000000E+0002	 8.98067673200180E-0002	
 8.30500000000000E+0002	 8.97631778269495E-0002	
 8.32500000000000E+0002	 8.97065883338810E-0002	
 8.34500000000000E+0002	 8.96859988408126E-0002	
 8.36500000000000E+0002	 8.97214093477441E-0002	
 8.38500000000000E+0002	 8.97473198546756E-0002	
 8.40500000000000E+0002	 8.97497303616071E-0002	
 8.42500000000000E+0002	 8.97801408685386E-0002	
 8.44500000000000E+0002	 8.98815513754701E-0002	
 8.46500000000000E+0002	 9.00214618824016E-0002	
 8.48500000000000E+0002	 9.02653723893331E-0002	
 8.50500000000000E+0002	 9.05557828962647E-0002	
 8.52500000000000E+0002	 9.09506934031962E-0002	
 8.54500000000000E+0002	 9.13751039101277E-0002	
 8.56500000000000E+0002	 9.18390144170592E-0002	
 8.58500000000000E+0002	 9.22744249239907E-0002	
 8.60500000000000E+0002	 9.26633354309222E-0002	
 8.62500000000000E+0002	 9.28517459378537E-0002	
 8.64500000000000E+0002	 9.28981564447852E-0002	
 8.66500000000000E+0002	 9.28615669517168E-0002	
 8.68500000000000E+0002	 9.31049774586483E-0002	
 8.70500000000000E+0002	 9.40333879655798E-0002	
 8.72500000000000E+0002	 9.49917984725113E-0002	
 8.74500000000000E+0002	 9.46052089794428E-0002	
 8.76500000000000E+0002	 9.34171194863743E-0002	
 8.78500000000000E+0002	 9.23450299933058E-0002	
 8.80500000000000E+0002	 9.15614405002373E-0002	
 8.82500000000000E+0002	 9.09778510071689E-0002	
 8.84500000000000E+0002	 9.05407615141004E-0002	
 8.86500000000000E+0002	 9.01891720210319E-0002	
 8.88500000000000E+0002	 8.99400825279634E-0002	
 8.90500000000000E+0002	 8.98144930348949E-0002	
 8.92500000000000E+0002	 8.97704035418264E-0002	
 8.94500000000000E+0002	 8.97743140487579E-0002	
 8.96500000000000E+0002	 8.97797245556894E-0002	
 8.98500000000000E+0002	 8.97521350626210E-0002	
 9.00500000000000E+0002	 8.96520455695525E-0002	
 9.02500000000000E+0002	 8.95909560764840E-0002	
 9.04500000000000E+0002	 8.96293665834155E-0002	
 9.06500000000000E+0002	 8.98022770903470E-0002	
 9.08500000000000E+0002	 9.01081875972785E-0002	
 9.10500000000000E+0002	 9.05100981042100E-0002	
 9.12500000000000E+0002	 9.08975086111415E-0002	
 9.14500000000000E+0002	 9.11574191180731E-0002	
 9.16500000000000E+0002	 9.12333296250046E-0002	
 9.18500000000000E+0002	 9.11482401319361E-0002	
 9.20500000000000E+0002	 9.10021506388676E-0002	
 9.22500000000000E+0002	 9.08710611457991E-0002	
 9.24500000000000E+0002	 9.08669716527306E-0002	
 9.26500000000000E+0002	 9.09948821596621E-0002	
 9.28500000000000E+0002	 9.13112926665936E-0002	
 9.30500000000000E+0002	 9.17062031735252E-0002	
 9.32500000000000E+0002	 9.21691136804567E-0002	
 9.34500000000000E+0002	 9.26110241873882E-0002	
 9.36500000000000E+0002	 9.30919346943197E-0002	
 9.38500000000000E+0002	 9.35408452012512E-0002	
 9.40500000000000E+0002	 9.40077557081827E-0002	
 9.42500000000000E+0002	 9.44186662151142E-0002	
 9.44500000000000E+0002	 9.48080767220457E-0002	
 9.46500000000000E+0002	 9.50934872289773E-0002	
 9.48500000000000E+0002	 9.53158977359088E-0002	
 9.50500000000000E+0002	 9.54638082428403E-0002	
 9.52500000000000E+0002	 9.56822187497718E-0002	
 9.54500000000000E+0002	 9.60511292567033E-0002	
 9.56500000000000E+0002	 9.66490397636348E-0002	
 9.58500000000000E+0002	 9.74544502705663E-0002	
 9.60500000000000E+0002	 9.84188607774978E-0002	
 9.62500000000000E+0002	 9.94732712844294E-0002	
 9.64500000000000E+0002	 1.00517681791361E-0001	
 9.66500000000000E+0002	 1.01505592298292E-0001	
 9.68500000000000E+0002	 1.02379002805224E-0001	
 9.70500000000000E+0002	 1.03226413312155E-0001	
 9.72500000000000E+0002	 1.04110823819087E-0001	
 9.74500000000000E+0002	 1.05224234326018E-0001	
 9.76500000000000E+0002	 1.06697644832950E-0001	
 9.78500000000000E+0002	 1.08713555339881E-0001	
 9.80500000000000E+0002	 1.11230965846813E-0001	
 9.82500000000000E+0002	 1.14187876353744E-0001	
 9.84500000000000E+0002	 1.17283786860676E-0001	
 9.86500000000000E+0002	 1.20221197367608E-0001	
 9.88500000000000E+0002	 1.22701607874539E-0001	
 9.90500000000000E+0002	 1.24604018381471E-0001	
 9.92500000000000E+0002	 1.25806428888402E-0001	
 9.94500000000000E+0002	 1.26366339395334E-0001	
 9.96500000000000E+0002	 1.26431749902265E-0001	
 9.98500000000000E+0002	 1.26263660409197E-0001	
 1.00050000000000E+0003	 1.26165070916128E-0001	
 1.00250000000000E+0003	 1.26387481423060E-0001	
 1.00450000000000E+0003	 1.27148891929991E-0001	
 1.00650000000000E+0003	 1.28513302436923E-0001	
 1.00850000000000E+0003	 1.30407212943854E-0001	
 1.01050000000000E+0003	 1.32580623450786E-0001	
 1.01250000000000E+0003	 1.34870033957717E-0001	
 1.01450000000000E+0003	 1.37055944464649E-0001	
 1.01650000000000E+0003	 1.39088354971580E-0001	
 1.01850000000000E+0003	 1.40965765478512E-0001	
 1.02050000000000E+0003	 1.42864175985443E-0001	
 1.02250000000000E+0003	 1.44850086492375E-0001	
 1.02450000000000E+0003	 1.47024496999306E-0001	
 1.02650000000000E+0003	 1.49241407506238E-0001	
 1.02850000000000E+0003	 1.51331318013169E-0001	
 1.03050000000000E+0003	 1.53086228520101E-0001	
 1.03250000000000E+0003	 1.54460639027032E-0001	
 1.03450000000000E+0003	 1.55416049533964E-0001	
 1.03650000000000E+0003	 1.56075960040895E-0001	
 1.03850000000000E+0003	 1.56588370547827E-0001	
 1.04050000000000E+0003	 1.57135281054758E-0001	
 1.04250000000000E+0003	 1.57834691561690E-0001	
 1.04450000000000E+0003	 1.58756102068621E-0001	
 1.04650000000000E+0003	 1.59850012575553E-0001	
 1.04850000000000E+0003	 1.60965923082484E-0001	
 1.05050000000000E+0003	 1.61934833589416E-0001	
 1.05250000000000E+0003	 1.62683744096347E-0001	
 1.05450000000000E+0003	 1.63293154603279E-0001	
 1.05650000000000E+0003	 1.63761565110210E-0001	
 1.05850000000000E+0003	 1.64103475617142E-0001	
 1.06050000000000E+0003	 1.64248386124073E-0001	
 1.06250000000000E+0003	 1.64195796631005E-0001	
 1.06450000000000E+0003	 1.64041707137936E-0001	
 1.06650000000000E+0003	 1.63969117644868E-0001	
 1.06850000000000E+0003	 1.64087528151800E-0001	
 1.07050000000000E+0003	 1.64422438658731E-0001	
 1.07250000000000E+0003	 1.64890349165663E-0001	
 1.07450000000000E+0003	 1.65358259672594E-0001	
 1.07650000000000E+0003	 1.65686670179526E-0001	
 1.07850000000000E+0003	 1.65730080686457E-0001	
 1.08050000000000E+0003	 1.65444491193389E-0001	
 1.08250000000000E+0003	 1.64841901700320E-0001	
 1.08450000000000E+0003	 1.63970812207252E-0001	
 1.08650000000000E+0003	 1.62848222714183E-0001	
 1.08850000000000E+0003	 1.61527133221115E-0001	
 1.09050000000000E+0003	 1.60073543728046E-0001	
 1.09250000000000E+0003	 1.58674454234978E-0001	
 1.09450000000000E+0003	 1.57480864741909E-0001	
 1.09650000000000E+0003	 1.56567775248841E-0001	
 1.09850000000000E+0003	 1.55879685755772E-0001	
 1.10050000000000E+0003	 1.55341096262704E-0001	
 1.10250000000000E+0003	 1.54897006769635E-0001	
 1.10450000000000E+0003	 1.54489417276567E-0001	
 1.10650000000000E+0003	 1.54065827783498E-0001	
 1.10850000000000E+0003	 1.53617238290430E-0001	
 1.11050000000000E+0003	 1.53195648797361E-0001	
 1.11250000000000E+0003	 1.52741559304293E-0001	
 1.11450000000000E+0003	 1.52094469811224E-0001	
 1.11650000000000E+0003	 1.51112380318156E-0001	
 1.11850000000000E+0003	 1.49828290825087E-0001	
 1.12050000000000E+0003	 1.48245701332019E-0001	
 1.12250000000000E+0003	 1.46388611838950E-0001	
 1.12450000000000E+0003	 1.44284522345882E-0001	
 1.12650000000000E+0003	 1.41987932852813E-0001	
 1.12850000000000E+0003	 1.39552843359745E-0001	
 1.13050000000000E+0003	 1.37048253866676E-0001	
 1.13250000000000E+0003	 1.34644664373608E-0001	
 1.13450000000000E+0003	 1.32464574880539E-0001	
 1.13650000000000E+0003	 1.30616985387471E-0001	
 1.13850000000000E+0003	 1.29206895894402E-0001	
 1.14050000000000E+0003	 1.28327806401334E-0001	
 1.14250000000000E+0003	 1.27950216908265E-0001	
 1.14450000000000E+0003	 1.27989127415197E-0001	
 1.14650000000000E+0003	 1.28216537922129E-0001	
 1.14850000000000E+0003	 1.28405448429060E-0001	
 1.15050000000000E+0003	 1.28308858935992E-0001	
 1.15250000000000E+0003	 1.27864269442923E-0001	
 1.15450000000000E+0003	 1.27056679949855E-0001	
 1.15650000000000E+0003	 1.25967090456786E-0001	
 1.15850000000000E+0003	 1.24668000963718E-0001	
 1.16050000000000E+0003	 1.23313411470649E-0001	
 1.16250000000000E+0003	 1.21949321977581E-0001	
 1.16450000000000E+0003	 1.20597232484512E-0001	
 1.16650000000000E+0003	 1.19268142991444E-0001	
 1.16850000000000E+0003	 1.18027053498375E-0001	
 1.17050000000000E+0003	 1.16894964005307E-0001	
 1.17250000000000E+0003	 1.15831374512238E-0001	
 1.17450000000000E+0003	 1.14763785019170E-0001	
 1.17650000000000E+0003	 1.13727195526101E-0001	
 1.17850000000000E+0003	 1.12792106033033E-0001	
 1.18050000000000E+0003	 1.12047516539964E-0001	
 1.18250000000000E+0003	 1.11549927046896E-0001	
 1.18450000000000E+0003	 1.11355837553827E-0001	
 1.18650000000000E+0003	 1.11503248060759E-0001	
 1.18850000000000E+0003	 1.12031158567690E-0001	
 1.19050000000000E+0003	 1.12935569074622E-0001	
 1.19250000000000E+0003	 1.14207979581553E-0001	
 1.19450000000000E+0003	 1.15777890088485E-0001	
 1.19650000000000E+0003	 1.17590300595416E-0001	
 1.19850000000000E+0003	 1.19553211102348E-0001	
 1.20050000000000E+0003	 1.21564121609279E-0001	
 1.20250000000000E+0003	 1.23524032116211E-0001	
 1.20450000000000E+0003	 1.25372442623142E-0001	
 1.20650000000000E+0003	 1.27056853130074E-0001	
 1.20850000000000E+0003	 1.28531263637005E-0001	
 1.21050000000000E+0003	 1.29811174143937E-0001	
 1.21250000000000E+0003	 1.30972084650868E-0001	
 1.21450000000000E+0003	 1.32083495157800E-0001	
 1.21650000000000E+0003	 1.33104905664731E-0001	
 1.21850000000000E+0003	 1.34014816171663E-0001	
 1.22050000000000E+0003	 1.34793726678594E-0001	
 1.22250000000000E+0003	 1.35442637185526E-0001	
 1.22450000000000E+0003	 1.36005547692457E-0001	
 1.22650000000000E+0003	 1.36547458199389E-0001	
 1.22850000000000E+0003	 1.37088368706321E-0001	
 1.23050000000000E+0003	 1.37619779213252E-0001	
 1.23250000000000E+0003	 1.38115689720184E-0001	
 1.23450000000000E+0003	 1.38510600227115E-0001	
 1.23650000000000E+0003	 1.38774010734047E-0001	
 1.23850000000000E+0003	 1.38865921240978E-0001	
 1.24050000000000E+0003	 1.38779831747910E-0001	
 1.24250000000000E+0003	 1.38494742254841E-0001	
 1.24450000000000E+0003	 1.38029152761773E-0001	
 1.24650000000000E+0003	 1.37369063268704E-0001	
 1.24850000000000E+0003	 1.36543973775636E-0001	
 1.25050000000000E+0003	 1.35575884282567E-0001	
 1.25250000000000E+0003	 1.34521794789499E-0001	
 1.25450000000000E+0003	 1.33406705296430E-0001	
 1.25650000000000E+0003	 1.32279615803362E-0001	
 1.25850000000000E+0003	 1.31105526310293E-0001	
 1.26050000000000E+0003	 1.29866936817225E-0001	
 1.26250000000000E+0003	 1.28536347324156E-0001	
 1.26450000000000E+0003	 1.27113257831088E-0001	
 1.26650000000000E+0003	 1.25673668338019E-0001	
 1.26850000000000E+0003	 1.24318578844951E-0001	
 1.27050000000000E+0003	 1.23100989351882E-0001	
 1.27250000000000E+0003	 1.22039899858814E-0001	
 1.27450000000000E+0003	 1.21130310365745E-0001	
 1.27650000000000E+0003	 1.20315720872677E-0001	
 1.27850000000000E+0003	 1.19613631379608E-0001	
 1.28050000000000E+0003	 1.18996541886540E-0001	
 1.28250000000000E+0003	 1.18388952393471E-0001	
 1.28450000000000E+0003	 1.17706862900403E-0001	
 1.28650000000000E+0003	 1.17012273407334E-0001	
 1.28850000000000E+0003	 1.16385183914266E-0001	
 1.29050000000000E+0003	 1.15886094421197E-0001	
 1.29250000000000E+0003	 1.15495004928129E-0001	
 1.29450000000000E+0003	 1.15190915435060E-0001	
 1.29650000000000E+0003	 1.15004825941992E-0001	
 1.29850000000000E+0003	 1.14969736448923E-0001	
 1.30050000000000E+0003	 1.15073146955855E-0001	
 1.30250000000000E+0003	 1.15252057462786E-0001	
 1.30450000000000E+0003	 1.15480967969718E-0001	
 1.30650000000000E+0003	 1.15717378476650E-0001	
 1.30850000000000E+0003	 1.15991788983581E-0001	
 1.31050000000000E+0003	 1.16242699490513E-0001	
 1.31250000000000E+0003	 1.16482109997444E-0001	
 1.31450000000000E+0003	 1.16698020504376E-0001	
 1.31650000000000E+0003	 1.16849931011307E-0001	
 1.31850000000000E+0003	 1.16868341518239E-0001	
 1.32050000000000E+0003	 1.16841252025170E-0001	
 1.32250000000000E+0003	 1.16720662532102E-0001	
 1.32450000000000E+0003	 1.16538573039033E-0001	
 1.32650000000000E+0003	 1.16312483545965E-0001	
 1.32850000000000E+0003	 1.16125394052896E-0001	
 1.33050000000000E+0003	 1.15970304559828E-0001	
 1.33250000000000E+0003	 1.15834715066759E-0001	
 1.33450000000000E+0003	 1.15607125573691E-0001	
 1.33650000000000E+0003	 1.15232536080622E-0001	
 1.33850000000000E+0003	 1.14760946587554E-0001	
 1.34050000000000E+0003	 1.14406857094485E-0001	
 1.34250000000000E+0003	 1.14097767601417E-0001	
 1.34450000000000E+0003	 1.13617178108348E-0001	
 1.34650000000000E+0003	 1.13039588615280E-0001	
 1.34850000000000E+0003	 1.12502999122211E-0001	
 1.35050000000000E+0003	 1.12107909629143E-0001	
 1.35250000000000E+0003	 1.11829320136074E-0001	
 1.35450000000000E+0003	 1.11679730643006E-0001	
 1.35650000000000E+0003	 1.11664641149937E-0001	
 1.35850000000000E+0003	 1.11789551656869E-0001	
 1.36050000000000E+0003	 1.12054962163800E-0001	
 1.36250000000000E+0003	 1.12685372670732E-0001	
 1.36450000000000E+0003	 1.13826283177663E-0001	
 1.36650000000000E+0003	 1.15252693684595E-0001	
 1.36850000000000E+0003	 1.16842604191526E-0001	
 1.37050000000000E+0003	 1.18382514698458E-0001	
 1.37250000000000E+0003	 1.19714925205389E-0001	
 1.37450000000000E+0003	 1.20921835712321E-0001	
 1.37650000000000E+0003	 1.21949246219252E-0001	
 1.37850000000000E+0003	 1.22669656726184E-0001	
 1.38050000000000E+0003	 1.23217567233115E-0001	
 1.38250000000000E+0003	 1.23739977740047E-0001	
 1.38450000000000E+0003	 1.23993388246978E-0001	
 1.38650000000000E+0003	 1.23850298753910E-0001	
 1.38850000000000E+0003	 1.23812709260842E-0001	
 1.39050000000000E+0003	 1.24014619767773E-0001	
 1.39250000000000E+0003	 1.24364030274705E-0001	
 1.39450000000000E+0003	 1.24847440781636E-0001	
 1.39650000000000E+0003	 1.25378851288568E-0001	
 1.39850000000000E+0003	 1.26030261795499E-0001	
 1.40050000000000E+0003	 1.26592672302431E-0001	
 1.40250000000000E+0003	 1.26810582809362E-0001	
 1.40450000000000E+0003	 1.26964493316294E-0001	
 1.40650000000000E+0003	 1.27020903823225E-0001	
 1.40850000000000E+0003	 1.26983814330157E-0001	
 1.41050000000000E+0003	 1.26859224837088E-0001	
 1.41250000000000E+0003	 1.26718135344020E-0001	
 1.41450000000000E+0003	 1.26529545850951E-0001	
 1.41650000000000E+0003	 1.26111956357883E-0001	
 1.41850000000000E+0003	 1.25698866864814E-0001	
 1.42050000000000E+0003	 1.25370277371746E-0001	
 1.42250000000000E+0003	 1.25055687878677E-0001	
 1.42450000000000E+0003	 1.24662098385609E-0001	
 1.42650000000000E+0003	 1.24141008892540E-0001	
 1.42850000000000E+0003	 1.23696419399472E-0001	
 1.43050000000000E+0003	 1.23364829906403E-0001	
 1.43250000000000E+0003	 1.23105740413335E-0001	
 1.43450000000000E+0003	 1.23068650920266E-0001	
 1.43650000000000E+0003	 1.23526561427198E-0001	
 1.43850000000000E+0003	 1.24055971934129E-0001	
 1.44050000000000E+0003	 1.24656382441061E-0001	
 1.44250000000000E+0003	 1.25369792947992E-0001	
 1.44450000000000E+0003	 1.25975203454924E-0001	
 1.44650000000000E+0003	 1.26630613961855E-0001	
 1.44850000000000E+0003	 1.27337524468787E-0001	
 1.45050000000000E+0003	 1.27922934975718E-0001	
 1.45250000000000E+0003	 1.28375845482650E-0001	
 1.45450000000000E+0003	 1.28297755989581E-0001	
 1.45650000000000E+0003	 1.27988666496513E-0001	
 1.45850000000000E+0003	 1.27667577003444E-0001	
 1.46050000000000E+0003	 1.27325987510376E-0001	
 1.46250000000000E+0003	 1.26527898017307E-0001	
 1.46450000000000E+0003	 1.25441308524239E-0001	
 1.46650000000000E+0003	 1.23999219031171E-0001	
 1.46850000000000E+0003	 1.22409629538102E-0001	
 1.47050000000000E+0003	 1.20514540045034E-0001	
 1.47250000000000E+0003	 1.18123450551965E-0001	
 1.47450000000000E+0003	 1.15928361058897E-0001	
 1.47650000000000E+0003	 1.14583271565828E-0001	
 1.47850000000000E+0003	 1.13373682072760E-0001	
 1.48050000000000E+0003	 1.12439592579691E-0001	
 1.48250000000000E+0003	 1.11864503086623E-0001	
 1.48450000000000E+0003	 1.11539913593554E-0001	
 1.48650000000000E+0003	 1.11469324100486E-0001	
 1.48850000000000E+0003	 1.11592234607417E-0001	
 1.49050000000000E+0003	 1.12309645114349E-0001	
 1.49250000000000E+0003	 1.13096055621280E-0001	
 1.49450000000000E+0003	 1.13700466128212E-0001	
 1.49650000000000E+0003	 1.14742376635143E-0001	
 1.49850000000000E+0003	 1.16315287142075E-0001	
 1.50050000000000E+0003	 1.17792697649006E-0001	
 1.50250000000000E+0003	 1.18977608155938E-0001	
 1.50450000000000E+0003	 1.19999518662869E-0001	
 1.50650000000000E+0003	 1.21897429169801E-0001	
 1.50850000000000E+0003	 1.24780839676732E-0001	
 1.51050000000000E+0003	 1.27963750183664E-0001	
 1.51250000000000E+0003	 1.30971660690595E-0001	
 1.51450000000000E+0003	 1.33605571197527E-0001	
 1.51650000000000E+0003	 1.36050481704458E-0001	
 1.51850000000000E+0003	 1.37846392211390E-0001	
 1.52050000000000E+0003	 1.39257802718321E-0001	
 1.52250000000000E+0003	 1.41423213225253E-0001	
 1.52450000000000E+0003	 1.43728123732184E-0001	
 1.52650000000000E+0003	 1.46057034239116E-0001	
 1.52850000000000E+0003	 1.48271944746047E-0001	
 1.53050000000000E+0003	 1.50070355252979E-0001	
 1.53250000000000E+0003	 1.51888265759910E-0001	
 1.53450000000000E+0003	 1.53685676266842E-0001	
 1.53650000000000E+0003	 1.54488086773773E-0001	
 1.53850000000000E+0003	 1.55046997280705E-0001	
 1.54050000000000E+0003	 1.56328407787636E-0001	
 1.54250000000000E+0003	 1.57856318294568E-0001	
 1.54450000000000E+0003	 1.59056228801499E-0001	
 1.54650000000000E+0003	 1.59688639308431E-0001	
 1.54850000000000E+0003	 1.59636049815363E-0001	
 1.55050000000000E+0003	 1.58991460322294E-0001	
 1.55250000000000E+0003	 1.57760370829226E-0001	
 1.55450000000000E+0003	 1.56061781336157E-0001	
 1.55650000000000E+0003	 1.54029691843089E-0001	
 1.55850000000000E+0003	 1.51868102350020E-0001	
 1.56050000000000E+0003	 1.49376512856952E-0001	
 1.56250000000000E+0003	 1.47781923363883E-0001	
 1.56450000000000E+0003	 1.46593333870815E-0001	
 1.56650000000000E+0003	 1.44733744377746E-0001	
 1.56850000000000E+0003	 1.43060654884678E-0001	
 1.57050000000000E+0003	 1.41375065391609E-0001	
 1.57250000000000E+0003	 1.39580475898541E-0001	
 1.57450000000000E+0003	 1.37711386405472E-0001	
 1.57650000000000E+0003	 1.36075296912404E-0001	
 1.57850000000000E+0003	 1.35286707419335E-0001	
 1.58050000000000E+0003	 1.34899117926267E-0001	
 1.58250000000000E+0003	 1.34223528433198E-0001	
 1.58450000000000E+0003	 1.33708938940130E-0001	
 1.58650000000000E+0003	 1.33446349447061E-0001	
 1.58850000000000E+0003	 1.33524259953993E-0001	
 1.59050000000000E+0003	 1.33893170460924E-0001	
 1.59250000000000E+0003	 1.34610580967856E-0001	
 1.59450000000000E+0003	 1.35576991474787E-0001	
 1.59650000000000E+0003	 1.36835401981719E-0001	
 1.59850000000000E+0003	 1.38244312488650E-0001	
 1.60050000000000E+0003	 1.39855222995582E-0001	
 1.60250000000000E+0003	 1.41670633502513E-0001	
 1.60450000000000E+0003	 1.43789044009445E-0001	
 1.60650000000000E+0003	 1.46109454516376E-0001	
 1.60850000000000E+0003	 1.48824865023308E-0001	
 1.61050000000000E+0003	 1.51927775530239E-0001	
 1.61250000000000E+0003	 1.55225186037171E-0001	
 1.61450000000000E+0003	 1.58207596544102E-0001	
 1.61650000000000E+0003	 1.62023507051034E-0001	
 1.61850000000000E+0003	 1.66714417557965E-0001	
 1.62050000000000E+0003	 1.70974328064897E-0001	
 1.62250000000000E+0003	 1.75317738571828E-0001	
 1.62450000000000E+0003	 1.79763149078760E-0001	
 1.62650000000000E+0003	 1.83674059585692E-0001	
 1.62850000000000E+0003	 1.87574470092623E-0001	
 1.63050000000000E+0003	 1.91060380599555E-0001	
 1.63250000000000E+0003	 1.93901291106486E-0001	
 1.63450000000000E+0003	 1.96615701613418E-0001	
 1.63650000000000E+0003	 1.99400612120349E-0001	
 1.63850000000000E+0003	 2.01714022627281E-0001	
 1.64050000000000E+0003	 2.03608433134212E-0001	
 1.64250000000000E+0003	 2.04962843641144E-0001	
 1.64450000000000E+0003	 2.05864254148075E-0001	
 1.64650000000000E+0003	 2.07072164655007E-0001	
 1.64850000000000E+0003	 2.08272075161938E-0001	
 1.65050000000000E+0003	 2.08432485668870E-0001	
 1.65250000000000E+0003	 2.09022896175801E-0001	
 1.65450000000000E+0003	 2.10319806682733E-0001	
 1.65650000000000E+0003	 2.11231217189664E-0001	
 1.65850000000000E+0003	 2.11479127696596E-0001	
 1.66050000000000E+0003	 2.10883038203527E-0001	
 1.66250000000000E+0003	 2.09903948710459E-0001	
 1.66450000000000E+0003	 2.08376859217390E-0001	
 1.66650000000000E+0003	 2.06756769724322E-0001	
 1.66850000000000E+0003	 2.05167180231253E-0001	
 1.67050000000000E+0003	 2.03240590738185E-0001	
 1.67250000000000E+0003	 2.01289001245116E-0001	
 1.67450000000000E+0003	 1.99744411752048E-0001	
 1.67650000000000E+0003	 1.97689822258979E-0001	
 1.67850000000000E+0003	 1.95532732765911E-0001	
 1.68050000000000E+0003	 1.93495643272842E-0001	
 1.68250000000000E+0003	 1.91256053779774E-0001	
 1.68450000000000E+0003	 1.88547464286705E-0001	
 1.68650000000000E+0003	 1.86155374793637E-0001	
 1.68850000000000E+0003	 1.84796785300568E-0001	
 1.69050000000000E+0003	 1.82885695807500E-0001	
 1.69250000000000E+0003	 1.80370106314431E-0001	
 1.69450000000000E+0003	 1.77463016821363E-0001	
 1.69650000000000E+0003	 1.73949927328294E-0001	
 1.69850000000000E+0003	 1.71372837835226E-0001	
 1.70050000000000E+0003	 1.69145248342157E-0001	
 1.70250000000000E+0003	 1.65731158849089E-0001	
 1.70450000000000E+0003	 1.63408569356020E-0001	
 1.70650000000000E+0003	 1.60981479862952E-0001	
 1.70850000000000E+0003	 1.58463390369884E-0001	
 1.71050000000000E+0003	 1.56228300876815E-0001	
 1.71250000000000E+0003	 1.54000211383747E-0001	
 1.71450000000000E+0003	 1.51530121890678E-0001	
 1.71650000000000E+0003	 1.48799532397610E-0001	
 1.71850000000000E+0003	 1.46807442904541E-0001	
 1.72050000000000E+0003	 1.45137853411473E-0001	
 1.72250000000000E+0003	 1.43435263918404E-0001	
 1.72450000000000E+0003	 1.41630674425336E-0001	
 1.72650000000000E+0003	 1.39925084932267E-0001	
 1.72850000000000E+0003	 1.38415495439199E-0001	
 1.73050000000000E+0003	 1.36803405946130E-0001	
 1.73250000000000E+0003	 1.35314316453062E-0001	
 1.73450000000000E+0003	 1.34803726959993E-0001	
 1.73650000000000E+0003	 1.34447137466925E-0001	
 1.73850000000000E+0003	 1.34518047973856E-0001	
 1.74050000000000E+0003	 1.34429958480788E-0001	
 1.74250000000000E+0003	 1.33983868987719E-0001	
 1.74450000000000E+0003	 1.33565779494651E-0001	
 1.74650000000000E+0003	 1.33007190001582E-0001	
 1.74850000000000E+0003	 1.32135600508514E-0001	
 1.75050000000000E+0003	 1.30970011015445E-0001	
 1.75250000000000E+0003	 1.29600421522377E-0001	
 1.75450000000000E+0003	 1.28160832029308E-0001	
 1.75650000000000E+0003	 1.26465742536240E-0001	
 1.75850000000000E+0003	 1.24251153043171E-0001	
 1.76050000000000E+0003	 1.22174063550103E-0001	
 1.76250000000000E+0003	 1.20123474057034E-0001	
 1.76450000000000E+0003	 1.17975884563966E-0001	
 1.76650000000000E+0003	 1.16169295070897E-0001	
 1.76850000000000E+0003	 1.14341705577829E-0001	
 1.77050000000000E+0003	 1.12611616084760E-0001	
 1.77250000000000E+0003	 1.11103526591692E-0001	
 1.77450000000000E+0003	 1.09818437098623E-0001	
 1.77650000000000E+0003	 1.08958847605555E-0001	
 1.77850000000000E+0003	 1.08079258112486E-0001	
 1.78050000000000E+0003	 1.07199668619418E-0001	
 1.78250000000000E+0003	 1.06379079126349E-0001	
 1.78450000000000E+0003	 1.05693489633281E-0001	
 1.78650000000000E+0003	 1.05011900140213E-0001	
 1.78850000000000E+0003	 1.04265310647144E-0001	
 1.79050000000000E+0003	 1.03640221154076E-0001	
 1.79250000000000E+0003	 1.03091131661007E-0001	
 1.79450000000000E+0003	 1.02436042167939E-0001	
 1.79650000000000E+0003	 1.01920952674870E-0001	
 1.79850000000000E+0003	 1.01528863181802E-0001	
 1.80050000000000E+0003	 1.01046273688733E-0001	
 1.80250000000000E+0003	 1.00525684195665E-0001	
 1.80450000000000E+0003	 1.00068094702596E-0001	
 1.80650000000000E+0003	 9.96380052095276E-0002	
 1.80850000000000E+0003	 9.91844157164591E-0002	
 1.81050000000000E+0003	 9.87828262233907E-0002	
 1.81250000000000E+0003	 9.84067367303222E-0002	
 1.81450000000000E+0003	 9.80811472372537E-0002	
 1.81650000000000E+0003	 9.77760577441852E-0002	
 1.81850000000000E+0003	 9.74494682511167E-0002	
 1.82050000000000E+0003	 9.71058787580482E-0002	
 1.82250000000000E+0003	 9.67397892649797E-0002	
 1.82450000000000E+0003	 9.64951997719112E-0002	
 1.82650000000000E+0003	 9.61156102788428E-0002	
 1.82850000000000E+0003	 9.57930207857743E-0002	
 1.83050000000000E+0003	 9.56679312927058E-0002	
 1.83250000000000E+0003	 9.53438417996373E-0002	
 1.83450000000000E+0003	 9.51052523065688E-0002	
 1.83650000000000E+0003	 9.48806628135003E-0002	
 1.83850000000000E+0003	 9.46590733204318E-0002	
 1.84050000000000E+0003	 9.43389838273633E-0002	
 1.84250000000000E+0003	 9.40463943342949E-0002	
 1.84450000000000E+0003	 9.39188048412264E-0002	
 1.84650000000000E+0003	 9.36212153481579E-0002	
 1.84850000000000E+0003	 9.35181258550894E-0002	
 1.85050000000000E+0003	 9.34550363620209E-0002	
 1.85250000000000E+0003	 9.33139468689524E-0002	
 1.85450000000000E+0003	 9.31518573758839E-0002	
 1.85650000000000E+0003	 9.29722678828154E-0002	
 1.85850000000000E+0003	 9.27981783897470E-0002	
 1.86050000000000E+0003	 9.26360888966785E-0002	
 1.86250000000000E+0003	 9.24879994036100E-0002	
 1.86450000000000E+0003	 9.22784099105415E-0002	
 1.86650000000000E+0003	 9.20403204174730E-0002	
 1.86850000000000E+0003	 9.19607309244045E-0002	
 1.87050000000000E+0003	 9.19106414313360E-0002	
 1.87250000000000E+0003	 9.17950519382675E-0002	
 1.87450000000000E+0003	 9.17514624451991E-0002	
 1.87650000000000E+0003	 9.16458729521306E-0002	
 1.87850000000000E+0003	 9.15367834590621E-0002	
 1.88050000000000E+0003	 9.14366939659936E-0002	
 1.88250000000000E+0003	 9.13356044729251E-0002	
 1.88450000000000E+0003	 9.12270149798566E-0002	
 1.88650000000000E+0003	 9.10979254867881E-0002	
 1.88850000000000E+0003	 9.10278359937196E-0002	
 1.89050000000000E+0003	 9.09657465006512E-0002	
 1.89250000000000E+0003	 9.08311570075827E-0002	
 1.89450000000000E+0003	 9.07655675145142E-0002	
 1.89650000000000E+0003	 9.07054780214457E-0002	
 1.89850000000000E+0003	 9.06553885283772E-0002	
 1.90050000000000E+0003	 9.06032990353087E-0002	
 1.90250000000000E+0003	 9.05372095422402E-0002	
 1.90450000000000E+0003	 9.04681200491717E-0002	
 1.90650000000000E+0003	 9.03605305561033E-0002	
 1.90850000000000E+0003	 9.02529410630348E-0002	
 1.91050000000000E+0003	 9.02113515699663E-0002	
 1.91250000000000E+0003	 9.02022620768978E-0002	
 1.91450000000000E+0003	 9.01361725838293E-0002	
 1.91650000000000E+0003	 9.00955830907608E-0002	
 1.91850000000000E+0003	 9.00904935976923E-0002	
 1.92050000000000E+0003	 8.99199041046238E-0002	
 1.92250000000000E+0003	 8.98568146115554E-0002	
 1.92450000000000E+0003	 8.98752251184869E-0002	
 1.92650000000000E+0003	 8.99021356254184E-0002	
 1.92850000000000E+0003	 8.99070461323499E-0002	
 1.93050000000000E+0003	 8.98789566392814E-0002	
 1.93250000000000E+0003	 8.98458671462129E-0002	
 1.93450000000000E+0003	 8.98242776531444E-0002	
 1.93650000000000E+0003	 8.98046881600759E-0002	
 1.93850000000000E+0003	 8.97615986670075E-0002	
 1.94050000000000E+0003	 8.96960091739390E-0002	
 1.94250000000000E+0003	 8.96844196808705E-0002	
 1.94450000000000E+0003	 8.96603301878020E-0002	
 1.94650000000000E+0003	 8.96792406947335E-0002	
 1.94850000000000E+0003	 8.97121512016650E-0002	
 1.95050000000000E+0003	 8.97210617085965E-0002	
 1.95250000000000E+0003	 8.97169722155280E-0002	
 1.95450000000000E+0003	 8.97133827224596E-0002	
 1.95650000000000E+0003	 8.97152932293911E-0002	
 1.95850000000000E+0003	 8.97177037363226E-0002	
 1.96050000000000E+0003	 8.97166142432541E-0002	
 1.96250000000000E+0003	 8.97120247501856E-0002	
 1.96450000000000E+0003	 8.96734352571171E-0002	
 1.96650000000000E+0003	 8.96493457640486E-0002	
 1.96850000000000E+0003	 8.96702562709801E-0002	
 1.97050000000000E+0003	 8.97076667779117E-0002	
 1.97250000000000E+0003	 8.97250772848432E-0002	
 1.97450000000000E+0003	 8.97199877917747E-0002	
 1.97650000000000E+0003	 8.97198982987062E-0002	
 1.97850000000000E+0003	 8.97228088056377E-0002	
 1.98050000000000E+0003	 8.97207193125692E-0002	
 1.98250000000000E+0003	 8.97256298195007E-0002	
 1.98450000000000E+0003	 8.97230403264322E-0002	
 1.98650000000000E+0003	 8.97069508333638E-0002	
 1.98850000000000E+0003	 8.96773613402953E-0002	
 1.99050000000000E+0003	 8.96717718472268E-0002	
 1.99250000000000E+0003	 8.97016823541583E-0002	
 1.99450000000000E+0003	 8.97275928610898E-0002	
 1.99650000000000E+0003	 8.97665033680213E-0002	
 1.99850000000000E+0003	 8.97924138749528E-0002	
 2.00050000000000E+0003	 8.98128243818843E-0002	
 2.00250000000000E+0003	 8.98412348888159E-0002	
 2.00450000000000E+0003	 8.98651453957474E-0002	
 2.00650000000000E+0003	 8.98830559026789E-0002	
 2.00850000000000E+0003	 8.98969664096104E-0002	
 2.01050000000000E+0003	 8.99208769165419E-0002	
 2.01250000000000E+0003	 8.99387874234734E-0002	
 2.01450000000000E+0003	 8.99416979304049E-0002	
 2.01650000000000E+0003	 8.99441084373364E-0002	
 2.01850000000000E+0003	 8.99790189442680E-0002	
 2.02050000000000E+0003	 9.00429294511995E-0002	
 2.02250000000000E+0003	 9.01043399581310E-0002	
 2.02450000000000E+0003	 9.01362504650625E-0002	
 2.02650000000000E+0003	 9.01731609719940E-0002	
 2.02850000000000E+0003	 9.02145714789255E-0002	
 2.03050000000000E+0003	 9.02514819858570E-0002	
 2.03250000000000E+0003	 9.02788924927885E-0002	
 2.03450000000000E+0003	 9.03093029997201E-0002	
 2.03650000000000E+0003	 9.03422135066516E-0002	
 2.03850000000000E+0003	 9.03661240135831E-0002	
 2.04050000000000E+0003	 9.03805345205146E-0002	
 2.04250000000000E+0003	 9.04084450274461E-0002	
 2.04450000000000E+0003	 9.04488555343776E-0002	
 2.04650000000000E+0003	 9.04867660413091E-0002	
 2.04850000000000E+0003	 9.05196765482406E-0002	
 2.05050000000000E+0003	 9.05460870551722E-0002	
 2.05250000000000E+0003	 9.05689975621037E-0002	
 2.05450000000000E+0003	 9.05959080690352E-0002	
 2.05650000000000E+0003	 9.06188185759667E-0002	
 2.05850000000000E+0003	 9.06317290828982E-0002	
 2.06050000000000E+0003	 9.06411395898297E-0002	
 2.06250000000000E+0003	 9.06425500967612E-0002	
 2.06450000000000E+0003	 9.06519606036927E-0002	
 2.06650000000000E+0003	 9.06743711106243E-0002	
 2.06850000000000E+0003	 9.07057816175558E-0002	
 2.07050000000000E+0003	 9.07336921244873E-0002	
 2.07250000000000E+0003	 9.07491026314188E-0002	
 2.07450000000000E+0003	 9.07625131383503E-0002	
 2.07650000000000E+0003	 9.07714236452818E-0002	
 2.07850000000000E+0003	 9.07843341522133E-0002	
 2.08050000000000E+0003	 9.07977446591448E-0002	
 2.08250000000000E+0003	 9.08086551660764E-0002	
 2.08450000000000E+0003	 9.08180656730079E-0002	
 2.08650000000000E+0003	 9.08249761799394E-0002	
 2.08850000000000E+0003	 9.08263866868709E-0002	
 2.09050000000000E+0003	 9.08347971938024E-0002	
 2.09250000000000E+0003	 9.08507077007339E-0002	
 2.09450000000000E+0003	 9.08656182076654E-0002	
 2.09650000000000E+0003	 9.08730287145969E-0002	
 2.09850000000000E+0003	 9.08819392215285E-0002	
 2.10050000000000E+0003	 9.08883497284600E-0002	
 2.10250000000000E+0003	 9.08897602353915E-0002	
 2.10450000000000E+0003	 9.08931707423230E-0002	
 2.10650000000000E+0003	 9.09005812492545E-0002	
 2.10850000000000E+0003	 9.08999917561860E-0002	
 2.11050000000000E+0003	 9.08989022631175E-0002	
 2.11250000000000E+0003	 9.08948127700491E-0002	
 2.11450000000000E+0003	 9.08947232769806E-0002	
 2.11650000000000E+0003	 9.08936337839121E-0002	
 2.11850000000000E+0003	 9.08980442908436E-0002	
 2.12050000000000E+0003	 9.08984547977751E-0002	
 2.12250000000000E+0003	 9.08953653047066E-0002	
 2.12450000000000E+0003	 9.08887758116381E-0002	
 2.12650000000000E+0003	 9.08821863185696E-0002	
 2.12850000000000E+0003	 9.08725968255012E-0002	
 2.13050000000000E+0003	 9.08620073324327E-0002	
 2.13250000000000E+0003	 9.08474178393642E-0002	
 2.13450000000000E+0003	 9.08343283462957E-0002	
 2.13650000000000E+0003	 9.08192388532272E-0002	
 2.13850000000000E+0003	 9.08051493601587E-0002	
 2.14050000000000E+0003	 9.07875598670902E-0002	
 2.14250000000000E+0003	 9.07694703740217E-0002	
 2.14450000000000E+0003	 9.07523808809533E-0002	
 2.14650000000000E+0003	 9.07362913878848E-0002	
 2.14850000000000E+0003	 9.07172018948163E-0002	
 2.15050000000000E+0003	 9.06981124017478E-0002	
 2.15250000000000E+0003	 9.06805229086793E-0002	
 2.15450000000000E+0003	 9.06619334156108E-0002	
 2.15650000000000E+0003	 9.06413439225423E-0002	
 2.15850000000000E+0003	 9.06167544294738E-0002	
 2.16050000000000E+0003	 9.05846649364054E-0002	
 2.16250000000000E+0003	 9.05570754433369E-0002	
 2.16450000000000E+0003	 9.05334859502684E-0002	
 2.16650000000000E+0003	 9.05128964571999E-0002	
 2.16850000000000E+0003	 9.04948069641314E-0002	
 2.17050000000000E+0003	 9.04702174710629E-0002	
 2.17250000000000E+0003	 9.04341279779944E-0002	
 2.17450000000000E+0003	 9.04000384849259E-0002	
 2.17650000000000E+0003	 9.03684489918575E-0002	
 2.17850000000000E+0003	 9.03333594987890E-0002	
 2.18050000000000E+0003	 9.03022700057205E-0002	
 2.18250000000000E+0003	 9.02731805126520E-0002	
 2.18450000000000E+0003	 9.02380910195835E-0002	
 2.18650000000000E+0003	 9.02015015265150E-0002	
 2.18850000000000E+0003	 9.01734120334465E-0002	
 2.19050000000000E+0003	 9.01473225403780E-0002	
 2.19250000000000E+0003	 9.01212330473096E-0002	
 2.19450000000000E+0003	 9.00916435542411E-0002	
 2.19650000000000E+0003	 9.00570540611726E-0002	
 2.19850000000000E+0003	 9.00284645681041E-0002	
 2.20050000000000E+0003	 9.00063750750356E-0002	
 2.20250000000000E+0003	 8.99812855819671E-0002	
 2.20450000000000E+0003	 8.99551960888986E-0002	
 2.20650000000000E+0003	 8.99331065958301E-0002	
 2.20850000000000E+0003	 8.99095171027617E-0002	
 2.21050000000000E+0003	 8.98904276096932E-0002	
 2.21250000000000E+0003	 8.98643381166247E-0002	
 2.21450000000000E+0003	 8.98407486235562E-0002	
 2.21650000000000E+0003	 8.98161591304877E-0002	
 2.21850000000000E+0003	 8.97990696374192E-0002	
 2.22050000000000E+0003	 8.97804801443507E-0002	
 2.22250000000000E+0003	 8.97593906512822E-0002	
 2.22450000000000E+0003	 8.97298011582138E-0002	
 2.22650000000000E+0003	 8.97042116651453E-0002	
 2.22850000000000E+0003	 8.96776221720768E-0002	
 2.23050000000000E+0003	 8.96585326790083E-0002	
 2.23250000000000E+0003	 8.96294431859398E-0002	
 2.23450000000000E+0003	 8.95918536928713E-0002	
 2.23650000000000E+0003	 8.95527641998028E-0002	
 2.23850000000000E+0003	 8.95211747067343E-0002	
 2.24050000000000E+0003	 8.94915852136659E-0002	
 2.24250000000000E+0003	 8.94634957205974E-0002	
 2.24450000000000E+0003	 8.94329062275289E-0002	
 2.24650000000000E+0003	 8.94003167344604E-0002	
 2.24850000000000E+0003	 8.93692272413919E-0002	
 2.25050000000000E+0003	 8.93411377483234E-0002	
 2.25250000000000E+0003	 8.93190482552549E-0002	
 2.25450000000000E+0003	 8.92909587621864E-0002	
 2.25650000000000E+0003	 8.92683692691180E-0002	
 2.25850000000000E+0003	 8.92457797760495E-0002	
 2.26050000000000E+0003	 8.92231902829810E-0002	
 2.26250000000000E+0003	 8.91921007899125E-0002	
 2.26450000000000E+0003	 8.91675112968440E-0002	
 2.26650000000000E+0003	 8.91494218037755E-0002	
 2.26850000000000E+0003	 8.91333323107070E-0002	
 2.27050000000000E+0003	 8.91087428176385E-0002	
 2.27250000000000E+0003	 8.90836533245701E-0002	
 2.27450000000000E+0003	 8.90590638315016E-0002	
 2.27650000000000E+0003	 8.90389743384331E-0002	
 2.27850000000000E+0003	 8.90233848453646E-0002	
 2.28050000000000E+0003	 8.90122953522961E-0002	
 2.28250000000000E+0003	 8.89972058592276E-0002	
 2.28450000000000E+0003	 8.89756163661591E-0002	
 2.28650000000000E+0003	 8.89525268730906E-0002	
 2.28850000000000E+0003	 8.89229373800222E-0002	
 2.29050000000000E+0003	 8.88993478869537E-0002	
 2.29250000000000E+0003	 8.88752583938852E-0002	
 2.29450000000000E+0003	 8.88526689008167E-0002	
 2.29650000000000E+0003	 8.88240794077482E-0002	
 2.29850000000000E+0003	 8.88004899146797E-0002	
 2.30050000000000E+0003	 8.87889004216112E-0002	
 2.30250000000000E+0003	 8.87913109285427E-0002	
 2.30450000000000E+0003	 8.87882214354743E-0002	
 2.30650000000000E+0003	 8.87746319424058E-0002	
 2.30850000000000E+0003	 8.87710424493373E-0002	
 2.31050000000000E+0003	 8.87959529562688E-0002	
 2.31250000000000E+0003	 8.88368634632003E-0002	
 2.31450000000000E+0003	 8.88657739701318E-0002	
 2.31650000000000E+0003	 8.88466844770633E-0002	
 2.31850000000000E+0003	 8.88030949839948E-0002	
 2.32050000000000E+0003	 8.87595054909264E-0002	
 2.32250000000000E+0003	 8.87374159978579E-0002	
 2.32450000000000E+0003	 8.87403265047894E-0002	
 2.32650000000000E+0003	 8.87367370117209E-0002	
 2.32850000000000E+0003	 8.87386475186524E-0002	
 2.33050000000000E+0003	 8.87540580255839E-0002	
 2.33250000000000E+0003	 8.87949685325154E-0002	
 2.33450000000000E+0003	 8.88498790394469E-0002	
 2.33650000000000E+0003	 8.89017895463785E-0002	
 2.33850000000000E+0003	 8.89292000533100E-0002	
 2.34050000000000E+0003	 8.89061105602415E-0002	
 2.34250000000000E+0003	 8.88650210671730E-0002	
 2.34450000000000E+0003	 8.88899315741045E-0002	
 2.34650000000000E+0003	 8.89503420810360E-0002	
 2.34850000000000E+0003	 8.88947525879675E-0002	
 2.35050000000000E+0003	 8.89251630948990E-0002	
 2.35250000000000E+0003	 8.90365736018306E-0002	
 2.35450000000000E+0003	 8.90024841087621E-0002	
 2.35650000000000E+0003	 8.89188946156936E-0002	
 2.35850000000000E+0003	 8.89128051226251E-0002	
 2.36050000000000E+0003	 8.89437156295566E-0002	
 2.36250000000000E+0003	 8.89546261364881E-0002	
 2.36450000000000E+0003	 8.89565366434196E-0002	
 2.36650000000000E+0003	 8.89784471503511E-0002	
 2.36850000000000E+0003	 8.90078576572827E-0002	
 2.37050000000000E+0003	 8.90702681642142E-0002	
 2.37250000000000E+0003	 8.91631786711457E-0002	
 2.37450000000000E+0003	 8.92665891780772E-0002	
 2.37650000000000E+0003	 8.93134996850087E-0002	
 2.37850000000000E+0003	 8.92774101919402E-0002	
 2.38050000000000E+0003	 8.92183206988717E-0002	
 2.38250000000000E+0003	 8.92167312058032E-0002	
 2.38450000000000E+0003	 8.92711417127348E-0002	
 2.38650000000000E+0003	 8.93430522196663E-0002	
 2.38850000000000E+0003	 8.94054627265978E-0002	
 2.39050000000000E+0003	 8.94498732335293E-0002	
 2.39250000000000E+0003	 8.94942837404608E-0002	
 2.39450000000000E+0003	 8.95306942473923E-0002	
 2.39650000000000E+0003	 8.95656047543238E-0002	
 2.39850000000000E+0003	 8.96025152612553E-0002	
 2.40050000000000E+0003	 8.96339257681869E-0002	
 2.40250000000000E+0003	 8.96483362751184E-0002	
 2.40450000000000E+0003	 8.96592467820499E-0002	
 2.40650000000000E+0003	 8.96646572889814E-0002	
 2.40850000000000E+0003	 8.96645677959129E-0002	
 2.41050000000000E+0003	 8.96614783028444E-0002	
 2.41250000000000E+0003	 8.96583888097759E-0002	
 2.41450000000000E+0003	 8.96582993167074E-0002	
 2.41650000000000E+0003	 8.96567098236390E-0002	
 2.41850000000000E+0003	 8.96606203305705E-0002	
 2.42050000000000E+0003	 8.96630308375020E-0002	
 2.42250000000000E+0003	 8.96644413444335E-0002	
 2.42450000000000E+0003	 8.96623518513650E-0002	
 2.42650000000000E+0003	 8.96672623582965E-0002	
 2.42850000000000E+0003	 8.96636728652280E-0002	
 2.43050000000000E+0003	 8.96595833721595E-0002	
 2.43250000000000E+0003	 8.96559938790911E-0002	
 2.43450000000000E+0003	 8.96624043860226E-0002	
 2.43650000000000E+0003	 8.96583148929541E-0002	
 2.43850000000000E+0003	 8.96572253998856E-0002	
 2.44050000000000E+0003	 8.96601359068171E-0002	
 2.44250000000000E+0003	 8.96670464137486E-0002	
 2.44450000000000E+0003	 8.96669569206801E-0002	
 2.44650000000000E+0003	 8.96663674276116E-0002	
 2.44850000000000E+0003	 8.96692779345432E-0002	
 2.45050000000000E+0003	 8.96726884414747E-0002	
 2.45250000000000E+0003	 8.96725989484062E-0002	
 2.45450000000000E+0003	 8.96750094553377E-0002	
 2.45650000000000E+0003	 8.96809199622692E-0002	
 2.45850000000000E+0003	 8.96853304692007E-0002	
 2.46050000000000E+0003	 8.96922409761322E-0002	
 2.46250000000000E+0003	 8.97011514830637E-0002	
 2.46450000000000E+0003	 8.97205619899953E-0002	
 2.46650000000000E+0003	 8.97389724969268E-0002	
 2.46850000000000E+0003	 8.97603830038583E-0002	
 2.47050000000000E+0003	 8.97807935107898E-0002	
 2.47250000000000E+0003	 8.98017040177213E-0002	
 2.47450000000000E+0003	 8.98236145246528E-0002	
 2.47650000000000E+0003	 8.98565250315843E-0002	
 2.47850000000000E+0003	 8.98899355385158E-0002	
 2.48050000000000E+0003	 8.99168460454474E-0002	
 2.48250000000000E+0003	 8.99412565523789E-0002	
 2.48450000000000E+0003	 8.99666670593104E-0002	
 2.48650000000000E+0003	 8.99920775662419E-0002	
 2.48850000000000E+0003	 9.00264880731734E-0002	
 2.49050000000000E+0003	 9.00673985801049E-0002	
 2.49250000000000E+0003	 9.01058090870364E-0002	
 2.49450000000000E+0003	 9.01482195939679E-0002	
 2.49650000000000E+0003	 9.01896301008995E-0002	
 2.49850000000000E+0003	 9.02330406078310E-0002	
 2.50050000000000E+0003	 9.02744511147625E-0002	
 2.50250000000000E+0003	 9.03153616216940E-0002	
 2.50450000000000E+0003	 9.03532721286255E-0002	
 2.50650000000000E+0003	 9.03961826355570E-0002	
 2.50850000000000E+0003	 9.04400931424885E-0002	
 2.51050000000000E+0003	 9.04760036494200E-0002	
 2.51250000000000E+0003	 9.05034141563516E-0002	
 2.51450000000000E+0003	 9.05338246632831E-0002	
 2.51650000000000E+0003	 9.05622351702146E-0002	
 2.51850000000000E+0003	 9.05931456771461E-0002	
 2.52050000000000E+0003	 9.06195561840776E-0002	
 2.52250000000000E+0003	 9.06379666910091E-0002	
 2.52450000000000E+0003	 9.06508771979406E-0002	
 2.52650000000000E+0003	 9.06662877048721E-0002	
 2.52850000000000E+0003	 9.06786982118037E-0002	
 2.53050000000000E+0003	 9.06911087187352E-0002	
 2.53250000000000E+0003	 9.07010192256667E-0002	
 2.53450000000000E+0003	 9.07084297325982E-0002	
 2.53650000000000E+0003	 9.07143402395297E-0002	
 2.53850000000000E+0003	 9.07187507464612E-0002	
 2.54050000000000E+0003	 9.07156612533927E-0002	
 2.54250000000000E+0003	 9.07130717603242E-0002	
 2.54450000000000E+0003	 9.07119822672558E-0002	
 2.54650000000000E+0003	 9.07178927741873E-0002	
 2.54850000000000E+0003	 9.07198032811188E-0002	
 2.55050000000000E+0003	 9.07152137880503E-0002	
 2.55250000000000E+0003	 9.07061242949818E-0002	
 2.55450000000000E+0003	 9.07005348019133E-0002	
 2.55650000000000E+0003	 9.06939453088448E-0002	
 2.55850000000000E+0003	 9.06928558157763E-0002	
 2.56050000000000E+0003	 9.06947663227079E-0002	
 2.56250000000000E+0003	 9.06851768296394E-0002	
 2.56450000000000E+0003	 9.06675873365709E-0002	
 2.56650000000000E+0003	 9.06609978435024E-0002	
 2.56850000000000E+0003	 9.06544083504339E-0002	
 2.57050000000000E+0003	 9.06453188573654E-0002	
 2.57250000000000E+0003	 9.06472293642969E-0002	
 2.57450000000000E+0003	 9.06506398712284E-0002	
 2.57650000000000E+0003	 9.06560503781600E-0002	
 2.57850000000000E+0003	 9.06699608850915E-0002	
 2.58050000000000E+0003	 9.06933713920230E-0002	
 2.58250000000000E+0003	 9.07202818989545E-0002	
 2.58450000000000E+0003	 9.07466924058860E-0002	
 2.58650000000000E+0003	 9.07806029128175E-0002	
 2.58850000000000E+0003	 9.08215134197490E-0002	
 2.59050000000000E+0003	 9.08559239266805E-0002	
 2.59250000000000E+0003	 9.08943344336121E-0002	
 2.59450000000000E+0003	 9.09432449405436E-0002	
 2.59650000000000E+0003	 9.09946554474751E-0002	
 2.59850000000000E+0003	 9.10405659544066E-0002	
 2.60050000000000E+0003	 9.10909764613381E-0002	
 2.60250000000000E+0003	 9.11473869682696E-0002	
 2.60450000000000E+0003	 9.12062974752011E-0002	
 2.60650000000000E+0003	 9.12577079821326E-0002	
 2.60850000000000E+0003	 9.13071184890642E-0002	
 2.61050000000000E+0003	 9.13620289959957E-0002	
 2.61250000000000E+0003	 9.14184395029272E-0002	
 2.61450000000000E+0003	 9.14703500098587E-0002	
 2.61650000000000E+0003	 9.15192605167902E-0002	
 2.61850000000000E+0003	 9.15686710237217E-0002	
 2.62050000000000E+0003	 9.16170815306532E-0002	
 2.62250000000000E+0003	 9.16679920375847E-0002	
 2.62450000000000E+0003	 9.17219025445163E-0002	
 2.62650000000000E+0003	 9.17768130514478E-0002	
 2.62850000000000E+0003	 9.18252235583793E-0002	
 2.63050000000000E+0003	 9.18721340653108E-0002	
 2.63250000000000E+0003	 9.19150445722423E-0002	
 2.63450000000000E+0003	 9.19674550791738E-0002	
 2.63650000000000E+0003	 9.20188655861053E-0002	
 2.63850000000000E+0003	 9.20672760930368E-0002	
 2.64050000000000E+0003	 9.21061865999684E-0002	
 2.64250000000000E+0003	 9.21485971068999E-0002	
 2.64450000000000E+0003	 9.21905076138314E-0002	
 2.64650000000000E+0003	 9.22404181207629E-0002	
 2.64850000000000E+0003	 9.22878286276944E-0002	
 2.65050000000000E+0003	 9.23372391346259E-0002	
 2.65250000000000E+0003	 9.23856496415574E-0002	
 2.65450000000000E+0003	 9.24305601484889E-0002	
 2.65650000000000E+0003	 9.24689706554205E-0002	
 2.65850000000000E+0003	 9.25118811623520E-0002	
 2.66050000000000E+0003	 9.25632916692835E-0002	
 2.66250000000000E+0003	 9.26202021762150E-0002	
 2.66450000000000E+0003	 9.26721126831465E-0002	
 2.66650000000000E+0003	 9.27190231900780E-0002	
 2.66850000000000E+0003	 9.27689336970095E-0002	
 2.67050000000000E+0003	 9.28288442039410E-0002	
 2.67250000000000E+0003	 9.28922547108726E-0002	
 2.67450000000000E+0003	 9.29516652178041E-0002	
 2.67650000000000E+0003	 9.30190757247356E-0002	
 2.67850000000000E+0003	 9.30909862316671E-0002	
 2.68050000000000E+0003	 9.31503967385986E-0002	
 2.68250000000000E+0003	 9.31993072455301E-0002	
 2.68450000000000E+0003	 9.32542177524616E-0002	
 2.68650000000000E+0003	 9.33196282593931E-0002	
 2.68850000000000E+0003	 9.33870387663247E-0002	
 2.69050000000000E+0003	 9.34514492732562E-0002	
 2.69250000000000E+0003	 9.35158597801877E-0002	
 2.69450000000000E+0003	 9.35837702871192E-0002	
 2.69650000000000E+0003	 9.36596807940507E-0002	
 2.69850000000000E+0003	 9.37430913009822E-0002	
 2.70050000000000E+0003	 9.38260018079137E-0002	
 2.70250000000000E+0003	 9.39174123148452E-0002	
 2.70450000000000E+0003	 9.40203228217768E-0002	
 2.70650000000000E+0003	 9.41262333287083E-0002	
 2.70850000000000E+0003	 9.42376438356398E-0002	
 2.71050000000000E+0003	 9.43530543425713E-0002	
 2.71250000000000E+0003	 9.44634648495028E-0002	
 2.71450000000000E+0003	 9.45818753564343E-0002	
 2.71650000000000E+0003	 9.47052858633658E-0002	
 2.71850000000000E+0003	 9.48366963702973E-0002	
 2.72050000000000E+0003	 9.49761068772289E-0002	
 2.72250000000000E+0003	 9.51180173841604E-0002	
 2.72450000000000E+0003	 9.52524278910919E-0002	
 2.72650000000000E+0003	 9.53888383980234E-0002	
 2.72850000000000E+0003	 9.54967489049549E-0002	
 2.73050000000000E+0003	 9.55986594118864E-0002	
 2.73250000000000E+0003	 9.57110699188179E-0002	
 2.73450000000000E+0003	 9.58234804257494E-0002	
 2.73650000000000E+0003	 9.59353909326810E-0002	
 2.73850000000000E+0003	 9.60393014396125E-0002	
 2.74050000000000E+0003	 9.61207119465440E-0002	
 2.74250000000000E+0003	 9.62036224534755E-0002	
 2.74450000000000E+0003	 9.62980329604070E-0002	
 2.74650000000000E+0003	 9.64034434673385E-0002	
 2.74850000000000E+0003	 9.65043539742700E-0002	
 2.75050000000000E+0003	 9.65747644812015E-0002	
 2.75250000000000E+0003	 9.66356749881331E-0002	
 2.75450000000000E+0003	 9.67150854950646E-0002	
 2.75650000000000E+0003	 9.68064960019961E-0002	
 2.75850000000000E+0003	 9.68939065089276E-0002	
 2.76050000000000E+0003	 9.69878170158591E-0002	
 2.76250000000000E+0003	 9.70937275227906E-0002	
 2.76450000000000E+0003	 9.72006380297221E-0002	
 2.76650000000000E+0003	 9.73065485366536E-0002	
 2.76850000000000E+0003	 9.74164590435852E-0002	
 2.77050000000000E+0003	 9.75308695505167E-0002	
 2.77250000000000E+0003	 9.76562800574482E-0002	
 2.77450000000000E+0003	 9.77966905643797E-0002	
 2.77650000000000E+0003	 9.79091010713112E-0002	
 2.77850000000000E+0003	 9.80030115782427E-0002	
 2.78050000000000E+0003	 9.81239220851742E-0002	
 2.78250000000000E+0003	 9.82658325921057E-0002	
 2.78450000000000E+0003	 9.84092430990373E-0002	
 2.78650000000000E+0003	 9.85716536059688E-0002	
 2.78850000000000E+0003	 9.87665641129003E-0002	
 2.79050000000000E+0003	 9.89479746198318E-0002	
 2.79250000000000E+0003	 9.90928851267633E-0002	
 2.79450000000000E+0003	 9.92507956336948E-0002	
 2.79650000000000E+0003	 9.94447061406263E-0002	
 2.79850000000000E+0003	 9.96541166475578E-0002	
 2.80050000000000E+0003	 9.98225271544894E-0002	
 2.80250000000000E+0003	 9.99854376614209E-0002	
 2.80450000000000E+0003	 1.00176348168352E-0001	
 2.80650000000000E+0003	 1.00381258675284E-0001	
 2.80850000000000E+0003	 1.00607169182215E-0001	
 2.81050000000000E+0003	 1.00839079689147E-0001	
 2.81250000000000E+0003	 1.01040490196078E-0001	
 2.81450000000000E+0003	 1.01245900703010E-0001	
 2.81650000000000E+0003	 1.01472311209941E-0001	
 2.81850000000000E+0003	 1.01713721716873E-0001	
 2.82050000000000E+0003	 1.01969632223804E-0001	
 2.82250000000000E+0003	 1.02239042730736E-0001	
 2.82450000000000E+0003	 1.02514953237668E-0001	
 2.82650000000000E+0003	 1.02796863744599E-0001	
 2.82850000000000E+0003	 1.03092274251531E-0001	
 2.83050000000000E+0003	 1.03418184758462E-0001	
 2.83250000000000E+0003	 1.03784095265394E-0001	
 2.83450000000000E+0003	 1.04196005772325E-0001	
 2.83650000000000E+0003	 1.04676416279257E-0001	
 2.83850000000000E+0003	 1.05254826786188E-0001	
 2.84050000000000E+0003	 1.05869237293120E-0001	
 2.84250000000000E+0003	 1.06596147800051E-0001	
 2.84450000000000E+0003	 1.07600058306983E-0001	
 2.84650000000000E+0003	 1.08908468813914E-0001	
 2.84850000000000E+0003	 1.10399879320846E-0001	
 2.85050000000000E+0003	 1.11852289827777E-0001	
 2.85250000000000E+0003	 1.13055700334709E-0001	
 2.85450000000000E+0003	 1.13849610841640E-0001	
 2.85650000000000E+0003	 1.14226021348572E-0001	
 2.85850000000000E+0003	 1.14346431855503E-0001	
 2.86050000000000E+0003	 1.14371842362435E-0001	
 2.86250000000000E+0003	 1.14423752869366E-0001	
 2.86450000000000E+0003	 1.14641163376298E-0001	
 2.86650000000000E+0003	 1.15047073883229E-0001	
 2.86850000000000E+0003	 1.15588984390161E-0001	
 2.87050000000000E+0003	 1.16218394897092E-0001	
 2.87250000000000E+0003	 1.16856305404024E-0001	
 2.87450000000000E+0003	 1.17289715910955E-0001	
 2.87650000000000E+0003	 1.17440626417887E-0001	
 2.87850000000000E+0003	 1.17497036924818E-0001	
 2.88050000000000E+0003	 1.17563447431750E-0001	
 2.88250000000000E+0003	 1.17654357938681E-0001	
 2.88450000000000E+0003	 1.17786768445613E-0001	
 2.88650000000000E+0003	 1.17993678952544E-0001	
 2.88850000000000E+0003	 1.18290589459476E-0001	
 2.89050000000000E+0003	 1.18659499966407E-0001	
 2.89250000000000E+0003	 1.19087410473339E-0001	
 2.89450000000000E+0003	 1.19595820980270E-0001	
 2.89650000000000E+0003	 1.20131731487202E-0001	
 2.89850000000000E+0003	 1.20631141994133E-0001	
 2.90050000000000E+0003	 1.21150052501065E-0001	
 2.90250000000000E+0003	 1.21728463007996E-0001	
 2.90450000000000E+0003	 1.22352873514928E-0001	
 2.90650000000000E+0003	 1.23040284021860E-0001	
 2.90850000000000E+0003	 1.23852194528791E-0001	
 2.91050000000000E+0003	 1.24852105035723E-0001	
 2.91250000000000E+0003	 1.26076515542654E-0001	
 2.91450000000000E+0003	 1.27446426049586E-0001	
 2.91650000000000E+0003	 1.28856336556517E-0001	
 2.91850000000000E+0003	 1.30280747063449E-0001	
 2.92050000000000E+0003	 1.31598657570380E-0001	
 2.92250000000000E+0003	 1.32715068077312E-0001	
 2.92450000000000E+0003	 1.33570978584243E-0001	
 2.92650000000000E+0003	 1.34148389091175E-0001	
 2.92850000000000E+0003	 1.34498299598106E-0001	
 2.93050000000000E+0003	 1.34584210105038E-0001	
 2.93250000000000E+0003	 1.34358620611969E-0001	
 2.93450000000000E+0003	 1.33968031118901E-0001	
 2.93650000000000E+0003	 1.33472441625832E-0001	
 2.93850000000000E+0003	 1.32866352132764E-0001	
 2.94050000000000E+0003	 1.32190762639695E-0001	
 2.94250000000000E+0003	 1.31551173146627E-0001	
 2.94450000000000E+0003	 1.30974583653558E-0001	
 2.94650000000000E+0003	 1.30433994160490E-0001	
 2.94850000000000E+0003	 1.29980404667421E-0001	
 2.95050000000000E+0003	 1.29746815174353E-0001	
 2.95250000000000E+0003	 1.29786225681284E-0001	
 2.95450000000000E+0003	 1.29923636188216E-0001	
 2.95650000000000E+0003	 1.30084546695147E-0001	
 2.95850000000000E+0003	 1.30229957202079E-0001	
 2.96050000000000E+0003	 1.30246367709010E-0001	
 2.96250000000000E+0003	 1.30055778215942E-0001	
 2.96450000000000E+0003	 1.29610688722873E-0001	
 2.96650000000000E+0003	 1.28940599229805E-0001	
 2.96850000000000E+0003	 1.28100509736736E-0001	
 2.97050000000000E+0003	 1.27153420243668E-0001	
 2.97250000000000E+0003	 1.26198330750599E-0001	
 2.97450000000000E+0003	 1.25294241257531E-0001	
 2.97650000000000E+0003	 1.24424151764462E-0001	
 2.97850000000000E+0003	 1.23648062271394E-0001	
 2.98050000000000E+0003	 1.22947972778325E-0001	
 2.98250000000000E+0003	 1.22230383285257E-0001	
 2.98450000000000E+0003	 1.21522293792189E-0001	
 2.98650000000000E+0003	 1.20896204299120E-0001	
 2.98850000000000E+0003	 1.20347114806052E-0001	
 2.99050000000000E+0003	 1.19893525312983E-0001	
 2.99250000000000E+0003	 1.19505935819915E-0001	
 2.99450000000000E+0003	 1.19093846326846E-0001	
 2.99650000000000E+0003	 1.18753756833778E-0001	
 2.99850000000000E+0003	 1.18509167340709E-0001	
 3.00050000000000E+0003	 1.18287577847641E-0001	
 3.00250000000000E+0003	 1.18165488354572E-0001	
 3.00450000000000E+0003	 1.18143398861504E-0001	
 3.00650000000000E+0003	 1.18165809368435E-0001	
 3.00850000000000E+0003	 1.18275719875367E-0001	
 3.01050000000000E+0003	 1.18533130382298E-0001	
 3.01250000000000E+0003	 1.18832040889230E-0001	
 3.01450000000000E+0003	 1.19048951396161E-0001	
 3.01650000000000E+0003	 1.19193361903093E-0001	
 3.01850000000000E+0003	 1.19370772410024E-0001	
 3.02050000000000E+0003	 1.19617682916956E-0001	
 3.02250000000000E+0003	 1.19932593423887E-0001	
 3.02450000000000E+0003	 1.20329003930819E-0001	
 3.02650000000000E+0003	 1.20729914437750E-0001	
 3.02850000000000E+0003	 1.21134824944682E-0001	
 3.03050000000000E+0003	 1.21590735451613E-0001	
 3.03250000000000E+0003	 1.22085645958545E-0001	
 3.03450000000000E+0003	 1.22582056465476E-0001	
 3.03650000000000E+0003	 1.22990466972408E-0001	
 3.03850000000000E+0003	 1.23416377479339E-0001	
 3.04050000000000E+0003	 1.23978287986271E-0001	
 3.04250000000000E+0003	 1.24554698493202E-0001	
 3.04450000000000E+0003	 1.25042109000134E-0001	
 3.04650000000000E+0003	 1.25479519507065E-0001	
 3.04850000000000E+0003	 1.25953430013997E-0001	
 3.05050000000000E+0003	 1.26517840520928E-0001	
 3.05250000000000E+0003	 1.27065251027860E-0001	
 3.05450000000000E+0003	 1.27577161534791E-0001	
 3.05650000000000E+0003	 1.28093072041723E-0001	
 3.05850000000000E+0003	 1.28575982548654E-0001	
 3.06050000000000E+0003	 1.29039393055586E-0001	
 3.06250000000000E+0003	 1.29519803562517E-0001	
 3.06450000000000E+0003	 1.30009714069449E-0001	
 3.06650000000000E+0003	 1.30497624576381E-0001	
 3.06850000000000E+0003	 1.30893035083312E-0001	
 3.07050000000000E+0003	 1.31178445590244E-0001	
 3.07250000000000E+0003	 1.31470856097175E-0001	
 3.07450000000000E+0003	 1.31818766604107E-0001	
 3.07650000000000E+0003	 1.32244677111038E-0001	
 3.07850000000000E+0003	 1.32682087617970E-0001	
 3.08050000000000E+0003	 1.32987498124901E-0001	
 3.08250000000000E+0003	 1.33209408631833E-0001	
 3.08450000000000E+0003	 1.33443819138764E-0001	
 3.08650000000000E+0003	 1.33643729645696E-0001	
 3.08850000000000E+0003	 1.33845640152627E-0001	
 3.09050000000000E+0003	 1.34077550659559E-0001	
 3.09250000000000E+0003	 1.34246961166490E-0001	
 3.09450000000000E+0003	 1.34399871673422E-0001	
 3.09650000000000E+0003	 1.34612282180353E-0001	
 3.09850000000000E+0003	 1.34875192687285E-0001	
 3.10050000000000E+0003	 1.35134603194216E-0001	
 3.10250000000000E+0003	 1.35344513701148E-0001	
 3.10450000000000E+0003	 1.35561924208079E-0001	
 3.10650000000000E+0003	 1.35866334715011E-0001	
 3.10850000000000E+0003	 1.36226745221942E-0001	
 3.11050000000000E+0003	 1.36519155728874E-0001	
 3.11250000000000E+0003	 1.36809566235805E-0001	
 3.11450000000000E+0003	 1.37259976742737E-0001	
 3.11650000000000E+0003	 1.37774887249668E-0001	
 3.11850000000000E+0003	 1.38222297756600E-0001	
 3.12050000000000E+0003	 1.38593708263531E-0001	
 3.12250000000000E+0003	 1.38878118770463E-0001	
 3.12450000000000E+0003	 1.39197029277394E-0001	
 3.12650000000000E+0003	 1.39653439784326E-0001	
 3.12850000000000E+0003	 1.40199850291257E-0001	
 3.13050000000000E+0003	 1.40748260798189E-0001	
 3.13250000000000E+0003	 1.41260671305120E-0001	
 3.13450000000000E+0003	 1.41807081812052E-0001	
 3.13650000000000E+0003	 1.42441492318983E-0001	
 3.13850000000000E+0003	 1.43149902825915E-0001	
 3.14050000000000E+0003	 1.43781813332846E-0001	
 3.14250000000000E+0003	 1.44318723839778E-0001	
 3.14450000000000E+0003	 1.44917134346710E-0001	
 3.14650000000000E+0003	 1.45593044853641E-0001	
 3.14850000000000E+0003	 1.46311955360573E-0001	
 3.15050000000000E+0003	 1.47138865867504E-0001	
 3.15250000000000E+0003	 1.48001776374436E-0001	
 3.15450000000000E+0003	 1.48690186881367E-0001	
 3.15650000000000E+0003	 1.49312597388299E-0001	
 3.15850000000000E+0003	 1.50029007895230E-0001	
 3.16050000000000E+0003	 1.50802918402162E-0001	
 3.16250000000000E+0003	 1.51606828909093E-0001	
 3.16450000000000E+0003	 1.52427239416025E-0001	
 3.16650000000000E+0003	 1.53253649922956E-0001	
 3.16850000000000E+0003	 1.54086560429888E-0001	
 3.17050000000000E+0003	 1.54927970936819E-0001	
 3.17250000000000E+0003	 1.55772881443751E-0001	
 3.17450000000000E+0003	 1.56616791950682E-0001	
 3.17650000000000E+0003	 1.57463202457614E-0001	
 3.17850000000000E+0003	 1.58322112964545E-0001	
 3.18050000000000E+0003	 1.59174023471477E-0001	
 3.18250000000000E+0003	 1.60011433978408E-0001	
 3.18450000000000E+0003	 1.60844844485340E-0001	
 3.18650000000000E+0003	 1.61684754992271E-0001	
 3.18850000000000E+0003	 1.62516665499203E-0001	
 3.19050000000000E+0003	 1.63320076006134E-0001	
 3.19250000000000E+0003	 1.64100486513066E-0001	
 3.19450000000000E+0003	 1.64875397019997E-0001	
 3.19650000000000E+0003	 1.65645807526929E-0001	
 3.19850000000000E+0003	 1.66411218033860E-0001	
 3.20050000000000E+0003	 1.67161628540792E-0001	
 3.20250000000000E+0003	 1.67903539047723E-0001	
 3.20450000000000E+0003	 1.68650449554655E-0001	
 3.20650000000000E+0003	 1.69391360061586E-0001	
 3.20850000000000E+0003	 1.70103770568518E-0001	
 3.21050000000000E+0003	 1.70806181075449E-0001	
 3.21250000000000E+0003	 1.71521091582381E-0001	
 3.21450000000000E+0003	 1.72244002089312E-0001	
 3.21650000000000E+0003	 1.72967912596244E-0001	
 3.21850000000000E+0003	 1.73693323103175E-0001	
 3.22050000000000E+0003	 1.74399233610107E-0001	
 3.22250000000000E+0003	 1.75096144117038E-0001	
 3.22450000000000E+0003	 1.75812554623970E-0001	
 3.22650000000000E+0003	 1.76544965130902E-0001	
 3.22850000000000E+0003	 1.77294875637833E-0001	
 3.23050000000000E+0003	 1.78103286144765E-0001	
 3.23250000000000E+0003	 1.78998196651696E-0001	
 3.23450000000000E+0003	 1.79799607158628E-0001	
 3.23650000000000E+0003	 1.80443517665559E-0001	
 3.23850000000000E+0003	 1.81135428172491E-0001	
 3.24050000000000E+0003	 1.81913838679422E-0001	
 3.24250000000000E+0003	 1.82721249186354E-0001	
 3.24450000000000E+0003	 1.83577159693285E-0001	
 3.24650000000000E+0003	 1.84482070200217E-0001	
 3.24850000000000E+0003	 1.85307480707148E-0001	
 3.25050000000000E+0003	 1.86055891214080E-0001	
 3.25250000000000E+0003	 1.86864301721011E-0001	
 3.25450000000000E+0003	 1.87767212227943E-0001	
 3.25650000000000E+0003	 1.88653122734874E-0001	
 3.25850000000000E+0003	 1.89462033241806E-0001	
 3.26050000000000E+0003	 1.90270443748737E-0001	
 3.26250000000000E+0003	 1.91118854255669E-0001	
 3.26450000000000E+0003	 1.91971764762600E-0001	
 3.26650000000000E+0003	 1.92819175269532E-0001	
 3.26850000000000E+0003	 1.93724085776463E-0001	
 3.27050000000000E+0003	 1.94659496283395E-0001	
 3.27250000000000E+0003	 1.95425906790326E-0001	
 3.27450000000000E+0003	 1.96050317297258E-0001	
 3.27650000000000E+0003	 1.96662227804189E-0001	
 3.27850000000000E+0003	 1.97269138311121E-0001	
 3.28050000000000E+0003	 1.97872048818052E-0001	
 3.28250000000000E+0003	 1.98461459324984E-0001	
 3.28450000000000E+0003	 1.99030869831915E-0001	
 3.28650000000000E+0003	 1.99569780338847E-0001	
 3.28850000000000E+0003	 2.00101690845778E-0001	
 3.29050000000000E+0003	 2.00682101352710E-0001	
 3.29250000000000E+0003	 2.01239511859641E-0001	
 3.29450000000000E+0003	 2.01679922366573E-0001	
 3.29650000000000E+0003	 2.02053832873504E-0001	
 3.29850000000000E+0003	 2.02377743380436E-0001	
 3.30050000000000E+0003	 2.02713153887367E-0001	
 3.30250000000000E+0003	 2.03166564394299E-0001	
 3.30450000000000E+0003	 2.03747474901231E-0001	
 3.30650000000000E+0003	 2.04250885408162E-0001	
 3.30850000000000E+0003	 2.04546795915094E-0001	
 3.31050000000000E+0003	 2.04736706422025E-0001	
 3.31250000000000E+0003	 2.04957116928957E-0001	
 3.31450000000000E+0003	 2.05272027435888E-0001	
 3.31650000000000E+0003	 2.05641937942820E-0001	
 3.31850000000000E+0003	 2.06023848449751E-0001	
 3.32050000000000E+0003	 2.06415258956683E-0001	
 3.32250000000000E+0003	 2.06843669463614E-0001	
 3.32450000000000E+0003	 2.07331079970546E-0001	
 3.32650000000000E+0003	 2.07784490477477E-0001	
 3.32850000000000E+0003	 2.08149900984409E-0001	
 3.33050000000000E+0003	 2.08542311491340E-0001	
 3.33250000000000E+0003	 2.08992721998272E-0001	
 3.33450000000000E+0003	 2.09480632505203E-0001	
 3.33650000000000E+0003	 2.10041043012135E-0001	
 3.33850000000000E+0003	 2.10611953519066E-0001	
 3.34050000000000E+0003	 2.11070364025998E-0001	
 3.34250000000000E+0003	 2.11502774532929E-0001	
 3.34450000000000E+0003	 2.11951185039861E-0001	
 3.34650000000000E+0003	 2.12397595546792E-0001	
 3.34850000000000E+0003	 2.12957506053724E-0001	
 3.35050000000000E+0003	 2.13580916560655E-0001	
 3.35250000000000E+0003	 2.14044827067587E-0001	
 3.35450000000000E+0003	 2.14425737574518E-0001	
 3.35650000000000E+0003	 2.14892148081450E-0001	
 3.35850000000000E+0003	 2.15432058588381E-0001	
 3.36050000000000E+0003	 2.15989469095313E-0001	
 3.36250000000000E+0003	 2.16505379602244E-0001	
 3.36450000000000E+0003	 2.17062290109176E-0001	
 3.36650000000000E+0003	 2.17744200616107E-0001	
 3.36850000000000E+0003	 2.18418611123039E-0001	
 3.37050000000000E+0003	 2.18883521629970E-0001	
 3.37250000000000E+0003	 2.19174932136902E-0001	
 3.37450000000000E+0003	 2.19548842643833E-0001	
 3.37650000000000E+0003	 2.20049753150765E-0001	
 3.37850000000000E+0003	 2.20561663657696E-0001	
 3.38050000000000E+0003	 2.21044574164628E-0001	
 3.38250000000000E+0003	 2.21488484671559E-0001	
 3.38450000000000E+0003	 2.21927895178491E-0001	
 3.38650000000000E+0003	 2.22399305685423E-0001	
 3.38850000000000E+0003	 2.22956216192354E-0001	
 3.39050000000000E+0003	 2.23623126699286E-0001	
 3.39250000000000E+0003	 2.24160537206217E-0001	
 3.39450000000000E+0003	 2.24440947713149E-0001	
 3.39650000000000E+0003	 2.24762358220080E-0001	
 3.39850000000000E+0003	 2.25344268727012E-0001	
 3.40050000000000E+0003	 2.25972679233943E-0001	
 3.40250000000000E+0003	 2.26258089740875E-0001	
 3.40450000000000E+0003	 2.26341500247806E-0001	
 3.40650000000000E+0003	 2.26589910754738E-0001	
 3.40850000000000E+0003	 2.26986821261669E-0001	
 3.41050000000000E+0003	 2.27351231768601E-0001	
 3.41250000000000E+0003	 2.27660142275532E-0001	
 3.41450000000000E+0003	 2.27879052782464E-0001	
 3.41650000000000E+0003	 2.28037963289395E-0001	
 3.41850000000000E+0003	 2.28250373796327E-0001	
 3.42050000000000E+0003	 2.28487784303258E-0001	
 3.42250000000000E+0003	 2.28660194810190E-0001	
 3.42450000000000E+0003	 2.28812105317121E-0001	
 3.42650000000000E+0003	 2.29016015824053E-0001	
 3.42850000000000E+0003	 2.29255926330984E-0001	
 3.43050000000000E+0003	 2.29423336837916E-0001	
 3.43250000000000E+0003	 2.29529247344847E-0001	
 3.43450000000000E+0003	 2.29695157851779E-0001	
 3.43650000000000E+0003	 2.29760068358710E-0001	
 3.43850000000000E+0003	 2.29572978865642E-0001	
 3.44050000000000E+0003	 2.29318389372573E-0001	
 3.44250000000000E+0003	 2.29176299879505E-0001	
 3.44450000000000E+0003	 2.29098710386436E-0001	
 3.44650000000000E+0003	 2.29004620893368E-0001	
 3.44850000000000E+0003	 2.28848531400299E-0001	
 3.45050000000000E+0003	 2.28646441907231E-0001	
 3.45250000000000E+0003	 2.28445852414162E-0001	
 3.45450000000000E+0003	 2.28235262921094E-0001	
 3.45650000000000E+0003	 2.28025673428025E-0001	
 3.45850000000000E+0003	 2.27854083934957E-0001	
 3.46050000000000E+0003	 2.27632994441888E-0001	
 3.46250000000000E+0003	 2.27287904948820E-0001	
 3.46450000000000E+0003	 2.27015815455752E-0001	
 3.46650000000000E+0003	 2.26920225962683E-0001	
 3.46850000000000E+0003	 2.26724136469615E-0001	
 3.47050000000000E+0003	 2.26171046976546E-0001	
 3.47250000000000E+0003	 2.25469957483478E-0001	
 3.47450000000000E+0003	 2.24913367990409E-0001	
 3.47650000000000E+0003	 2.24500778497341E-0001	
 3.47850000000000E+0003	 2.24170689004272E-0001	
 3.48050000000000E+0003	 2.23730599511204E-0001	
 3.48250000000000E+0003	 2.23099010018135E-0001	
 3.48450000000000E+0003	 2.22527920525067E-0001	
 3.48650000000000E+0003	 2.22043831031998E-0001	
 3.48850000000000E+0003	 2.21475741538930E-0001	
 3.49050000000000E+0003	 2.20864152045861E-0001	
 3.49250000000000E+0003	 2.20312062552793E-0001	
 3.49450000000000E+0003	 2.19785473059724E-0001	
 3.49650000000000E+0003	 2.19240383566656E-0001	
 3.49850000000000E+0003	 2.18647794073587E-0001	
 3.50050000000000E+0003	 2.18074704580519E-0001	
 3.50250000000000E+0003	 2.17500615087450E-0001	
 3.50450000000000E+0003	 2.16734025594382E-0001	
 3.50650000000000E+0003	 2.15892436101313E-0001	
 3.50850000000000E+0003	 2.15159846608245E-0001	
 3.51050000000000E+0003	 2.14505257115176E-0001	
 3.51250000000000E+0003	 2.13906667622108E-0001	
 3.51450000000000E+0003	 2.13241078129039E-0001	
 3.51650000000000E+0003	 2.12448488635971E-0001	
 3.51850000000000E+0003	 2.11670399142902E-0001	
 3.52050000000000E+0003	 2.10991809649834E-0001	
 3.52250000000000E+0003	 2.10410220156765E-0001	
 3.52450000000000E+0003	 2.09699630663697E-0001	
 3.52650000000000E+0003	 2.08777041170628E-0001	
 3.52850000000000E+0003	 2.07873951677560E-0001	
 3.53050000000000E+0003	 2.07051362184491E-0001	
 3.53250000000000E+0003	 2.06281272691423E-0001	
 3.53450000000000E+0003	 2.05588183198354E-0001	
 3.53650000000000E+0003	 2.04852593705286E-0001	
 3.53850000000000E+0003	 2.03937004212217E-0001	
 3.54050000000000E+0003	 2.03080414719149E-0001	
 3.54250000000000E+0003	 2.02415325226081E-0001	
 3.54450000000000E+0003	 2.01707735733012E-0001	
 3.54650000000000E+0003	 2.00690646239944E-0001	
 3.54850000000000E+0003	 1.99503556746875E-0001	
 3.55050000000000E+0003	 1.98455467253807E-0001	
 3.55250000000000E+0003	 1.97471877760738E-0001	
 3.55450000000000E+0003	 1.96435788267670E-0001	
 3.55650000000000E+0003	 1.95439198774601E-0001	
 3.55850000000000E+0003	 1.94489109281533E-0001	
 3.56050000000000E+0003	 1.93542019788464E-0001	
 3.56250000000000E+0003	 1.92535930295396E-0001	
 3.56450000000000E+0003	 1.91460840802327E-0001	
 3.56650000000000E+0003	 1.90347751309259E-0001	
 3.56850000000000E+0003	 1.89233161816190E-0001	
 3.57050000000000E+0003	 1.88106572323122E-0001	
 3.57250000000000E+0003	 1.86925482830053E-0001	
 3.57450000000000E+0003	 1.85728893336985E-0001	
 3.57650000000000E+0003	 1.84568303843916E-0001	
 3.57850000000000E+0003	 1.83438214350848E-0001	
 3.58050000000000E+0003	 1.82357624857779E-0001	
 3.58250000000000E+0003	 1.81338035364711E-0001	
 3.58450000000000E+0003	 1.80323445871642E-0001	
 3.58650000000000E+0003	 1.79078356378574E-0001	
 3.58850000000000E+0003	 1.77556766885505E-0001	
 3.59050000000000E+0003	 1.76150177392437E-0001	
 3.59250000000000E+0003	 1.74909587899368E-0001	
 3.59450000000000E+0003	 1.73604998406300E-0001	
 3.59650000000000E+0003	 1.72292908913231E-0001	
 3.59850000000000E+0003	 1.71049819420163E-0001	
 3.60050000000000E+0003	 1.69760229927094E-0001	
 3.60250000000000E+0003	 1.68431140434026E-0001	
 3.60450000000000E+0003	 1.67146050940957E-0001	
 3.60650000000000E+0003	 1.65803961447889E-0001	
 3.60850000000000E+0003	 1.64390871954820E-0001	
 3.61050000000000E+0003	 1.62977782461752E-0001	
 3.61250000000000E+0003	 1.61623692968683E-0001	
 3.61450000000000E+0003	 1.60293103475615E-0001	
 3.61650000000000E+0003	 1.58945013982546E-0001	
 3.61850000000000E+0003	 1.57595424489478E-0001	
 3.62050000000000E+0003	 1.56189334996409E-0001	
 3.62250000000000E+0003	 1.54744245503341E-0001	
 3.62450000000000E+0003	 1.53402156010273E-0001	
 3.62650000000000E+0003	 1.52042566517204E-0001	
 3.62850000000000E+0003	 1.50561477024136E-0001	
 3.63050000000000E+0003	 1.48977887531067E-0001	
 3.63250000000000E+0003	 1.47558298037999E-0001	
 3.63450000000000E+0003	 1.46248708544930E-0001	
 3.63650000000000E+0003	 1.44848619051862E-0001	
 3.63850000000000E+0003	 1.43475029558793E-0001	
 3.64050000000000E+0003	 1.42119440065725E-0001	
 3.64250000000000E+0003	 1.40821850572656E-0001	
 3.64450000000000E+0003	 1.39575261079588E-0001	
 3.64650000000000E+0003	 1.38354171586519E-0001	
 3.64850000000000E+0003	 1.37043582093451E-0001	
 3.65050000000000E+0003	 1.35696992600382E-0001	
 3.65250000000000E+0003	 1.34314403107314E-0001	
 3.65450000000000E+0003	 1.32978813614245E-0001	
 3.65650000000000E+0003	 1.31776724121177E-0001	
 3.65850000000000E+0003	 1.30602134628108E-0001	
 3.66050000000000E+0003	 1.29444545135040E-0001	
 3.66250000000000E+0003	 1.28180955641971E-0001	
 3.66450000000000E+0003	 1.26976866148903E-0001	
 3.66650000000000E+0003	 1.25919776655834E-0001	
 3.66850000000000E+0003	 1.24858187162766E-0001	
 3.67050000000000E+0003	 1.23845097669697E-0001	
 3.67250000000000E+0003	 1.22827508176629E-0001	
 3.67450000000000E+0003	 1.21896418683560E-0001	
 3.67650000000000E+0003	 1.20895329190492E-0001	
 3.67850000000000E+0003	 1.19869739697423E-0001	
 3.68050000000000E+0003	 1.19031650204355E-0001	
 3.68250000000000E+0003	 1.18223560711286E-0001	
 3.68450000000000E+0003	 1.17536971218218E-0001	
 3.68650000000000E+0003	 1.16951881725149E-0001	
 3.68850000000000E+0003	 1.16383292232081E-0001	
 3.69050000000000E+0003	 1.15518702739012E-0001	
 3.69250000000000E+0003	 1.14638613245944E-0001	
 3.69450000000000E+0003	 1.13941523752875E-0001	
 3.69650000000000E+0003	 1.13357434259807E-0001	
 3.69850000000000E+0003	 1.12747344766738E-0001	
 3.70050000000000E+0003	 1.12154255273670E-0001	
 3.70250000000000E+0003	 1.11605165780602E-0001	
 3.70450000000000E+0003	 1.11076076287533E-0001	
 3.70650000000000E+0003	 1.10607986794465E-0001	
 3.70850000000000E+0003	 1.10154397301396E-0001	
 3.71050000000000E+0003	 1.09681807808328E-0001	
 3.71250000000000E+0003	 1.09254218315259E-0001	
 3.71450000000000E+0003	 1.08824128822191E-0001	
 3.71650000000000E+0003	 1.08418039329122E-0001	
 3.71850000000000E+0003	 1.08034449836054E-0001	
 3.72050000000000E+0003	 1.07638860342985E-0001	
 3.72250000000000E+0003	 1.07289770849917E-0001	
 3.72450000000000E+0003	 1.06896681356848E-0001	
 3.72650000000000E+0003	 1.06527591863780E-0001	
 3.72850000000000E+0003	 1.06166502370711E-0001	
 3.73050000000000E+0003	 1.05877412877643E-0001	
 3.73250000000000E+0003	 1.05700823384574E-0001	
 3.73450000000000E+0003	 1.05449233891506E-0001	
 3.73650000000000E+0003	 1.05193644398437E-0001	
 3.73850000000000E+0003	 1.04882054905369E-0001	
 3.74050000000000E+0003	 1.04609965412300E-0001	
 3.74250000000000E+0003	 1.04216875919232E-0001	
 3.74450000000000E+0003	 1.03985786426163E-0001	
 3.74650000000000E+0003	 1.03650196933095E-0001	
 3.74850000000000E+0003	 1.03341607440026E-0001	
 3.75050000000000E+0003	 1.03047517946958E-0001	
 3.75250000000000E+0003	 1.02782428453889E-0001	
 3.75450000000000E+0003	 1.02534838960821E-0001	
 3.75650000000000E+0003	 1.02291249467752E-0001	
 3.75850000000000E+0003	 1.02046159974684E-0001	
 3.76050000000000E+0003	 1.01830570481615E-0001	
 3.76250000000000E+0003	 1.01575480988547E-0001	
 3.76450000000000E+0003	 1.01372891495478E-0001	
 3.76650000000000E+0003	 1.01173802002410E-0001	
 3.76850000000000E+0003	 1.00922212509341E-0001	
 3.77050000000000E+0003	 1.00726623016273E-0001	
 3.77250000000000E+0003	 1.00476033523204E-0001	
 3.77450000000000E+0003	 1.00284444030136E-0001	
 3.77650000000000E+0003	 1.00116354537067E-0001	
 3.77850000000000E+0003	 9.99872650439990E-0002	
 3.78050000000000E+0003	 9.98161755509305E-0002	
 3.78250000000000E+0003	 9.95320860578620E-0002	
 3.78450000000000E+0003	 9.93154965647935E-0002	
 3.78650000000000E+0003	 9.91284070717250E-0002	
 3.78850000000000E+0003	 9.89588175786565E-0002	
 3.79050000000000E+0003	 9.88027280855881E-0002	
 3.79250000000000E+0003	 9.86341385925196E-0002	
 3.79450000000000E+0003	 9.84245490994511E-0002	
 3.79650000000000E+0003	 9.83119596063826E-0002	
 3.79850000000000E+0003	 9.81283701133141E-0002	
 3.80050000000000E+0003	 9.79442806202456E-0002	
 3.80250000000000E+0003	 9.78471911271771E-0002	
 3.80450000000000E+0003	 9.75936016341086E-0002	
 3.80650000000000E+0003	 9.74615121410402E-0002	
 3.80850000000000E+0003	 9.73019226479717E-0002	
 3.81050000000000E+0003	 9.71498331549032E-0002	
 3.81250000000000E+0003	 9.70447436618347E-0002	
 3.81450000000000E+0003	 9.68856541687662E-0002	
 3.81650000000000E+0003	 9.68490646756977E-0002	
 3.81850000000000E+0003	 9.66549751826292E-0002	
 3.82050000000000E+0003	 9.65423856895607E-0002	
 3.82250000000000E+0003	 9.64047961964923E-0002	
 3.82450000000000E+0003	 9.61627067034238E-0002	
 3.82650000000000E+0003	 9.60596172103553E-0002	
 3.82850000000000E+0003	 9.59250277172868E-0002	
 3.83050000000000E+0003	 9.58039382242183E-0002	
 3.83250000000000E+0003	 9.57508487311498E-0002	
 3.83450000000000E+0003	 9.57197592380813E-0002	
 3.83650000000000E+0003	 9.56521697450128E-0002	
 3.83850000000000E+0003	 9.54690802519444E-0002	
 3.84050000000000E+0003	 9.52429907588759E-0002	
 3.84250000000000E+0003	 9.51064012658074E-0002	
 3.84450000000000E+0003	 9.50393117727389E-0002	
 3.84650000000000E+0003	 9.49437222796704E-0002	
 3.84850000000000E+0003	 9.48776327866019E-0002	
 3.85050000000000E+0003	 9.47735432935334E-0002	
 3.85250000000000E+0003	 9.46329538004649E-0002	
 3.85450000000000E+0003	 9.45213643073965E-0002	
 3.85650000000000E+0003	 9.43587748143280E-0002	
 3.85850000000000E+0003	 9.42501853212595E-0002	
 3.86050000000000E+0003	 9.41725958281910E-0002	
 3.86250000000000E+0003	 9.40730063351225E-0002	
 3.86450000000000E+0003	 9.40299168420540E-0002	
 3.86650000000000E+0003	 9.39488273489855E-0002	
 3.86850000000000E+0003	 9.38147378559170E-0002	
 3.87050000000000E+0003	 9.37661483628486E-0002	
 3.87250000000000E+0003	 9.35775588697801E-0002	
 3.87450000000000E+0003	 9.35254693767116E-0002	
 3.87650000000000E+0003	 9.34358798836431E-0002	
 3.87850000000000E+0003	 9.33352903905746E-0002	
 3.88050000000000E+0003	 9.33397008975061E-0002	
 3.88250000000000E+0003	 9.32776114044376E-0002	
 3.88450000000000E+0003	 9.32255219113691E-0002	
 3.88650000000000E+0003	 9.31839324183007E-0002	
 3.88850000000000E+0003	 9.29673429252322E-0002	
 3.89050000000000E+0003	 9.28762534321637E-0002	
 3.89250000000000E+0003	 9.28046639390952E-0002	
 3.89450000000000E+0003	 9.27115744460267E-0002	
 3.89650000000000E+0003	 9.26589849529582E-0002	
 3.89850000000000E+0003	 9.26598954598897E-0002	
 3.90050000000000E+0003	 9.26248059668212E-0002	
 3.90250000000000E+0003	 9.24987164737528E-0002	
 3.90450000000000E+0003	 9.24001269806843E-0002	
 3.90650000000000E+0003	 9.22720374876158E-0002	
 3.90850000000000E+0003	 9.21569479945473E-0002	
 3.91050000000000E+0003	 9.20898585014788E-0002	
 3.91250000000000E+0003	 9.20497690084103E-0002	
 3.91450000000000E+0003	 9.20081795153418E-0002	
 3.91650000000000E+0003	 9.19835900222733E-0002	
 3.91850000000000E+0003	 9.19230005292049E-0002	
 3.92050000000000E+0003	 9.18529110361364E-0002	
 3.92250000000000E+0003	 9.17638215430679E-0002	
 3.92450000000000E+0003	 9.17032320499994E-0002	
 3.92650000000000E+0003	 9.16326425569309E-0002	
 3.92850000000000E+0003	 9.15715530638624E-0002	
 3.93050000000000E+0003	 9.15399635707939E-0002	
 3.93250000000000E+0003	 9.15053740777254E-0002	
 3.93450000000000E+0003	 9.14297845846570E-0002	
 3.93650000000000E+0003	 9.13366950915885E-0002	
 3.93850000000000E+0003	 9.12721055985200E-0002	
 3.94050000000000E+0003	 9.12095161054515E-0002	
 3.94250000000000E+0003	 9.11739266123830E-0002	
 3.94450000000000E+0003	 9.11163371193145E-0002	
 3.94650000000000E+0003	 9.10482476262460E-0002	
 3.94850000000000E+0003	 9.09921581331775E-0002	
 3.95050000000000E+0003	 9.09260686401091E-0002	
 3.95250000000000E+0003	 9.08589791470406E-0002	
 3.95450000000000E+0003	 9.07973896539721E-0002	
 3.95650000000000E+0003	 9.07463001609036E-0002	
 3.95850000000000E+0003	 9.06967106678351E-0002	
 3.96050000000000E+0003	 9.06471211747666E-0002	
 3.96250000000000E+0003	 9.05980316816981E-0002	
 3.96450000000000E+0003	 9.05359421886296E-0002	
 3.96650000000000E+0003	 9.04773526955612E-0002	
 3.96850000000000E+0003	 9.04277632024927E-0002	
 3.97050000000000E+0003	 9.03766737094242E-0002	
 3.97250000000000E+0003	 9.03255842163557E-0002	
 3.97450000000000E+0003	 9.02844947232872E-0002	
 3.97650000000000E+0003	 9.02429052302187E-0002	
 3.97850000000000E+0003	 9.01863157371502E-0002	
 3.98050000000000E+0003	 9.01327262440817E-0002	
 3.98250000000000E+0003	 9.01076367510133E-0002	
 3.98450000000000E+0003	 9.00780472579448E-0002	
 3.98650000000000E+0003	 9.00109577648763E-0002	
 3.98850000000000E+0003	 8.99348682718078E-0002	
 3.99050000000000E+0003	 8.98757787787393E-0002	
 3.99250000000000E+0003	 8.98156892856708E-0002	
 3.99450000000000E+0003	 8.97665997926023E-0002	
 3.99650000000000E+0003	 8.97220102995338E-0002	
 3.99850000000000E+0003	 8.96629852941176E-0002	

>1	DATALINE
