*CPCWIN*

>1	DATALINE
DATALINE
1
Operator:

Description:

Remarks:





15.9.2008
11:23


_x	_y
	
	
UNIT	UNIT
 4.50500000000000E+0002	 2.28459247464101E-0001	
 4.52500000000000E+0002	 2.29937083920111E-0001	
 4.54500000000000E+0002	 2.31397420376121E-0001	
 4.56500000000000E+0002	 2.33106756832131E-0001	
 4.58500000000000E+0002	 2.35068093288141E-0001	
 4.60500000000000E+0002	 2.37295929744150E-0001	
 4.62500000000000E+0002	 2.39284766200160E-0001	
 4.64500000000000E+0002	 2.41339102656170E-0001	
 4.66500000000000E+0002	 2.42996439112180E-0001	
 4.68500000000000E+0002	 2.44876775568190E-0001	
 4.70500000000000E+0002	 2.46409112024200E-0001	
 4.72500000000000E+0002	 2.48101948480210E-0001	
 4.74500000000000E+0002	 2.50180784936220E-0001	
 4.76500000000000E+0002	 2.52365121392230E-0001	
 4.78500000000000E+0002	 2.54417457848240E-0001	
 4.80500000000000E+0002	 2.56539794304250E-0001	
 4.82500000000000E+0002	 2.58465630760259E-0001	
 4.84500000000000E+0002	 2.60751967216269E-0001	
 4.86500000000000E+0002	 2.63238803672279E-0001	
 4.88500000000000E+0002	 2.65774140128289E-0001	
 4.90500000000000E+0002	 2.68150976584299E-0001	
 4.92500000000000E+0002	 2.70761313040309E-0001	
 4.94500000000000E+0002	 2.73517649496319E-0001	
 4.96500000000000E+0002	 2.76330485952329E-0001	
 4.98500000000000E+0002	 2.78904822408339E-0001	
 5.00500000000000E+0002	 2.81376658864349E-0001	
 5.02500000000000E+0002	 2.83798995320359E-0001	
 5.04500000000000E+0002	 2.86208331776369E-0001	
 5.06500000000000E+0002	 2.88371168232378E-0001	
 5.08500000000000E+0002	 2.90695504688388E-0001	
 5.10500000000000E+0002	 2.92931841144398E-0001	
 5.12500000000000E+0002	 2.95308677600408E-0001	
 5.14500000000000E+0002	 2.97611014056418E-0001	
 5.16500000000000E+0002	 2.99950850512428E-0001	
 5.18500000000000E+0002	 3.02428186968438E-0001	
 5.20500000000000E+0002	 3.04952023424448E-0001	
 5.22500000000000E+0002	 3.07357359880458E-0001	
 5.24500000000000E+0002	 3.10306196336468E-0001	
 5.26500000000000E+0002	 3.14457532792478E-0001	
 5.28500000000000E+0002	 3.18982869248487E-0001	
 5.30500000000000E+0002	 3.21595705704497E-0001	
 5.32500000000000E+0002	 3.21402042160507E-0001	
 5.34500000000000E+0002	 3.19655878616517E-0001	
 5.36500000000000E+0002	 3.17654215072527E-0001	
 5.38500000000000E+0002	 3.15584051528537E-0001	
 5.40500000000000E+0002	 3.13518387984547E-0001	
 5.42500000000000E+0002	 3.11441724440557E-0001	
 5.44500000000000E+0002	 3.09526560896567E-0001	
 5.46500000000000E+0002	 3.07904397352577E-0001	
 5.48500000000000E+0002	 3.06691233808587E-0001	
 5.50500000000000E+0002	 3.05678570264597E-0001	
 5.52500000000000E+0002	 3.04899906720606E-0001	
 5.54500000000000E+0002	 3.04330743176616E-0001	
 5.56500000000000E+0002	 3.04090579632626E-0001	
 5.58500000000000E+0002	 3.03980916088636E-0001	
 5.60500000000000E+0002	 3.03927752544646E-0001	
 5.62500000000000E+0002	 3.03839589000656E-0001	
 5.64500000000000E+0002	 3.03868925456666E-0001	
 5.66500000000000E+0002	 3.03925261912676E-0001	
 5.68500000000000E+0002	 3.04115598368686E-0001	
 5.70500000000000E+0002	 3.04340934824696E-0001	
 5.72500000000000E+0002	 3.04559771280706E-0001	
 5.74500000000000E+0002	 3.04618107736716E-0001	
 5.76500000000000E+0002	 3.04504444192725E-0001	
 5.78500000000000E+0002	 3.03842780648735E-0001	
 5.80500000000000E+0002	 3.02601617104745E-0001	
 5.82500000000000E+0002	 3.01124953560755E-0001	
 5.84500000000000E+0002	 2.99853290016765E-0001	
 5.86500000000000E+0002	 2.98991126472775E-0001	
 5.88500000000000E+0002	 2.98665462928785E-0001	
 5.90500000000000E+0002	 2.98672299384795E-0001	
 5.92500000000000E+0002	 2.99162635840805E-0001	
 5.94500000000000E+0002	 2.99882472296815E-0001	
 5.96500000000000E+0002	 3.00588308752825E-0001	
 5.98500000000000E+0002	 3.01098145208834E-0001	
 6.00500000000000E+0002	 3.01692981664844E-0001	
 6.02500000000000E+0002	 3.02342318120854E-0001	
 6.04500000000000E+0002	 3.03055654576864E-0001	
 6.06500000000000E+0002	 3.03785491032874E-0001	
 6.08500000000000E+0002	 3.04550327488884E-0001	
 6.10500000000000E+0002	 3.05105163944894E-0001	
 6.12500000000000E+0002	 3.05429500400904E-0001	
 6.14500000000000E+0002	 3.05397836856914E-0001	
 6.16500000000000E+0002	 3.05104173312924E-0001	
 6.18500000000000E+0002	 3.04144009768934E-0001	
 6.20500000000000E+0002	 3.02784846224944E-0001	
 6.22500000000000E+0002	 3.01520682680953E-0001	
 6.24500000000000E+0002	 3.00424019136963E-0001	
 6.26500000000000E+0002	 2.99498355592973E-0001	
 6.28500000000000E+0002	 2.98795692048983E-0001	
 6.30500000000000E+0002	 2.98180028504993E-0001	
 6.32500000000000E+0002	 2.97657864961003E-0001	
 6.34500000000000E+0002	 2.97192201417013E-0001	
 6.36500000000000E+0002	 2.96941537873023E-0001	
 6.38500000000000E+0002	 2.96779374329033E-0001	
 6.40500000000000E+0002	 2.96600710785043E-0001	
 6.42500000000000E+0002	 2.96194547241053E-0001	
 6.44500000000000E+0002	 2.95549383697062E-0001	
 6.46500000000000E+0002	 2.94801220153072E-0001	
 6.48500000000000E+0002	 2.94071556609082E-0001	
 6.50500000000000E+0002	 2.93277893065092E-0001	
 6.52500000000000E+0002	 2.92675729521102E-0001	
 6.54500000000000E+0002	 2.92361565977112E-0001	
 6.56500000000000E+0002	 2.92293902433122E-0001	
 6.58500000000000E+0002	 2.92289738889132E-0001	
 6.60500000000000E+0002	 2.92455575345142E-0001	
 6.62500000000000E+0002	 2.92396411801152E-0001	
 6.64500000000000E+0002	 2.91210748257162E-0001	
 6.66500000000000E+0002	 2.86966084713172E-0001	
 6.68500000000000E+0002	 2.84814921169181E-0001	
 6.70500000000000E+0002	 2.88630757625191E-0001	
 6.72500000000000E+0002	 2.89291594081201E-0001	
 6.74500000000000E+0002	 2.88230430537211E-0001	
 6.76500000000000E+0002	 2.86905766993221E-0001	
 6.78500000000000E+0002	 2.85618103449231E-0001	
 6.80500000000000E+0002	 2.84553439905241E-0001	
 6.82500000000000E+0002	 2.83679276361251E-0001	
 6.84500000000000E+0002	 2.82999112817261E-0001	
 6.86500000000000E+0002	 2.82494949273271E-0001	
 6.88500000000000E+0002	 2.82175285729281E-0001	
 6.90500000000000E+0002	 2.82069622185290E-0001	
 6.92500000000000E+0002	 2.82187958641300E-0001	
 6.94500000000000E+0002	 2.82529295097310E-0001	
 6.96500000000000E+0002	 2.83038131553320E-0001	
 6.98500000000000E+0002	 2.83521468009330E-0001	
 7.00500000000000E+0002	 2.83716804465340E-0001	
 7.02500000000000E+0002	 2.83426140921350E-0001	
 7.04500000000000E+0002	 2.82603977377360E-0001	
 7.06500000000000E+0002	 2.81379313833370E-0001	
 7.08500000000000E+0002	 2.79880150289380E-0001	
 7.10500000000000E+0002	 2.78240986745390E-0001	
 7.12500000000000E+0002	 2.76512823201400E-0001	
 7.14500000000000E+0002	 2.74574159657409E-0001	
 7.16500000000000E+0002	 2.72697996113419E-0001	
 7.18500000000000E+0002	 2.71305832569429E-0001	
 7.20500000000000E+0002	 2.70034169025439E-0001	
 7.22500000000000E+0002	 2.68316505481449E-0001	
 7.24500000000000E+0002	 2.66450341937459E-0001	
 7.26500000000000E+0002	 2.64484178393469E-0001	
 7.28500000000000E+0002	 2.62444514849479E-0001	
 7.30500000000000E+0002	 2.60476351305489E-0001	
 7.32500000000000E+0002	 2.58734187761499E-0001	
 7.34500000000000E+0002	 2.57248024217509E-0001	
 7.36500000000000E+0002	 2.55976360673518E-0001	
 7.38500000000000E+0002	 2.54849197129528E-0001	
 7.40500000000000E+0002	 2.53851033585538E-0001	
 7.42500000000000E+0002	 2.52947370041548E-0001	
 7.44500000000000E+0002	 2.52178706497558E-0001	
 7.46500000000000E+0002	 2.51517042953568E-0001	
 7.48500000000000E+0002	 2.50855379409578E-0001	
 7.50500000000000E+0002	 2.50073715865588E-0001	
 7.52500000000000E+0002	 2.49123552321598E-0001	
 7.54500000000000E+0002	 2.47999388777608E-0001	
 7.56500000000000E+0002	 2.46739225233618E-0001	
 7.58500000000000E+0002	 2.45362561689628E-0001	
 7.60500000000000E+0002	 2.44058898145637E-0001	
 7.62500000000000E+0002	 2.42970734601647E-0001	
 7.64500000000000E+0002	 2.41976571057657E-0001	
 7.66500000000000E+0002	 2.40755407513667E-0001	
 7.68500000000000E+0002	 2.39224743969677E-0001	
 7.70500000000000E+0002	 2.37653580425687E-0001	
 7.72500000000000E+0002	 2.36456916881697E-0001	
 7.74500000000000E+0002	 2.35927753337707E-0001	
 7.76500000000000E+0002	 2.36323089793717E-0001	
 7.78500000000000E+0002	 2.37228426249727E-0001	
 7.80500000000000E+0002	 2.37379762705737E-0001	
 7.82500000000000E+0002	 2.36255099161746E-0001	
 7.84500000000000E+0002	 2.34843935617756E-0001	
 7.86500000000000E+0002	 2.33824772073766E-0001	
 7.88500000000000E+0002	 2.33138108529776E-0001	
 7.90500000000000E+0002	 2.32786944985786E-0001	
 7.92500000000000E+0002	 2.33167281441796E-0001	
 7.94500000000000E+0002	 2.34370117897806E-0001	
 7.96500000000000E+0002	 2.35939954353816E-0001	
 7.98500000000000E+0002	 2.37482790809826E-0001	
 8.00500000000000E+0002	 2.38972627265836E-0001	
 8.02500000000000E+0002	 2.40106963721846E-0001	
 8.04500000000000E+0002	 2.40367300177856E-0001	
 8.06500000000000E+0002	 2.39338136633865E-0001	
 8.08500000000000E+0002	 2.37321973089875E-0001	
 8.10500000000000E+0002	 2.34987809545885E-0001	
 8.12500000000000E+0002	 2.32931646001895E-0001	
 8.14500000000000E+0002	 2.31317982457905E-0001	
 8.16500000000000E+0002	 2.30142818913915E-0001	
 8.18500000000000E+0002	 2.29306655369925E-0001	
 8.20500000000000E+0002	 2.28776491825935E-0001	
 8.22500000000000E+0002	 2.28469828281945E-0001	
 8.24500000000000E+0002	 2.28378164737955E-0001	
 8.26500000000000E+0002	 2.28419501193965E-0001	
 8.28500000000000E+0002	 2.28636837649974E-0001	
 8.30500000000000E+0002	 2.29026674105984E-0001	
 8.32500000000000E+0002	 2.29619510561994E-0001	
 8.34500000000000E+0002	 2.30317847018004E-0001	
 8.36500000000000E+0002	 2.31060683474014E-0001	
 8.38500000000000E+0002	 2.31724519930024E-0001	
 8.40500000000000E+0002	 2.32290356386034E-0001	
 8.42500000000000E+0002	 2.32753692842044E-0001	
 8.44500000000000E+0002	 2.33266029298054E-0001	
 8.46500000000000E+0002	 2.33911865754064E-0001	
 8.48500000000000E+0002	 2.34759202210074E-0001	
 8.50500000000000E+0002	 2.35769038666084E-0001	
 8.52500000000000E+0002	 2.36991875122093E-0001	
 8.54500000000000E+0002	 2.38339711578103E-0001	
 8.56500000000000E+0002	 2.39682048034113E-0001	
 8.58500000000000E+0002	 2.40773884490123E-0001	
 8.60500000000000E+0002	 2.41465220946133E-0001	
 8.62500000000000E+0002	 2.41609557402143E-0001	
 8.64500000000000E+0002	 2.41232893858153E-0001	
 8.66500000000000E+0002	 2.40466230314163E-0001	
 8.68500000000000E+0002	 2.39932566770173E-0001	
 8.70500000000000E+0002	 2.40527903226183E-0001	
 8.72500000000000E+0002	 2.41220739682193E-0001	
 8.74500000000000E+0002	 2.39693076138202E-0001	
 8.76500000000000E+0002	 2.36884412594212E-0001	
 8.78500000000000E+0002	 2.34424749050222E-0001	
 8.80500000000000E+0002	 2.32529585506232E-0001	
 8.82500000000000E+0002	 2.31034421962242E-0001	
 8.84500000000000E+0002	 2.29860258418252E-0001	
 8.86500000000000E+0002	 2.28958094874262E-0001	
 8.88500000000000E+0002	 2.28432431330272E-0001	
 8.90500000000000E+0002	 2.28288767786282E-0001	
 8.92500000000000E+0002	 2.28564104242292E-0001	
 8.94500000000000E+0002	 2.29151440698302E-0001	
 8.96500000000000E+0002	 2.29912277154312E-0001	
 8.98500000000000E+0002	 2.30731613610321E-0001	
 9.00500000000000E+0002	 2.31666950066331E-0001	
 9.02500000000000E+0002	 2.32805786522341E-0001	
 9.04500000000000E+0002	 2.34296622978351E-0001	
 9.06500000000000E+0002	 2.36104959434361E-0001	
 9.08500000000000E+0002	 2.38118295890371E-0001	
 9.10500000000000E+0002	 2.40084632346381E-0001	
 9.12500000000000E+0002	 2.41764968802391E-0001	
 9.14500000000000E+0002	 2.42918305258401E-0001	
 9.16500000000000E+0002	 2.43496641714411E-0001	
 9.18500000000000E+0002	 2.43603978170421E-0001	
 9.20500000000000E+0002	 2.43562814626430E-0001	
 9.22500000000000E+0002	 2.43693651082440E-0001	
 9.24500000000000E+0002	 2.44326987538450E-0001	
 9.26500000000000E+0002	 2.45604823994460E-0001	
 9.28500000000000E+0002	 2.47518160450470E-0001	
 9.30500000000000E+0002	 2.49879496906480E-0001	
 9.32500000000000E+0002	 2.52495333362490E-0001	
 9.34500000000000E+0002	 2.55138669818500E-0001	
 9.36500000000000E+0002	 2.57689006274510E-0001	
 9.38500000000000E+0002	 2.59993842730520E-0001	
 9.40500000000000E+0002	 2.61952679186530E-0001	
 9.42500000000000E+0002	 2.63425515642540E-0001	
 9.44500000000000E+0002	 2.64329352098549E-0001	
 9.46500000000000E+0002	 2.64599188554559E-0001	
 9.48500000000000E+0002	 2.64376525010569E-0001	
 9.50500000000000E+0002	 2.63961361466579E-0001	
 9.52500000000000E+0002	 2.63826197922589E-0001	
 9.54500000000000E+0002	 2.64381034378599E-0001	
 9.56500000000000E+0002	 2.65940370834609E-0001	
 9.58500000000000E+0002	 2.68500207290619E-0001	
 9.60500000000000E+0002	 2.71929543746629E-0001	
 9.62500000000000E+0002	 2.75979880202639E-0001	
 9.64500000000000E+0002	 2.80462716658649E-0001	
 9.66500000000000E+0002	 2.85210553114659E-0001	
 9.68500000000000E+0002	 2.90299889570668E-0001	
 9.70500000000000E+0002	 2.95981226026678E-0001	
 9.72500000000000E+0002	 3.02774062482688E-0001	
 9.74500000000000E+0002	 3.11284898938698E-0001	
 9.76500000000000E+0002	 3.22093735394708E-0001	
 9.78500000000000E+0002	 3.35360071850718E-0001	
 9.80500000000000E+0002	 3.50699908306728E-0001	
 9.82500000000000E+0002	 3.67000744762738E-0001	
 9.84500000000000E+0002	 3.82690581218748E-0001	
 9.86500000000000E+0002	 3.96143917674758E-0001	
 9.88500000000000E+0002	 4.06255254130768E-0001	
 9.90500000000000E+0002	 4.12466090586777E-0001	
 9.92500000000000E+0002	 4.14749427042787E-0001	
 9.94500000000000E+0002	 4.13532263498797E-0001	
 9.96500000000000E+0002	 4.09782599954807E-0001	
 9.98500000000000E+0002	 4.04818936410817E-0001	
 1.00050000000000E+0003	 4.00250772866827E-0001	
 1.00250000000000E+0003	 3.97546609322837E-0001	
 1.00450000000000E+0003	 3.97734945778847E-0001	
 1.00650000000000E+0003	 4.01020282234857E-0001	
 1.00850000000000E+0003	 4.06826118690867E-0001	
 1.01050000000000E+0003	 4.13996455146877E-0001	
 1.01250000000000E+0003	 4.21452291602887E-0001	
 1.01450000000000E+0003	 4.28490628058896E-0001	
 1.01650000000000E+0003	 4.34978464514906E-0001	
 1.01850000000000E+0003	 4.41243300970916E-0001	
 1.02050000000000E+0003	 4.47956637426926E-0001	
 1.02250000000000E+0003	 4.55605473882936E-0001	
 1.02450000000000E+0003	 4.64145310338946E-0001	
 1.02650000000000E+0003	 4.72844146794956E-0001	
 1.02850000000000E+0003	 4.80702483250966E-0001	
 1.03050000000000E+0003	 4.86822319706976E-0001	
 1.03250000000000E+0003	 4.90887656162986E-0001	
 1.03450000000000E+0003	 4.93188492618996E-0001	
 1.03650000000000E+0003	 4.94435329075005E-0001	
 1.03850000000000E+0003	 4.95347665531015E-0001	
 1.04050000000000E+0003	 4.96625501987025E-0001	
 1.04250000000000E+0003	 4.98691338443035E-0001	
 1.04450000000000E+0003	 5.01616174899045E-0001	
 1.04650000000000E+0003	 5.04936011355055E-0001	
 1.04850000000000E+0003	 5.07894847811065E-0001	
 1.05050000000000E+0003	 5.09689184267075E-0001	
 1.05250000000000E+0003	 5.10045520723085E-0001	
 1.05450000000000E+0003	 5.09300357179095E-0001	
 1.05650000000000E+0003	 5.08120693635105E-0001	
 1.05850000000000E+0003	 5.06858530091115E-0001	
 1.06050000000000E+0003	 5.05504366547124E-0001	
 1.06250000000000E+0003	 5.03953703003134E-0001	
 1.06450000000000E+0003	 5.02532039459144E-0001	
 1.06650000000000E+0003	 5.01784375915154E-0001	
 1.06850000000000E+0003	 5.02199212371164E-0001	
 1.07050000000000E+0003	 5.03822048827174E-0001	
 1.07250000000000E+0003	 5.06259385283184E-0001	
 1.07450000000000E+0003	 5.08767221739194E-0001	
 1.07650000000000E+0003	 5.10546558195204E-0001	
 1.07850000000000E+0003	 5.10822894651214E-0001	
 1.08050000000000E+0003	 5.09216731107224E-0001	
 1.08250000000000E+0003	 5.05732067563233E-0001	
 1.08450000000000E+0003	 5.00797904019243E-0001	
 1.08650000000000E+0003	 4.95024240475253E-0001	
 1.08850000000000E+0003	 4.89113076931263E-0001	
 1.09050000000000E+0003	 4.83557413387273E-0001	
 1.09250000000000E+0003	 4.78634249843283E-0001	
 1.09450000000000E+0003	 4.74488086299293E-0001	
 1.09650000000000E+0003	 4.71298922755303E-0001	
 1.09850000000000E+0003	 4.69011259211313E-0001	
 1.10050000000000E+0003	 4.67425595667323E-0001	
 1.10250000000000E+0003	 4.66158432123333E-0001	
 1.10450000000000E+0003	 4.64861768579343E-0001	
 1.10650000000000E+0003	 4.63260605035352E-0001	
 1.10850000000000E+0003	 4.61362941491362E-0001	
 1.11050000000000E+0003	 4.59177277947372E-0001	
 1.11250000000000E+0003	 4.56632614403382E-0001	
 1.11450000000000E+0003	 4.53405950859392E-0001	
 1.11650000000000E+0003	 4.49242287315402E-0001	
 1.11850000000000E+0003	 4.44049623771412E-0001	
 1.12050000000000E+0003	 4.37977460227422E-0001	
 1.12250000000000E+0003	 4.31199796683432E-0001	
 1.12450000000000E+0003	 4.23972633139442E-0001	
 1.12650000000000E+0003	 4.16447969595452E-0001	
 1.12850000000000E+0003	 4.08785306051461E-0001	
 1.13050000000000E+0003	 4.01157642507471E-0001	
 1.13250000000000E+0003	 3.93999478963481E-0001	
 1.13450000000000E+0003	 3.87718315419491E-0001	
 1.13650000000000E+0003	 3.82729651875501E-0001	
 1.13850000000000E+0003	 3.79469488331511E-0001	
 1.14050000000000E+0003	 3.78293324787521E-0001	
 1.14250000000000E+0003	 3.79145661243531E-0001	
 1.14450000000000E+0003	 3.81511997699541E-0001	
 1.14650000000000E+0003	 3.84293334155551E-0001	
 1.14850000000000E+0003	 3.86220670611561E-0001	
 1.15050000000000E+0003	 3.86215007067571E-0001	
 1.15250000000000E+0003	 3.83835343523580E-0001	
 1.15450000000000E+0003	 3.79110679979590E-0001	
 1.15650000000000E+0003	 3.72583516435600E-0001	
 1.15850000000000E+0003	 3.65002852891610E-0001	
 1.16050000000000E+0003	 3.57142189347620E-0001	
 1.16250000000000E+0003	 3.49512025803630E-0001	
 1.16450000000000E+0003	 3.42455862259640E-0001	
 1.16650000000000E+0003	 3.36142198715650E-0001	
 1.16850000000000E+0003	 3.30710035171660E-0001	
 1.17050000000000E+0003	 3.26083371627670E-0001	
 1.17250000000000E+0003	 3.22047208083680E-0001	
 1.17450000000000E+0003	 3.18345544539689E-0001	
 1.17650000000000E+0003	 3.15017880995699E-0001	
 1.17850000000000E+0003	 3.12251717451709E-0001	
 1.18050000000000E+0003	 3.10378553907719E-0001	
 1.18250000000000E+0003	 3.09621390363729E-0001	
 1.18450000000000E+0003	 3.10145226819739E-0001	
 1.18650000000000E+0003	 3.12040563275749E-0001	
 1.18850000000000E+0003	 3.15371899731759E-0001	
 1.19050000000000E+0003	 3.20029736187769E-0001	
 1.19250000000000E+0003	 3.25903572643779E-0001	
 1.19450000000000E+0003	 3.32753909099789E-0001	
 1.19650000000000E+0003	 3.40300245555799E-0001	
 1.19850000000000E+0003	 3.48169582011808E-0001	
 1.20050000000000E+0003	 3.56025418467818E-0001	
 1.20250000000000E+0003	 3.63538754923828E-0001	
 1.20450000000000E+0003	 3.70502591379838E-0001	
 1.20650000000000E+0003	 3.76786927835848E-0001	
 1.20850000000000E+0003	 3.82507264291858E-0001	
 1.21050000000000E+0003	 3.88079600747868E-0001	
 1.21250000000000E+0003	 3.94263937203878E-0001	
 1.21450000000000E+0003	 4.01760273659888E-0001	
 1.21650000000000E+0003	 4.10523110115898E-0001	
 1.21850000000000E+0003	 4.19290946571908E-0001	
 1.22050000000000E+0003	 4.26602783027917E-0001	
 1.22250000000000E+0003	 4.31149119483927E-0001	
 1.22450000000000E+0003	 4.32004455939937E-0001	
 1.22650000000000E+0003	 4.30328792395947E-0001	
 1.22850000000000E+0003	 4.28056628851957E-0001	
 1.23050000000000E+0003	 4.25617965307967E-0001	
 1.23250000000000E+0003	 4.22768301763977E-0001	
 1.23450000000000E+0003	 4.19497138219987E-0001	
 1.23650000000000E+0003	 4.15952974675997E-0001	
 1.23850000000000E+0003	 4.12228811132007E-0001	
 1.24050000000000E+0003	 4.08399147588017E-0001	
 1.24250000000000E+0003	 4.04480484044027E-0001	
 1.24450000000000E+0003	 4.00509320500036E-0001	
 1.24650000000000E+0003	 3.96472156956046E-0001	
 1.24850000000000E+0003	 3.92357493412056E-0001	
 1.25050000000000E+0003	 3.88168329868066E-0001	
 1.25250000000000E+0003	 3.83947666324076E-0001	
 1.25450000000000E+0003	 3.79701002780086E-0001	
 1.25650000000000E+0003	 3.75455339236096E-0001	
 1.25850000000000E+0003	 3.71179675692106E-0001	
 1.26050000000000E+0003	 3.66861012148116E-0001	
 1.26250000000000E+0003	 3.62476348604126E-0001	
 1.26450000000000E+0003	 3.58114185060136E-0001	
 1.26650000000000E+0003	 3.53911021516145E-0001	
 1.26850000000000E+0003	 3.50008857972155E-0001	
 1.27050000000000E+0003	 3.46486694428165E-0001	
 1.27250000000000E+0003	 3.43411030884175E-0001	
 1.27450000000000E+0003	 3.40684367340185E-0001	
 1.27650000000000E+0003	 3.38252203796195E-0001	
 1.27850000000000E+0003	 3.36112040252205E-0001	
 1.28050000000000E+0003	 3.34207876708215E-0001	
 1.28250000000000E+0003	 3.32278713164225E-0001	
 1.28450000000000E+0003	 3.30208049620235E-0001	
 1.28650000000000E+0003	 3.28113386076245E-0001	
 1.28850000000000E+0003	 3.26240222532255E-0001	
 1.29050000000000E+0003	 3.24679558988264E-0001	
 1.29250000000000E+0003	 3.23453395444274E-0001	
 1.29450000000000E+0003	 3.22543231900284E-0001	
 1.29650000000000E+0003	 3.22044068356294E-0001	
 1.29850000000000E+0003	 3.22000404812304E-0001	
 1.30050000000000E+0003	 3.22369741268314E-0001	
 1.30250000000000E+0003	 3.22986577724324E-0001	
 1.30450000000000E+0003	 3.23730414180334E-0001	
 1.30650000000000E+0003	 3.24535250636344E-0001	
 1.30850000000000E+0003	 3.25422587092354E-0001	
 1.31050000000000E+0003	 3.26314923548364E-0001	
 1.31250000000000E+0003	 3.27226260004373E-0001	
 1.31450000000000E+0003	 3.28042596460383E-0001	
 1.31650000000000E+0003	 3.28581432916393E-0001	
 1.31850000000000E+0003	 3.28878769372403E-0001	
 1.32050000000000E+0003	 3.28997105828413E-0001	
 1.32250000000000E+0003	 3.28871442284423E-0001	
 1.32450000000000E+0003	 3.28623278740433E-0001	
 1.32650000000000E+0003	 3.28389115196443E-0001	
 1.32850000000000E+0003	 3.28293451652453E-0001	
 1.33050000000000E+0003	 3.28353288108463E-0001	
 1.33250000000000E+0003	 3.28477624564473E-0001	
 1.33450000000000E+0003	 3.28454961020483E-0001	
 1.33650000000000E+0003	 3.28188797476492E-0001	
 1.33850000000000E+0003	 3.27963133932502E-0001	
 1.34050000000000E+0003	 3.28070470388512E-0001	
 1.34250000000000E+0003	 3.28077806844522E-0001	
 1.34450000000000E+0003	 3.27992143300532E-0001	
 1.34650000000000E+0003	 3.28253979756542E-0001	
 1.34850000000000E+0003	 3.29452316212552E-0001	
 1.35050000000000E+0003	 3.31958652668562E-0001	
 1.35250000000000E+0003	 3.35794989124572E-0001	
 1.35450000000000E+0003	 3.40595325580582E-0001	
 1.35650000000000E+0003	 3.45611162036592E-0001	
 1.35850000000000E+0003	 3.50283998492602E-0001	
 1.36050000000000E+0003	 3.54960334948611E-0001	
 1.36250000000000E+0003	 3.60159171404621E-0001	
 1.36450000000000E+0003	 3.65136507860631E-0001	
 1.36650000000000E+0003	 3.68344344316641E-0001	
 1.36850000000000E+0003	 3.69604180772651E-0001	
 1.37050000000000E+0003	 3.69351517228661E-0001	
 1.37250000000000E+0003	 3.68225853684671E-0001	
 1.37450000000000E+0003	 3.67057190140681E-0001	
 1.37650000000000E+0003	 3.65993526596691E-0001	
 1.37850000000000E+0003	 3.64825863052701E-0001	
 1.38050000000000E+0003	 3.63572199508711E-0001	
 1.38250000000000E+0003	 3.62434535964720E-0001	
 1.38450000000000E+0003	 3.61332872420730E-0001	
 1.38650000000000E+0003	 3.60636208876740E-0001	
 1.38850000000000E+0003	 3.60446545332750E-0001	
 1.39050000000000E+0003	 3.60397881788760E-0001	
 1.39250000000000E+0003	 3.60548218244770E-0001	
 1.39450000000000E+0003	 3.61234054700780E-0001	
 1.39650000000000E+0003	 3.62369891156790E-0001	
 1.39850000000000E+0003	 3.63779227612800E-0001	
 1.40050000000000E+0003	 3.64614064068810E-0001	
 1.40250000000000E+0003	 3.64838400524820E-0001	
 1.40450000000000E+0003	 3.64813236980830E-0001	
 1.40650000000000E+0003	 3.64604073436839E-0001	
 1.40850000000000E+0003	 3.64328409892849E-0001	
 1.41050000000000E+0003	 3.64196746348859E-0001	
 1.41250000000000E+0003	 3.64262582804869E-0001	
 1.41450000000000E+0003	 3.64078419260879E-0001	
 1.41650000000000E+0003	 3.63357255716889E-0001	
 1.41850000000000E+0003	 3.63048092172899E-0001	
 1.42050000000000E+0003	 3.62566928628909E-0001	
 1.42250000000000E+0003	 3.61611765084919E-0001	
 1.42450000000000E+0003	 3.59848101540929E-0001	
 1.42650000000000E+0003	 3.57633937996939E-0001	
 1.42850000000000E+0003	 3.55752274452948E-0001	
 1.43050000000000E+0003	 3.54497610908958E-0001	
 1.43250000000000E+0003	 3.53669447364968E-0001	
 1.43450000000000E+0003	 3.53827283820978E-0001	
 1.43650000000000E+0003	 3.55452120276988E-0001	
 1.43850000000000E+0003	 3.57521456732998E-0001	
 1.44050000000000E+0003	 3.59512293189008E-0001	
 1.44250000000000E+0003	 3.61145129645018E-0001	
 1.44450000000000E+0003	 3.62531966101028E-0001	
 1.44650000000000E+0003	 3.64140302557038E-0001	
 1.44850000000000E+0003	 3.65809639013048E-0001	
 1.45050000000000E+0003	 3.67094475469058E-0001	
 1.45250000000000E+0003	 3.67285311925067E-0001	
 1.45450000000000E+0003	 3.66136648381077E-0001	
 1.45650000000000E+0003	 3.65269984837087E-0001	
 1.45850000000000E+0003	 3.64170321293097E-0001	
 1.46050000000000E+0003	 3.61548657749107E-0001	
 1.46250000000000E+0003	 3.57651494205117E-0001	
 1.46450000000000E+0003	 3.53128830661127E-0001	
 1.46650000000000E+0003	 3.47914667117137E-0001	
 1.46850000000000E+0003	 3.41959003573147E-0001	
 1.47050000000000E+0003	 3.34866340029157E-0001	
 1.47250000000000E+0003	 3.26910676485167E-0001	
 1.47450000000000E+0003	 3.20025012941176E-0001	
 1.47650000000000E+0003	 3.14664349397186E-0001	
 1.47850000000000E+0003	 3.09936185853196E-0001	
 1.48050000000000E+0003	 3.06721022309206E-0001	
 1.48250000000000E+0003	 3.04700358765216E-0001	
 1.48450000000000E+0003	 3.03701195221226E-0001	
 1.48650000000000E+0003	 3.03737031677236E-0001	
 1.48850000000000E+0003	 3.05452868133246E-0001	
 1.49050000000000E+0003	 3.09150704589256E-0001	
 1.49250000000000E+0003	 3.12523541045266E-0001	
 1.49450000000000E+0003	 3.16004877501276E-0001	
 1.49650000000000E+0003	 3.21681213957286E-0001	
 1.49850000000000E+0003	 3.28641550413295E-0001	
 1.50050000000000E+0003	 3.34560886869305E-0001	
 1.50250000000000E+0003	 3.39085723325315E-0001	
 1.50450000000000E+0003	 3.43666559781325E-0001	
 1.50650000000000E+0003	 3.53021896237335E-0001	
 1.50850000000000E+0003	 3.65702232693345E-0001	
 1.51050000000000E+0003	 3.76168569149355E-0001	
 1.51250000000000E+0003	 3.85868405605365E-0001	
 1.51450000000000E+0003	 3.95058242061375E-0001	
 1.51650000000000E+0003	 4.03353078517385E-0001	
 1.51850000000000E+0003	 4.09336914973395E-0001	
 1.52050000000000E+0003	 4.15018251429404E-0001	
 1.52250000000000E+0003	 4.22973587885414E-0001	
 1.52450000000000E+0003	 4.30712924341424E-0001	
 1.52650000000000E+0003	 4.38540760797434E-0001	
 1.52850000000000E+0003	 4.46019097253444E-0001	
 1.53050000000000E+0003	 4.52269433709454E-0001	
 1.53250000000000E+0003	 4.58826270165464E-0001	
 1.53450000000000E+0003	 4.64981106621474E-0001	
 1.53650000000000E+0003	 4.67862943077484E-0001	
 1.53850000000000E+0003	 4.70962779533494E-0001	
 1.54050000000000E+0003	 4.77750615989504E-0001	
 1.54250000000000E+0003	 4.83900452445514E-0001	
 1.54450000000000E+0003	 4.87733788901523E-0001	
 1.54650000000000E+0003	 4.89015625357533E-0001	
 1.54850000000000E+0003	 4.88105961813543E-0001	
 1.55050000000000E+0003	 4.84581298269553E-0001	
 1.55250000000000E+0003	 4.78983634725563E-0001	
 1.55450000000000E+0003	 4.71012471181573E-0001	
 1.55650000000000E+0003	 4.62181807637583E-0001	
 1.55850000000000E+0003	 4.54478144093593E-0001	
 1.56050000000000E+0003	 4.46016980549603E-0001	
 1.56250000000000E+0003	 4.40254317005613E-0001	
 1.56450000000000E+0003	 4.33981153461623E-0001	
 1.56650000000000E+0003	 4.26602989917632E-0001	
 1.56850000000000E+0003	 4.20497826373642E-0001	
 1.57050000000000E+0003	 4.14157162829652E-0001	
 1.57250000000000E+0003	 4.07387499285662E-0001	
 1.57450000000000E+0003	 4.01170335741672E-0001	
 1.57650000000000E+0003	 3.96964672197682E-0001	
 1.57850000000000E+0003	 3.93927008653692E-0001	
 1.58050000000000E+0003	 3.90905845109702E-0001	
 1.58250000000000E+0003	 3.87653181565712E-0001	
 1.58450000000000E+0003	 3.85215018021722E-0001	
 1.58650000000000E+0003	 3.83559354477732E-0001	
 1.58850000000000E+0003	 3.82963690933742E-0001	
 1.59050000000000E+0003	 3.83275027389751E-0001	
 1.59250000000000E+0003	 3.84640863845761E-0001	
 1.59450000000000E+0003	 3.86811700301771E-0001	
 1.59650000000000E+0003	 3.89781036757781E-0001	
 1.59850000000000E+0003	 3.93083873213791E-0001	
 1.60050000000000E+0003	 3.97061709669801E-0001	
 1.60250000000000E+0003	 4.01811046125811E-0001	
 1.60450000000000E+0003	 4.07446382581821E-0001	
 1.60650000000000E+0003	 4.13792219037831E-0001	
 1.60850000000000E+0003	 4.21526555493841E-0001	
 1.61050000000000E+0003	 4.30383891949851E-0001	
 1.61250000000000E+0003	 4.39240228405860E-0001	
 1.61450000000000E+0003	 4.47887564861870E-0001	
 1.61650000000000E+0003	 4.60679401317880E-0001	
 1.61850000000000E+0003	 4.75549237773890E-0001	
 1.62050000000000E+0003	 4.88362074229900E-0001	
 1.62250000000000E+0003	 5.02425410685910E-0001	
 1.62450000000000E+0003	 5.18339747141920E-0001	
 1.62650000000000E+0003	 5.33831083597930E-0001	
 1.62850000000000E+0003	 5.49724420053940E-0001	
 1.63050000000000E+0003	 5.64602256509950E-0001	
 1.63250000000000E+0003	 5.76940092965960E-0001	
 1.63450000000000E+0003	 5.89367429421970E-0001	
 1.63650000000000E+0003	 6.03265765877979E-0001	
 1.63850000000000E+0003	 6.13974102333989E-0001	
 1.64050000000000E+0003	 6.21240938789999E-0001	
 1.64250000000000E+0003	 6.26382275246009E-0001	
 1.64450000000000E+0003	 6.30785611702019E-0001	
 1.64650000000000E+0003	 6.37125948158029E-0001	
 1.64850000000000E+0003	 6.42062284614039E-0001	
 1.65050000000000E+0003	 6.43815621070049E-0001	
 1.65250000000000E+0003	 6.49625457526059E-0001	
 1.65450000000000E+0003	 6.57006793982069E-0001	
 1.65650000000000E+0003	 6.59898630438079E-0001	
 1.65850000000000E+0003	 6.58971966894088E-0001	
 1.66050000000000E+0003	 6.55748303350098E-0001	
 1.66250000000000E+0003	 6.50985639806108E-0001	
 1.66450000000000E+0003	 6.44171976262118E-0001	
 1.66650000000000E+0003	 6.37229312718128E-0001	
 1.66850000000000E+0003	 6.30323649174138E-0001	
 1.67050000000000E+0003	 6.22722985630148E-0001	
 1.67250000000000E+0003	 6.15764822086158E-0001	
 1.67450000000000E+0003	 6.09666158542168E-0001	
 1.67650000000000E+0003	 6.02023494998178E-0001	
 1.67850000000000E+0003	 5.94866831454188E-0001	
 1.68050000000000E+0003	 5.87021667910198E-0001	
 1.68250000000000E+0003	 5.79385004366207E-0001	
 1.68450000000000E+0003	 5.72434340822217E-0001	
 1.68650000000000E+0003	 5.66742677278227E-0001	
 1.68850000000000E+0003	 5.61704513734237E-0001	
 1.69050000000000E+0003	 5.54806850190247E-0001	
 1.69250000000000E+0003	 5.46598186646257E-0001	
 1.69450000000000E+0003	 5.38907023102267E-0001	
 1.69650000000000E+0003	 5.31748359558277E-0001	
 1.69850000000000E+0003	 5.28754196014287E-0001	
 1.70050000000000E+0003	 5.26531032470297E-0001	
 1.70250000000000E+0003	 5.24517868926307E-0001	
 1.70450000000000E+0003	 5.25001205382316E-0001	
 1.70650000000000E+0003	 5.25952541838326E-0001	
 1.70850000000000E+0003	 5.27014378294336E-0001	
 1.71050000000000E+0003	 5.27335714750346E-0001	
 1.71250000000000E+0003	 5.25628051206356E-0001	
 1.71450000000000E+0003	 5.19951387662366E-0001	
 1.71650000000000E+0003	 5.10664224118376E-0001	
 1.71850000000000E+0003	 4.95592560574386E-0001	
 1.72050000000000E+0003	 4.77512397030396E-0001	
 1.72250000000000E+0003	 4.60147233486406E-0001	
 1.72450000000000E+0003	 4.43752069942416E-0001	
 1.72650000000000E+0003	 4.30542406398426E-0001	
 1.72850000000000E+0003	 4.20020742854435E-0001	
 1.73050000000000E+0003	 4.10706579310445E-0001	
 1.73250000000000E+0003	 4.05204915766455E-0001	
 1.73450000000000E+0003	 4.02628252222465E-0001	
 1.73650000000000E+0003	 4.01041588678475E-0001	
 1.73850000000000E+0003	 4.00312925134485E-0001	
 1.74050000000000E+0003	 3.99004761590495E-0001	
 1.74250000000000E+0003	 3.97734598046505E-0001	
 1.74450000000000E+0003	 3.96241434502515E-0001	
 1.74650000000000E+0003	 3.94120270958525E-0001	
 1.74850000000000E+0003	 3.91239607414535E-0001	
 1.75050000000000E+0003	 3.87678943870545E-0001	
 1.75250000000000E+0003	 3.82588780326554E-0001	
 1.75450000000000E+0003	 3.76820116782564E-0001	
 1.75650000000000E+0003	 3.69568953238574E-0001	
 1.75850000000000E+0003	 3.61342289694584E-0001	
 1.76050000000000E+0003	 3.53948626150594E-0001	
 1.76250000000000E+0003	 3.45931462606604E-0001	
 1.76450000000000E+0003	 3.38125299062614E-0001	
 1.76650000000000E+0003	 3.31143635518624E-0001	
 1.76850000000000E+0003	 3.23677471974634E-0001	
 1.77050000000000E+0003	 3.17359808430644E-0001	
 1.77250000000000E+0003	 3.12246644886654E-0001	
 1.77450000000000E+0003	 3.07940481342663E-0001	
 1.77650000000000E+0003	 3.04120317798673E-0001	
 1.77850000000000E+0003	 3.00414154254683E-0001	
 1.78050000000000E+0003	 2.96985490710693E-0001	
 1.78250000000000E+0003	 2.93953327166703E-0001	
 1.78450000000000E+0003	 2.91270163622713E-0001	
 1.78650000000000E+0003	 2.88387500078723E-0001	
 1.78850000000000E+0003	 2.85506336534733E-0001	
 1.79050000000000E+0003	 2.83117672990743E-0001	
 1.79250000000000E+0003	 2.80975009446753E-0001	
 1.79450000000000E+0003	 2.78921845902763E-0001	
 1.79650000000000E+0003	 2.77108182358773E-0001	
 1.79850000000000E+0003	 2.75310018814782E-0001	
 1.80050000000000E+0003	 2.73516855270792E-0001	
 1.80250000000000E+0003	 2.71715691726802E-0001	
 1.80450000000000E+0003	 2.70010528182812E-0001	
 1.80650000000000E+0003	 2.68291864638822E-0001	
 1.80850000000000E+0003	 2.66639201094832E-0001	
 1.81050000000000E+0003	 2.65228037550842E-0001	
 1.81250000000000E+0003	 2.63864374006852E-0001	
 1.81450000000000E+0003	 2.62585210462862E-0001	
 1.81650000000000E+0003	 2.61296046918872E-0001	
 1.81850000000000E+0003	 2.59970883374882E-0001	
 1.82050000000000E+0003	 2.58540719830891E-0001	
 1.82250000000000E+0003	 2.57300556286901E-0001	
 1.82450000000000E+0003	 2.56096392742911E-0001	
 1.82650000000000E+0003	 2.54570729198921E-0001	
 1.82850000000000E+0003	 2.53797065654931E-0001	
 1.83050000000000E+0003	 2.53047402110941E-0001	
 1.83250000000000E+0003	 2.52074238566951E-0001	
 1.83450000000000E+0003	 2.51206075022961E-0001	
 1.83650000000000E+0003	 2.50325911478971E-0001	
 1.83850000000000E+0003	 2.49311247934981E-0001	
 1.84050000000000E+0003	 2.47919584390991E-0001	
 1.84250000000000E+0003	 2.47105920847001E-0001	
 1.84450000000000E+0003	 2.46432757303010E-0001	
 1.84650000000000E+0003	 2.45865093759020E-0001	
 1.84850000000000E+0003	 2.45477930215030E-0001	
 1.85050000000000E+0003	 2.44871766671040E-0001	
 1.85250000000000E+0003	 2.44215603127050E-0001	
 1.85450000000000E+0003	 2.43518439583060E-0001	
 1.85650000000000E+0003	 2.42831276039070E-0001	
 1.85850000000000E+0003	 2.42188112495080E-0001	
 1.86050000000000E+0003	 2.41573448951090E-0001	
 1.86250000000000E+0003	 2.40845285407100E-0001	
 1.86450000000000E+0003	 2.39862621863110E-0001	
 1.86650000000000E+0003	 2.39160458319119E-0001	
 1.86850000000000E+0003	 2.38982794775129E-0001	
 1.87050000000000E+0003	 2.38645631231139E-0001	
 1.87250000000000E+0003	 2.38338967687149E-0001	
 1.87450000000000E+0003	 2.37958304143159E-0001	
 1.87650000000000E+0003	 2.37505640599169E-0001	
 1.87850000000000E+0003	 2.37064977055179E-0001	
 1.88050000000000E+0003	 2.36625313511189E-0001	
 1.88250000000000E+0003	 2.36201149967199E-0001	
 1.88450000000000E+0003	 2.35719486423209E-0001	
 1.88650000000000E+0003	 2.35254822879219E-0001	
 1.88850000000000E+0003	 2.34998159335229E-0001	
 1.89050000000000E+0003	 2.34612495791238E-0001	
 1.89250000000000E+0003	 2.34252332247248E-0001	
 1.89450000000000E+0003	 2.34005668703258E-0001	
 1.89650000000000E+0003	 2.33757505159268E-0001	
 1.89850000000000E+0003	 2.33503341615278E-0001	
 1.90050000000000E+0003	 2.33208178071288E-0001	
 1.90250000000000E+0003	 2.32891014527298E-0001	
 1.90450000000000E+0003	 2.32528350983308E-0001	
 1.90650000000000E+0003	 2.32142687439318E-0001	
 1.90850000000000E+0003	 2.31897023895328E-0001	
 1.91050000000000E+0003	 2.31747360351338E-0001	
 1.91250000000000E+0003	 2.31488696807347E-0001	
 1.91450000000000E+0003	 2.31100533263357E-0001	
 1.91650000000000E+0003	 2.30967369719367E-0001	
 1.91850000000000E+0003	 2.30628206175377E-0001	
 1.92050000000000E+0003	 2.30318542631387E-0001	
 1.92250000000000E+0003	 2.30286379087397E-0001	
 1.92450000000000E+0003	 2.30217715543407E-0001	
 1.92650000000000E+0003	 2.30130551999417E-0001	
 1.92850000000000E+0003	 2.29969388455427E-0001	
 1.93050000000000E+0003	 2.29795724911437E-0001	
 1.93250000000000E+0003	 2.29649561367447E-0001	
 1.93450000000000E+0003	 2.29520897823457E-0001	
 1.93650000000000E+0003	 2.29355234279466E-0001	
 1.93850000000000E+0003	 2.29071570735476E-0001	
 1.94050000000000E+0003	 2.28906407191486E-0001	
 1.94250000000000E+0003	 2.28825243647496E-0001	
 1.94450000000000E+0003	 2.28783580103506E-0001	
 1.94650000000000E+0003	 2.28845416559516E-0001	
 1.94850000000000E+0003	 2.28834753015526E-0001	
 1.95050000000000E+0003	 2.28778089471536E-0001	
 1.95250000000000E+0003	 2.28696425927546E-0001	
 1.95450000000000E+0003	 2.28649262383556E-0001	
 1.95650000000000E+0003	 2.28618098839566E-0001	
 1.95850000000000E+0003	 2.28581435295575E-0001	
 1.96050000000000E+0003	 2.28528271751585E-0001	
 1.96250000000000E+0003	 2.28419608207595E-0001	
 1.96450000000000E+0003	 2.28296444663605E-0001	
 1.96650000000000E+0003	 2.28305281119615E-0001	
 1.96850000000000E+0003	 2.28355617575625E-0001	
 1.97050000000000E+0003	 2.28404454031635E-0001	
 1.97250000000000E+0003	 2.28404790487645E-0001	
 1.97450000000000E+0003	 2.28395626943655E-0001	
 1.97650000000000E+0003	 2.28384963399665E-0001	
 1.97850000000000E+0003	 2.28385299855675E-0001	
 1.98050000000000E+0003	 2.28381136311685E-0001	
 1.98250000000000E+0003	 2.28381472767694E-0001	
 1.98450000000000E+0003	 2.28350309223704E-0001	
 1.98650000000000E+0003	 2.28293145679714E-0001	
 1.98850000000000E+0003	 2.28211482135724E-0001	
 1.99050000000000E+0003	 2.28247818591734E-0001	
 1.99250000000000E+0003	 2.28286655047744E-0001	
 1.99450000000000E+0003	 2.28328491503754E-0001	
 1.99650000000000E+0003	 2.28355327959764E-0001	
 1.99850000000000E+0003	 2.28341664415774E-0001	
 2.00050000000000E+0003	 2.28326000871784E-0001	
 2.00250000000000E+0003	 2.28321837327794E-0001	
 2.00450000000000E+0003	 2.28313173783803E-0001	
 2.00650000000000E+0003	 2.28315510239813E-0001	
 2.00850000000000E+0003	 2.28330346695823E-0001	
 2.01050000000000E+0003	 2.28356183151833E-0001	
 2.01250000000000E+0003	 2.28334019607843E-0001	
 2.01450000000000E+0003	 2.28316356063853E-0001	
 2.01650000000000E+0003	 2.28361192519863E-0001	
 2.01850000000000E+0003	 2.28456028975873E-0001	
 2.02050000000000E+0003	 2.28564865431883E-0001	
 2.02250000000000E+0003	 2.28653201887893E-0001	
 2.02450000000000E+0003	 2.28731038343903E-0001	
 2.02650000000000E+0003	 2.28819874799913E-0001	
 2.02850000000000E+0003	 2.28902711255922E-0001	
 2.03050000000000E+0003	 2.28983047711932E-0001	
 2.03250000000000E+0003	 2.29055884167942E-0001	
 2.03450000000000E+0003	 2.29132220623952E-0001	
 2.03650000000000E+0003	 2.29192057079962E-0001	
 2.03850000000000E+0003	 2.29240893535972E-0001	
 2.04050000000000E+0003	 2.29306229991982E-0001	
 2.04250000000000E+0003	 2.29401566447992E-0001	
 2.04450000000000E+0003	 2.29505902904002E-0001	
 2.04650000000000E+0003	 2.29595739360012E-0001	
 2.04850000000000E+0003	 2.29673575816022E-0001	
 2.05050000000000E+0003	 2.29749412272031E-0001	
 2.05250000000000E+0003	 2.29819248728041E-0001	
 2.05450000000000E+0003	 2.29886585184051E-0001	
 2.05650000000000E+0003	 2.29944421640061E-0001	
 2.05850000000000E+0003	 2.30005758096071E-0001	
 2.06050000000000E+0003	 2.30039094552081E-0001	
 2.06250000000000E+0003	 2.30060931008091E-0001	
 2.06450000000000E+0003	 2.30109767464101E-0001	
 2.06650000000000E+0003	 2.30180603920111E-0001	
 2.06850000000000E+0003	 2.30250940376121E-0001	
 2.07050000000000E+0003	 2.30299776832131E-0001	
 2.07250000000000E+0003	 2.30341113288141E-0001	
 2.07450000000000E+0003	 2.30383449744150E-0001	
 2.07650000000000E+0003	 2.30434786200160E-0001	
 2.07850000000000E+0003	 2.30488122656170E-0001	
 2.08050000000000E+0003	 2.30534959112180E-0001	
 2.08250000000000E+0003	 2.30583295568190E-0001	
 2.08450000000000E+0003	 2.30630632024200E-0001	
 2.08650000000000E+0003	 2.30675968480210E-0001	
 2.08850000000000E+0003	 2.30736304936220E-0001	
 2.09050000000000E+0003	 2.30811141392230E-0001	
 2.09250000000000E+0003	 2.30889977848240E-0001	
 2.09450000000000E+0003	 2.30961314304250E-0001	
 2.09650000000000E+0003	 2.31023150760259E-0001	
 2.09850000000000E+0003	 2.31088987216269E-0001	
 2.10050000000000E+0003	 2.31149323672279E-0001	
 2.10250000000000E+0003	 2.31209160128289E-0001	
 2.10450000000000E+0003	 2.31262496584299E-0001	
 2.10650000000000E+0003	 2.31314833040309E-0001	
 2.10850000000000E+0003	 2.31360169496319E-0001	
 2.11050000000000E+0003	 2.31403505952329E-0001	
 2.11250000000000E+0003	 2.31439342408339E-0001	
 2.11450000000000E+0003	 2.31484178864349E-0001	
 2.11650000000000E+0003	 2.31528015320359E-0001	
 2.11850000000000E+0003	 2.31571351776369E-0001	
 2.12050000000000E+0003	 2.31604188232378E-0001	
 2.12250000000000E+0003	 2.31632024688388E-0001	
 2.12450000000000E+0003	 2.31652361144398E-0001	
 2.12650000000000E+0003	 2.31672197600408E-0001	
 2.12850000000000E+0003	 2.31686034056418E-0001	
 2.13050000000000E+0003	 2.31694370512428E-0001	
 2.13250000000000E+0003	 2.31694706968438E-0001	
 2.13450000000000E+0003	 2.31696043424448E-0001	
 2.13650000000000E+0003	 2.31694879880458E-0001	
 2.13850000000000E+0003	 2.31692216336468E-0001	
 2.14050000000000E+0003	 2.31676552792478E-0001	
 2.14250000000000E+0003	 2.31651389248487E-0001	
 2.14450000000000E+0003	 2.31621725704497E-0001	
 2.14650000000000E+0003	 2.31581062160507E-0001	
 2.14850000000000E+0003	 2.31524898616517E-0001	
 2.15050000000000E+0003	 2.31455735072527E-0001	
 2.15250000000000E+0003	 2.31378571528537E-0001	
 2.15450000000000E+0003	 2.31296407984547E-0001	
 2.15650000000000E+0003	 2.31201244440557E-0001	
 2.15850000000000E+0003	 2.31100580896567E-0001	
 2.16050000000000E+0003	 2.30999417352577E-0001	
 2.16250000000000E+0003	 2.30895253808587E-0001	
 2.16450000000000E+0003	 2.30791590264597E-0001	
 2.16650000000000E+0003	 2.30688926720606E-0001	
 2.16850000000000E+0003	 2.30592263176616E-0001	
 2.17050000000000E+0003	 2.30491099632626E-0001	
 2.17250000000000E+0003	 2.30375436088636E-0001	
 2.17450000000000E+0003	 2.30266272544646E-0001	
 2.17650000000000E+0003	 2.30163609000656E-0001	
 2.17850000000000E+0003	 2.30062445456666E-0001	
 2.18050000000000E+0003	 2.29961781912676E-0001	
 2.18250000000000E+0003	 2.29863618368686E-0001	
 2.18450000000000E+0003	 2.29766954824696E-0001	
 2.18650000000000E+0003	 2.29669291280706E-0001	
 2.18850000000000E+0003	 2.29577627736716E-0001	
 2.19050000000000E+0003	 2.29490464192725E-0001	
 2.19250000000000E+0003	 2.29395800648735E-0001	
 2.19450000000000E+0003	 2.29304137104745E-0001	
 2.19650000000000E+0003	 2.29219973560755E-0001	
 2.19850000000000E+0003	 2.29137310016765E-0001	
 2.20050000000000E+0003	 2.29053646472775E-0001	
 2.20250000000000E+0003	 2.28972982928785E-0001	
 2.20450000000000E+0003	 2.28896819384795E-0001	
 2.20650000000000E+0003	 2.28826655840805E-0001	
 2.20850000000000E+0003	 2.28761492296815E-0001	
 2.21050000000000E+0003	 2.28698828752825E-0001	
 2.21250000000000E+0003	 2.28641665208834E-0001	
 2.21450000000000E+0003	 2.28586001664844E-0001	
 2.21650000000000E+0003	 2.28527838120854E-0001	
 2.21850000000000E+0003	 2.28470174576864E-0001	
 2.22050000000000E+0003	 2.28415011032874E-0001	
 2.22250000000000E+0003	 2.28366347488884E-0001	
 2.22450000000000E+0003	 2.28322683944894E-0001	
 2.22650000000000E+0003	 2.28275020400904E-0001	
 2.22850000000000E+0003	 2.28219356856914E-0001	
 2.23050000000000E+0003	 2.28143693312924E-0001	
 2.23250000000000E+0003	 2.28043529768934E-0001	
 2.23450000000000E+0003	 2.27928866224944E-0001	
 2.23650000000000E+0003	 2.27808202680953E-0001	
 2.23850000000000E+0003	 2.27687039136963E-0001	
 2.24050000000000E+0003	 2.27575875592973E-0001	
 2.24250000000000E+0003	 2.27476212048983E-0001	
 2.24450000000000E+0003	 2.27385048504993E-0001	
 2.24650000000000E+0003	 2.27298384961003E-0001	
 2.24850000000000E+0003	 2.27214221417013E-0001	
 2.25050000000000E+0003	 2.27135557873023E-0001	
 2.25250000000000E+0003	 2.27062894329033E-0001	
 2.25450000000000E+0003	 2.26993230785043E-0001	
 2.25650000000000E+0003	 2.26926567241053E-0001	
 2.25850000000000E+0003	 2.26858903697062E-0001	
 2.26050000000000E+0003	 2.26787240153072E-0001	
 2.26250000000000E+0003	 2.26710076609082E-0001	
 2.26450000000000E+0003	 2.26634413065092E-0001	
 2.26650000000000E+0003	 2.26555749521102E-0001	
 2.26850000000000E+0003	 2.26475085977112E-0001	
 2.27050000000000E+0003	 2.26395422433122E-0001	
 2.27250000000000E+0003	 2.26322758889132E-0001	
 2.27450000000000E+0003	 2.26258095345142E-0001	
 2.27650000000000E+0003	 2.26200931801152E-0001	
 2.27850000000000E+0003	 2.26144268257162E-0001	
 2.28050000000000E+0003	 2.26088604713172E-0001	
 2.28250000000000E+0003	 2.26039441169181E-0001	
 2.28450000000000E+0003	 2.26023777625191E-0001	
 2.28650000000000E+0003	 2.26072114081201E-0001	
 2.28850000000000E+0003	 2.26168950537211E-0001	
 2.29050000000000E+0003	 2.26279786993221E-0001	
 2.29250000000000E+0003	 2.26418623449231E-0001	
 2.29450000000000E+0003	 2.26570459905241E-0001	
 2.29650000000000E+0003	 2.26683796361251E-0001	
 2.29850000000000E+0003	 2.26744132817261E-0001	
 2.30050000000000E+0003	 2.26726469273271E-0001	
 2.30250000000000E+0003	 2.26572805729281E-0001	
 2.30450000000000E+0003	 2.26411642185290E-0001	
 2.30650000000000E+0003	 2.26407978641300E-0001	
 2.30850000000000E+0003	 2.26429315097310E-0001	
 2.31050000000000E+0003	 2.26315651553320E-0001	
 2.31250000000000E+0003	 2.26078488009330E-0001	
 2.31450000000000E+0003	 2.26036824465340E-0001	
 2.31650000000000E+0003	 2.26295160921350E-0001	
 2.31850000000000E+0003	 2.26517497377360E-0001	
 2.32050000000000E+0003	 2.26736833833370E-0001	
 2.32250000000000E+0003	 2.27023670289380E-0001	
 2.32450000000000E+0003	 2.27207506745390E-0001	
 2.32650000000000E+0003	 2.27186343201400E-0001	
 2.32850000000000E+0003	 2.26864679657409E-0001	
 2.33050000000000E+0003	 2.26482516113419E-0001	
 2.33250000000000E+0003	 2.26298852569429E-0001	
 2.33450000000000E+0003	 2.26310189025439E-0001	
 2.33650000000000E+0003	 2.26482525481449E-0001	
 2.33850000000000E+0003	 2.26813861937459E-0001	
 2.34050000000000E+0003	 2.27370198393469E-0001	
 2.34250000000000E+0003	 2.27728034849479E-0001	
 2.34450000000000E+0003	 2.26996871305489E-0001	
 2.34650000000000E+0003	 2.26197207761499E-0001	
 2.34850000000000E+0003	 2.26483544217509E-0001	
 2.35050000000000E+0003	 2.26517880673518E-0001	
 2.35250000000000E+0003	 2.26283217129528E-0001	
 2.35450000000000E+0003	 2.26626053585538E-0001	
 2.35650000000000E+0003	 2.27049390041548E-0001	
 2.35850000000000E+0003	 2.26978226497558E-0001	
 2.36050000000000E+0003	 2.26543562953568E-0001	
 2.36250000000000E+0003	 2.26319899409578E-0001	
 2.36450000000000E+0003	 2.26385235865588E-0001	
 2.36650000000000E+0003	 2.26553072321598E-0001	
 2.36850000000000E+0003	 2.26736408777608E-0001	
 2.37050000000000E+0003	 2.26650745233618E-0001	
 2.37250000000000E+0003	 2.25965581689628E-0001	
 2.37450000000000E+0003	 2.25008418145637E-0001	
 2.37650000000000E+0003	 2.24746254601647E-0001	
 2.37850000000000E+0003	 2.25614091057657E-0001	
 2.38050000000000E+0003	 2.26898427513667E-0001	
 2.38250000000000E+0003	 2.27685763969677E-0001	
 2.38450000000000E+0003	 2.27800600425687E-0001	
 2.38650000000000E+0003	 2.27624436881697E-0001	
 2.38850000000000E+0003	 2.27483273337707E-0001	
 2.39050000000000E+0003	 2.27473109793717E-0001	
 2.39250000000000E+0003	 2.27554946249727E-0001	
 2.39450000000000E+0003	 2.27679282705737E-0001	
 2.39650000000000E+0003	 2.27815119161746E-0001	
 2.39850000000000E+0003	 2.27956455617756E-0001	
 2.40050000000000E+0003	 2.28091292073766E-0001	
 2.40250000000000E+0003	 2.28212628529776E-0001	
 2.40450000000000E+0003	 2.28320964985786E-0001	
 2.40650000000000E+0003	 2.28425801441796E-0001	
 2.40850000000000E+0003	 2.28523637897806E-0001	
 2.41050000000000E+0003	 2.28623474353816E-0001	
 2.41250000000000E+0003	 2.28735310809826E-0001	
 2.41450000000000E+0003	 2.28862147265836E-0001	
 2.41650000000000E+0003	 2.28991983721846E-0001	
 2.41850000000000E+0003	 2.29126820177856E-0001	
 2.42050000000000E+0003	 2.29269156633865E-0001	
 2.42250000000000E+0003	 2.29418993089875E-0001	
 2.42450000000000E+0003	 2.29574329545885E-0001	
 2.42650000000000E+0003	 2.29742666001895E-0001	
 2.42850000000000E+0003	 2.29914502457905E-0001	
 2.43050000000000E+0003	 2.30091838913915E-0001	
 2.43250000000000E+0003	 2.30277175369925E-0001	
 2.43450000000000E+0003	 2.30467011825935E-0001	
 2.43650000000000E+0003	 2.30659848281945E-0001	
 2.43850000000000E+0003	 2.30851184737955E-0001	
 2.44050000000000E+0003	 2.31041021193965E-0001	
 2.44250000000000E+0003	 2.31238357649974E-0001	
 2.44450000000000E+0003	 2.31438694105984E-0001	
 2.44650000000000E+0003	 2.31633030561994E-0001	
 2.44850000000000E+0003	 2.31818867018004E-0001	
 2.45050000000000E+0003	 2.32005203474014E-0001	
 2.45250000000000E+0003	 2.32191539930024E-0001	
 2.45450000000000E+0003	 2.32383876386034E-0001	
 2.45650000000000E+0003	 2.32581712842044E-0001	
 2.45850000000000E+0003	 2.32787549298054E-0001	
 2.46050000000000E+0003	 2.33000385754064E-0001	
 2.46250000000000E+0003	 2.33223722210074E-0001	
 2.46450000000000E+0003	 2.33456558666084E-0001	
 2.46650000000000E+0003	 2.33695395122093E-0001	
 2.46850000000000E+0003	 2.33936231578103E-0001	
 2.47050000000000E+0003	 2.34185568034113E-0001	
 2.47250000000000E+0003	 2.34443904490123E-0001	
 2.47450000000000E+0003	 2.34712740946133E-0001	
 2.47650000000000E+0003	 2.34984577402143E-0001	
 2.47850000000000E+0003	 2.35255913858153E-0001	
 2.48050000000000E+0003	 2.35528750314163E-0001	
 2.48250000000000E+0003	 2.35809086770173E-0001	
 2.48450000000000E+0003	 2.36092423226183E-0001	
 2.48650000000000E+0003	 2.36375759682193E-0001	
 2.48850000000000E+0003	 2.36658596138202E-0001	
 2.49050000000000E+0003	 2.36952432594212E-0001	
 2.49250000000000E+0003	 2.37248769050222E-0001	
 2.49450000000000E+0003	 2.37550105506232E-0001	
 2.49650000000000E+0003	 2.37855941962242E-0001	
 2.49850000000000E+0003	 2.38163778418252E-0001	
 2.50050000000000E+0003	 2.38471614874262E-0001	
 2.50250000000000E+0003	 2.38779451330272E-0001	
 2.50450000000000E+0003	 2.39092287786282E-0001	
 2.50650000000000E+0003	 2.39409124242292E-0001	
 2.50850000000000E+0003	 2.39716960698302E-0001	
 2.51050000000000E+0003	 2.40016297154312E-0001	
 2.51250000000000E+0003	 2.40313133610321E-0001	
 2.51450000000000E+0003	 2.40606470066331E-0001	
 2.51650000000000E+0003	 2.40891306522341E-0001	
 2.51850000000000E+0003	 2.41170142978351E-0001	
 2.52050000000000E+0003	 2.41445479434361E-0001	
 2.52250000000000E+0003	 2.41713815890371E-0001	
 2.52450000000000E+0003	 2.41980152346381E-0001	
 2.52650000000000E+0003	 2.42249988802391E-0001	
 2.52850000000000E+0003	 2.42515325258401E-0001	
 2.53050000000000E+0003	 2.42775161714411E-0001	
 2.53250000000000E+0003	 2.43026998170421E-0001	
 2.53450000000000E+0003	 2.43271834626430E-0001	
 2.53650000000000E+0003	 2.43509171082440E-0001	
 2.53850000000000E+0003	 2.43742007538450E-0001	
 2.54050000000000E+0003	 2.43967843994460E-0001	
 2.54250000000000E+0003	 2.44187180450470E-0001	
 2.54450000000000E+0003	 2.44401516906480E-0001	
 2.54650000000000E+0003	 2.44610353362490E-0001	
 2.54850000000000E+0003	 2.44810689818500E-0001	
 2.55050000000000E+0003	 2.45007026274510E-0001	
 2.55250000000000E+0003	 2.45200362730520E-0001	
 2.55450000000000E+0003	 2.45391199186530E-0001	
 2.55650000000000E+0003	 2.45575535642540E-0001	
 2.55850000000000E+0003	 2.45757372098549E-0001	
 2.56050000000000E+0003	 2.45932708554559E-0001	
 2.56250000000000E+0003	 2.46096045010569E-0001	
 2.56450000000000E+0003	 2.46252381466579E-0001	
 2.56650000000000E+0003	 2.46412217922589E-0001	
 2.56850000000000E+0003	 2.46582054378599E-0001	
 2.57050000000000E+0003	 2.46764890834609E-0001	
 2.57250000000000E+0003	 2.46958227290619E-0001	
 2.57450000000000E+0003	 2.47162063746629E-0001	
 2.57650000000000E+0003	 2.47371400202639E-0001	
 2.57850000000000E+0003	 2.47590236658649E-0001	
 2.58050000000000E+0003	 2.47821073114659E-0001	
 2.58250000000000E+0003	 2.48067909570668E-0001	
 2.58450000000000E+0003	 2.48322746026678E-0001	
 2.58650000000000E+0003	 2.48591582482688E-0001	
 2.58850000000000E+0003	 2.48874918938698E-0001	
 2.59050000000000E+0003	 2.49174255394708E-0001	
 2.59250000000000E+0003	 2.49485591850718E-0001	
 2.59450000000000E+0003	 2.49811428306728E-0001	
 2.59650000000000E+0003	 2.50154764762738E-0001	
 2.59850000000000E+0003	 2.50512101218748E-0001	
 2.60050000000000E+0003	 2.50880937674758E-0001	
 2.60250000000000E+0003	 2.51265274130768E-0001	
 2.60450000000000E+0003	 2.51656610586777E-0001	
 2.60650000000000E+0003	 2.52056947042787E-0001	
 2.60850000000000E+0003	 2.52462283498797E-0001	
 2.61050000000000E+0003	 2.52868119954807E-0001	
 2.61250000000000E+0003	 2.53275456410817E-0001	
 2.61450000000000E+0003	 2.53689792866827E-0001	
 2.61650000000000E+0003	 2.54104129322837E-0001	
 2.61850000000000E+0003	 2.54521465778847E-0001	
 2.62050000000000E+0003	 2.54939802234857E-0001	
 2.62250000000000E+0003	 2.55361638690867E-0001	
 2.62450000000000E+0003	 2.55788475146877E-0001	
 2.62650000000000E+0003	 2.56218311602887E-0001	
 2.62850000000000E+0003	 2.56649648058896E-0001	
 2.63050000000000E+0003	 2.57086484514906E-0001	
 2.63250000000000E+0003	 2.57517320970916E-0001	
 2.63450000000000E+0003	 2.57949657426926E-0001	
 2.63650000000000E+0003	 2.58381493882936E-0001	
 2.63850000000000E+0003	 2.58815830338946E-0001	
 2.64050000000000E+0003	 2.59250166794956E-0001	
 2.64250000000000E+0003	 2.59684503250966E-0001	
 2.64450000000000E+0003	 2.60120839706976E-0001	
 2.64650000000000E+0003	 2.60560176162986E-0001	
 2.64850000000000E+0003	 2.60997012618996E-0001	
 2.65050000000000E+0003	 2.61436349075005E-0001	
 2.65250000000000E+0003	 2.61872185531015E-0001	
 2.65450000000000E+0003	 2.62306021987025E-0001	
 2.65650000000000E+0003	 2.62742358443035E-0001	
 2.65850000000000E+0003	 2.63186694899045E-0001	
 2.66050000000000E+0003	 2.63633031355055E-0001	
 2.66250000000000E+0003	 2.64081867811065E-0001	
 2.66450000000000E+0003	 2.64531204267075E-0001	
 2.66650000000000E+0003	 2.64989040723085E-0001	
 2.66850000000000E+0003	 2.65450877179095E-0001	
 2.67050000000000E+0003	 2.65916713635105E-0001	
 2.67250000000000E+0003	 2.66389550091115E-0001	
 2.67450000000000E+0003	 2.66868386547124E-0001	
 2.67650000000000E+0003	 2.67343223003134E-0001	
 2.67850000000000E+0003	 2.67818059459144E-0001	
 2.68050000000000E+0003	 2.68290395915154E-0001	
 2.68250000000000E+0003	 2.68764732371164E-0001	
 2.68450000000000E+0003	 2.69241568827174E-0001	
 2.68650000000000E+0003	 2.69721905283184E-0001	
 2.68850000000000E+0003	 2.70193241739194E-0001	
 2.69050000000000E+0003	 2.70665578195204E-0001	
 2.69250000000000E+0003	 2.71137914651214E-0001	
 2.69450000000000E+0003	 2.71619251107224E-0001	
 2.69650000000000E+0003	 2.72104587563233E-0001	
 2.69850000000000E+0003	 2.72596424019243E-0001	
 2.70050000000000E+0003	 2.73097760475253E-0001	
 2.70250000000000E+0003	 2.73615096931263E-0001	
 2.70450000000000E+0003	 2.74145433387273E-0001	
 2.70650000000000E+0003	 2.74697769843283E-0001	
 2.70850000000000E+0003	 2.75269106299293E-0001	
 2.71050000000000E+0003	 2.75857442755303E-0001	
 2.71250000000000E+0003	 2.76461279211313E-0001	
 2.71450000000000E+0003	 2.77091115667323E-0001	
 2.71650000000000E+0003	 2.77734952123333E-0001	
 2.71850000000000E+0003	 2.78387788579343E-0001	
 2.72050000000000E+0003	 2.79041625035352E-0001	
 2.72250000000000E+0003	 2.79692961491362E-0001	
 2.72450000000000E+0003	 2.80337297947372E-0001	
 2.72650000000000E+0003	 2.80975134403382E-0001	
 2.72850000000000E+0003	 2.81600970859392E-0001	
 2.73050000000000E+0003	 2.82222307315402E-0001	
 2.73250000000000E+0003	 2.82829143771412E-0001	
 2.73450000000000E+0003	 2.83409980227422E-0001	
 2.73650000000000E+0003	 2.83964316683432E-0001	
 2.73850000000000E+0003	 2.84504653139442E-0001	
 2.74050000000000E+0003	 2.85028489595452E-0001	
 2.74250000000000E+0003	 2.85537826051461E-0001	
 2.74450000000000E+0003	 2.86036662507471E-0001	
 2.74650000000000E+0003	 2.86531498963481E-0001	
 2.74850000000000E+0003	 2.87021335419491E-0001	
 2.75050000000000E+0003	 2.87512171875501E-0001	
 2.75250000000000E+0003	 2.88008008331511E-0001	
 2.75450000000000E+0003	 2.88518844787521E-0001	
 2.75650000000000E+0003	 2.89041681243531E-0001	
 2.75850000000000E+0003	 2.89579517699541E-0001	
 2.76050000000000E+0003	 2.90133354155551E-0001	
 2.76250000000000E+0003	 2.90707190611561E-0001	
 2.76450000000000E+0003	 2.91292527067571E-0001	
 2.76650000000000E+0003	 2.91888863523580E-0001	
 2.76850000000000E+0003	 2.92493699979590E-0001	
 2.77050000000000E+0003	 2.93116536435600E-0001	
 2.77250000000000E+0003	 2.93755372891610E-0001	
 2.77450000000000E+0003	 2.94412209347620E-0001	
 2.77650000000000E+0003	 2.95075545803630E-0001	
 2.77850000000000E+0003	 2.95746382259640E-0001	
 2.78050000000000E+0003	 2.96430718715650E-0001	
 2.78250000000000E+0003	 2.97137055171660E-0001	
 2.78450000000000E+0003	 2.97857891627670E-0001	
 2.78650000000000E+0003	 2.98595728083680E-0001	
 2.78850000000000E+0003	 2.99352564539689E-0001	
 2.79050000000000E+0003	 3.00128900995699E-0001	
 2.79250000000000E+0003	 3.00919737451709E-0001	
 2.79450000000000E+0003	 3.01736573907719E-0001	
 2.79650000000000E+0003	 3.02570910363729E-0001	
 2.79850000000000E+0003	 3.03430246819739E-0001	
 2.80050000000000E+0003	 3.04303083275749E-0001	
 2.80250000000000E+0003	 3.05196419731759E-0001	
 2.80450000000000E+0003	 3.06114756187769E-0001	
 2.80650000000000E+0003	 3.07058092643779E-0001	
 2.80850000000000E+0003	 3.08029429099789E-0001	
 2.81050000000000E+0003	 3.09035265555799E-0001	
 2.81250000000000E+0003	 3.10055602011808E-0001	
 2.81450000000000E+0003	 3.11100938467818E-0001	
 2.81650000000000E+0003	 3.12178774923828E-0001	
 2.81850000000000E+0003	 3.13289111379838E-0001	
 2.82050000000000E+0003	 3.14428447835848E-0001	
 2.82250000000000E+0003	 3.15611784291858E-0001	
 2.82450000000000E+0003	 3.16835620747868E-0001	
 2.82650000000000E+0003	 3.18111957203878E-0001	
 2.82850000000000E+0003	 3.19449293659888E-0001	
 2.83050000000000E+0003	 3.20862630115898E-0001	
 2.83250000000000E+0003	 3.22366966571908E-0001	
 2.83450000000000E+0003	 3.23999803027917E-0001	
 2.83650000000000E+0003	 3.25806639483927E-0001	
 2.83850000000000E+0003	 3.27861475939937E-0001	
 2.84050000000000E+0003	 3.30257312395947E-0001	
 2.84250000000000E+0003	 3.33166648851957E-0001	
 2.84450000000000E+0003	 3.36740485307967E-0001	
 2.84650000000000E+0003	 3.40991321763977E-0001	
 2.84850000000000E+0003	 3.45658158219987E-0001	
 2.85050000000000E+0003	 3.50183494675997E-0001	
 2.85250000000000E+0003	 3.53874331132007E-0001	
 2.85450000000000E+0003	 3.56313167588017E-0001	
 2.85650000000000E+0003	 3.57593504044027E-0001	
 2.85850000000000E+0003	 3.58193840500036E-0001	
 2.86050000000000E+0003	 3.58653176956046E-0001	
 2.86250000000000E+0003	 3.59419013412056E-0001	
 2.86450000000000E+0003	 3.60730349868066E-0001	
 2.86650000000000E+0003	 3.62605686324076E-0001	
 2.86850000000000E+0003	 3.64867022780086E-0001	
 2.87050000000000E+0003	 3.67233359236096E-0001	
 2.87250000000000E+0003	 3.69328195692106E-0001	
 2.87450000000000E+0003	 3.70821032148116E-0001	
 2.87650000000000E+0003	 3.71668368604126E-0001	
 2.87850000000000E+0003	 3.72095705060136E-0001	
 2.88050000000000E+0003	 3.72353541516145E-0001	
 2.88250000000000E+0003	 3.72664377972155E-0001	
 2.88450000000000E+0003	 3.73168214428165E-0001	
 2.88650000000000E+0003	 3.73933550884175E-0001	
 2.88850000000000E+0003	 3.74953387340185E-0001	
 2.89050000000000E+0003	 3.76208223796195E-0001	
 2.89250000000000E+0003	 3.77650560252205E-0001	
 2.89450000000000E+0003	 3.79239896708215E-0001	
 2.89650000000000E+0003	 3.80918233164225E-0001	
 2.89850000000000E+0003	 3.82683569620235E-0001	
 2.90050000000000E+0003	 3.84563906076245E-0001	
 2.90250000000000E+0003	 3.86603242532255E-0001	
 2.90450000000000E+0003	 3.88843578988264E-0001	
 2.90650000000000E+0003	 3.91372915444274E-0001	
 2.90850000000000E+0003	 3.94293251900284E-0001	
 2.91050000000000E+0003	 3.97692088356294E-0001	
 2.91250000000000E+0003	 4.01573424812304E-0001	
 2.91450000000000E+0003	 4.05846261268314E-0001	
 2.91650000000000E+0003	 4.10349097724324E-0001	
 2.91850000000000E+0003	 4.14831934180334E-0001	
 2.92050000000000E+0003	 4.18955270636344E-0001	
 2.92250000000000E+0003	 4.22426607092354E-0001	
 2.92450000000000E+0003	 4.25035443548364E-0001	
 2.92650000000000E+0003	 4.26769780004373E-0001	
 2.92850000000000E+0003	 4.27715116460383E-0001	
 2.93050000000000E+0003	 4.27922452916393E-0001	
 2.93250000000000E+0003	 4.27481789372403E-0001	
 2.93450000000000E+0003	 4.26523125828413E-0001	
 2.93650000000000E+0003	 4.25058962284423E-0001	
 2.93850000000000E+0003	 4.23129298740433E-0001	
 2.94050000000000E+0003	 4.20873635196443E-0001	
 2.94250000000000E+0003	 4.18514471652453E-0001	
 2.94450000000000E+0003	 4.16222808108463E-0001	
 2.94650000000000E+0003	 4.14209144564473E-0001	
 2.94850000000000E+0003	 4.12695481020483E-0001	
 2.95050000000000E+0003	 4.11880317476492E-0001	
 2.95250000000000E+0003	 4.11691653932502E-0001	
 2.95450000000000E+0003	 4.11869990388512E-0001	
 2.95650000000000E+0003	 4.12152326844522E-0001	
 2.95850000000000E+0003	 4.12238163300532E-0001	
 2.96050000000000E+0003	 4.11848999756542E-0001	
 2.96250000000000E+0003	 4.10825336212552E-0001	
 2.96450000000000E+0003	 4.09121672668562E-0001	
 2.96650000000000E+0003	 4.06889009124572E-0001	
 2.96850000000000E+0003	 4.04297345580582E-0001	
 2.97050000000000E+0003	 4.01283182036592E-0001	
 2.97250000000000E+0003	 3.97839018492602E-0001	
 2.97450000000000E+0003	 3.94385354948611E-0001	
 2.97650000000000E+0003	 3.91256691404621E-0001	
 2.97850000000000E+0003	 3.88489027860631E-0001	
 2.98050000000000E+0003	 3.85952364316641E-0001	
 2.98250000000000E+0003	 3.83576700772651E-0001	
 2.98450000000000E+0003	 3.81391037228661E-0001	
 2.98650000000000E+0003	 3.79440873684671E-0001	
 2.98850000000000E+0003	 3.77737210140681E-0001	
 2.99050000000000E+0003	 3.76317046596691E-0001	
 2.99250000000000E+0003	 3.75141383052701E-0001	
 2.99450000000000E+0003	 3.74229219508711E-0001	
 2.99650000000000E+0003	 3.73662055964720E-0001	
 2.99850000000000E+0003	 3.73396892420730E-0001	
 3.00050000000000E+0003	 3.73372728876740E-0001	
 3.00250000000000E+0003	 3.73557565332750E-0001	
 3.00450000000000E+0003	 3.73846901788760E-0001	
 3.00650000000000E+0003	 3.74175238244770E-0001	
 3.00850000000000E+0003	 3.74560574700780E-0001	
 3.01050000000000E+0003	 3.75032911156790E-0001	
 3.01250000000000E+0003	 3.75559247612800E-0001	
 3.01450000000000E+0003	 3.76144584068810E-0001	
 3.01650000000000E+0003	 3.76818420524820E-0001	
 3.01850000000000E+0003	 3.77618256980830E-0001	
 3.02050000000000E+0003	 3.78599593436839E-0001	
 3.02250000000000E+0003	 3.79800429892849E-0001	
 3.02450000000000E+0003	 3.81156766348859E-0001	
 3.02650000000000E+0003	 3.82610602804869E-0001	
 3.02850000000000E+0003	 3.84111939260879E-0001	
 3.03050000000000E+0003	 3.85632275716889E-0001	
 3.03250000000000E+0003	 3.87168112172899E-0001	
 3.03450000000000E+0003	 3.88706948628909E-0001	
 3.03650000000000E+0003	 3.90252285084919E-0001	
 3.03850000000000E+0003	 3.91866621540929E-0001	
 3.04050000000000E+0003	 3.93571457996939E-0001	
 3.04250000000000E+0003	 3.95311794452948E-0001	
 3.04450000000000E+0003	 3.97049130908958E-0001	
 3.04650000000000E+0003	 3.98815467364968E-0001	
 3.04850000000000E+0003	 4.00637303820978E-0001	
 3.05050000000000E+0003	 4.02493640276988E-0001	
 3.05250000000000E+0003	 4.04331976732998E-0001	
 3.05450000000000E+0003	 4.06158313189008E-0001	
 3.05650000000000E+0003	 4.07956649645018E-0001	
 3.05850000000000E+0003	 4.09690486101028E-0001	
 3.06050000000000E+0003	 4.11338822557038E-0001	
 3.06250000000000E+0003	 4.12902659013048E-0001	
 3.06450000000000E+0003	 4.14373495469058E-0001	
 3.06650000000000E+0003	 4.15747831925067E-0001	
 3.06850000000000E+0003	 4.16999168381077E-0001	
 3.07050000000000E+0003	 4.18164004837087E-0001	
 3.07250000000000E+0003	 4.19286841293097E-0001	
 3.07450000000000E+0003	 4.20389177749107E-0001	
 3.07650000000000E+0003	 4.21442514205117E-0001	
 3.07850000000000E+0003	 4.22424350661127E-0001	
 3.08050000000000E+0003	 4.23335687117137E-0001	
 3.08250000000000E+0003	 4.24219523573147E-0001	
 3.08450000000000E+0003	 4.25076360029157E-0001	
 3.08650000000000E+0003	 4.25895196485167E-0001	
 3.08850000000000E+0003	 4.26677532941176E-0001	
 3.09050000000000E+0003	 4.27424369397186E-0001	
 3.09250000000000E+0003	 4.28136205853196E-0001	
 3.09450000000000E+0003	 4.28857542309206E-0001	
 3.09650000000000E+0003	 4.29605378765216E-0001	
 3.09850000000000E+0003	 4.30373215221226E-0001	
 3.10050000000000E+0003	 4.31157551677236E-0001	
 3.10250000000000E+0003	 4.31989388133246E-0001	
 3.10450000000000E+0003	 4.32874224589256E-0001	
 3.10650000000000E+0003	 4.33831061045266E-0001	
 3.10850000000000E+0003	 4.34832897501276E-0001	
 3.11050000000000E+0003	 4.35880733957286E-0001	
 3.11250000000000E+0003	 4.37023070413295E-0001	
 3.11450000000000E+0003	 4.38270906869305E-0001	
 3.11650000000000E+0003	 4.39576243325315E-0001	
 3.11850000000000E+0003	 4.40925579781325E-0001	
 3.12050000000000E+0003	 4.42290416237335E-0001	
 3.12250000000000E+0003	 4.43700752693345E-0001	
 3.12450000000000E+0003	 4.45219089149355E-0001	
 3.12650000000000E+0003	 4.46846425605365E-0001	
 3.12850000000000E+0003	 4.48541262061375E-0001	
 3.13050000000000E+0003	 4.50269598517385E-0001	
 3.13250000000000E+0003	 4.52049934973395E-0001	
 3.13450000000000E+0003	 4.53919271429404E-0001	
 3.13650000000000E+0003	 4.55858107885414E-0001	
 3.13850000000000E+0003	 4.57831944341424E-0001	
 3.14050000000000E+0003	 4.59781280797434E-0001	
 3.14250000000000E+0003	 4.61771617253444E-0001	
 3.14450000000000E+0003	 4.63843453709454E-0001	
 3.14650000000000E+0003	 4.65982790165464E-0001	
 3.14850000000000E+0003	 4.68203126621474E-0001	
 3.15050000000000E+0003	 4.70530963077484E-0001	
 3.15250000000000E+0003	 4.72823299533494E-0001	
 3.15450000000000E+0003	 4.75024635989504E-0001	
 3.15650000000000E+0003	 4.77274472445514E-0001	
 3.15850000000000E+0003	 4.79623808901523E-0001	
 3.16050000000000E+0003	 4.82020145357533E-0001	
 3.16250000000000E+0003	 4.84441481813543E-0001	
 3.16450000000000E+0003	 4.86889318269553E-0001	
 3.16650000000000E+0003	 4.89359154725563E-0001	
 3.16850000000000E+0003	 4.91832991181573E-0001	
 3.17050000000000E+0003	 4.94317327637583E-0001	
 3.17250000000000E+0003	 4.96793664093593E-0001	
 3.17450000000000E+0003	 4.99262000549603E-0001	
 3.17650000000000E+0003	 5.01722337005613E-0001	
 3.17850000000000E+0003	 5.04187673461623E-0001	
 3.18050000000000E+0003	 5.06624009917632E-0001	
 3.18250000000000E+0003	 5.09018346373642E-0001	
 3.18450000000000E+0003	 5.11397182829652E-0001	
 3.18650000000000E+0003	 5.13769519285662E-0001	
 3.18850000000000E+0003	 5.16091355741672E-0001	
 3.19050000000000E+0003	 5.18359192197682E-0001	
 3.19250000000000E+0003	 5.20574528653692E-0001	
 3.19450000000000E+0003	 5.22745865109702E-0001	
 3.19650000000000E+0003	 5.24877201565712E-0001	
 3.19850000000000E+0003	 5.26977538021722E-0001	
 3.20050000000000E+0003	 5.29028374477732E-0001	
 3.20250000000000E+0003	 5.31036210933742E-0001	
 3.20450000000000E+0003	 5.33011047389751E-0001	
 3.20650000000000E+0003	 5.34950883845761E-0001	
 3.20850000000000E+0003	 5.36841220301771E-0001	
 3.21050000000000E+0003	 5.38724056757781E-0001	
 3.21250000000000E+0003	 5.40592893213791E-0001	
 3.21450000000000E+0003	 5.42449229669801E-0001	
 3.21650000000000E+0003	 5.44292566125811E-0001	
 3.21850000000000E+0003	 5.46142902581821E-0001	
 3.22050000000000E+0003	 5.48001239037831E-0001	
 3.22250000000000E+0003	 5.49872075493841E-0001	
 3.22450000000000E+0003	 5.51757411949851E-0001	
 3.22650000000000E+0003	 5.53677748405860E-0001	
 3.22850000000000E+0003	 5.55652584861870E-0001	
 3.23050000000000E+0003	 5.57738921317880E-0001	
 3.23250000000000E+0003	 5.59862757773890E-0001	
 3.23450000000000E+0003	 5.61878594229900E-0001	
 3.23650000000000E+0003	 5.63891930685910E-0001	
 3.23850000000000E+0003	 5.66040767141920E-0001	
 3.24050000000000E+0003	 5.68276603597930E-0001	
 3.24250000000000E+0003	 5.70586440053940E-0001	
 3.24450000000000E+0003	 5.72997276509950E-0001	
 3.24650000000000E+0003	 5.75452612965960E-0001	
 3.24850000000000E+0003	 5.77866949421970E-0001	
 3.25050000000000E+0003	 5.80338785877979E-0001	
 3.25250000000000E+0003	 5.82912122333989E-0001	
 3.25450000000000E+0003	 5.85560958789999E-0001	
 3.25650000000000E+0003	 5.88199295246009E-0001	
 3.25850000000000E+0003	 5.90831131702019E-0001	
 3.26050000000000E+0003	 5.93491468158029E-0001	
 3.26250000000000E+0003	 5.96170304614039E-0001	
 3.26450000000000E+0003	 5.98836141070049E-0001	
 3.26650000000000E+0003	 6.01474477526059E-0001	
 3.26850000000000E+0003	 6.04067813982069E-0001	
 3.27050000000000E+0003	 6.06565150438079E-0001	
 3.27250000000000E+0003	 6.08906486894088E-0001	
 3.27450000000000E+0003	 6.11138323350098E-0001	
 3.27650000000000E+0003	 6.13276159806108E-0001	
 3.27850000000000E+0003	 6.15302996262118E-0001	
 3.28050000000000E+0003	 6.17215332718128E-0001	
 3.28250000000000E+0003	 6.19020169174138E-0001	
 3.28450000000000E+0003	 6.20692005630148E-0001	
 3.28650000000000E+0003	 6.22233342086158E-0001	
 3.28850000000000E+0003	 6.23671178542168E-0001	
 3.29050000000000E+0003	 6.24989014998178E-0001	
 3.29250000000000E+0003	 6.26145851454188E-0001	
 3.29450000000000E+0003	 6.27172187910198E-0001	
 3.29650000000000E+0003	 6.28083024366207E-0001	
 3.29850000000000E+0003	 6.28904860822217E-0001	
 3.30050000000000E+0003	 6.29651197278227E-0001	
 3.30250000000000E+0003	 6.30354533734237E-0001	
 3.30450000000000E+0003	 6.30988370190247E-0001	
 3.30650000000000E+0003	 6.31496206646257E-0001	
 3.30850000000000E+0003	 6.31897043102267E-0001	
 3.31050000000000E+0003	 6.32260379558277E-0001	
 3.31250000000000E+0003	 6.32610716014287E-0001	
 3.31450000000000E+0003	 6.32950552470297E-0001	
 3.31650000000000E+0003	 6.33272388926307E-0001	
 3.31850000000000E+0003	 6.33599725382316E-0001	
 3.32050000000000E+0003	 6.33940061838326E-0001	
 3.32250000000000E+0003	 6.34292398294336E-0001	
 3.32450000000000E+0003	 6.34639234750346E-0001	
 3.32650000000000E+0003	 6.34965571206356E-0001	
 3.32850000000000E+0003	 6.35303407662366E-0001	
 3.33050000000000E+0003	 6.35667744118376E-0001	
 3.33250000000000E+0003	 6.36037580574386E-0001	
 3.33450000000000E+0003	 6.36438917030396E-0001	
 3.33650000000000E+0003	 6.36887253486406E-0001	
 3.33850000000000E+0003	 6.37328589942416E-0001	
 3.34050000000000E+0003	 6.37738426398426E-0001	
 3.34250000000000E+0003	 6.38167262854435E-0001	
 3.34450000000000E+0003	 6.38615099310445E-0001	
 3.34650000000000E+0003	 6.39094435766455E-0001	
 3.34850000000000E+0003	 6.39633272222465E-0001	
 3.35050000000000E+0003	 6.40151608678475E-0001	
 3.35250000000000E+0003	 6.40581445134485E-0001	
 3.35450000000000E+0003	 6.41011281590495E-0001	
 3.35650000000000E+0003	 6.41503618046505E-0001	
 3.35850000000000E+0003	 6.42031454502515E-0001	
 3.36050000000000E+0003	 6.42549790958525E-0001	
 3.36250000000000E+0003	 6.43071127414535E-0001	
 3.36450000000000E+0003	 6.43643463870545E-0001	
 3.36650000000000E+0003	 6.44267800326554E-0001	
 3.36850000000000E+0003	 6.44821636782564E-0001	
 3.37050000000000E+0003	 6.45224973238574E-0001	
 3.37250000000000E+0003	 6.45599309694584E-0001	
 3.37450000000000E+0003	 6.46063646150594E-0001	
 3.37650000000000E+0003	 6.46556482606604E-0001	
 3.37850000000000E+0003	 6.47023319062614E-0001	
 3.38050000000000E+0003	 6.47467155518624E-0001	
 3.38250000000000E+0003	 6.47911991974634E-0001	
 3.38450000000000E+0003	 6.48362328430644E-0001	
 3.38650000000000E+0003	 6.48829664886654E-0001	
 3.38850000000000E+0003	 6.49366501342663E-0001	
 3.39050000000000E+0003	 6.49909837798673E-0001	
 3.39250000000000E+0003	 6.50289674254683E-0001	
 3.39450000000000E+0003	 6.50573010710693E-0001	
 3.39650000000000E+0003	 6.50973347166703E-0001	
 3.39850000000000E+0003	 6.51546183622713E-0001	
 3.40050000000000E+0003	 6.51987020078723E-0001	
 3.40250000000000E+0003	 6.52134356534733E-0001	
 3.40450000000000E+0003	 6.52256692990743E-0001	
 3.40650000000000E+0003	 6.52511029446753E-0001	
 3.40850000000000E+0003	 6.52776865902763E-0001	
 3.41050000000000E+0003	 6.52975702358773E-0001	
 3.41250000000000E+0003	 6.53090038814782E-0001	
 3.41450000000000E+0003	 6.53083375270792E-0001	
 3.41650000000000E+0003	 6.53012211726802E-0001	
 3.41850000000000E+0003	 6.52900048182812E-0001	
 3.42050000000000E+0003	 6.52726884638822E-0001	
 3.42250000000000E+0003	 6.52492221094832E-0001	
 3.42450000000000E+0003	 6.52234557550842E-0001	
 3.42650000000000E+0003	 6.51970894006852E-0001	
 3.42850000000000E+0003	 6.51655730462862E-0001	
 3.43050000000000E+0003	 6.51265566918872E-0001	
 3.43250000000000E+0003	 6.50862903374882E-0001	
 3.43450000000000E+0003	 6.50420739830891E-0001	
 3.43650000000000E+0003	 6.49795076286901E-0001	
 3.43850000000000E+0003	 6.49007912742911E-0001	
 3.44050000000000E+0003	 6.48196749198921E-0001	
 3.44250000000000E+0003	 6.47423585654931E-0001	
 3.44450000000000E+0003	 6.46640922110941E-0001	
 3.44650000000000E+0003	 6.45802258566951E-0001	
 3.44850000000000E+0003	 6.44902095022961E-0001	
 3.45050000000000E+0003	 6.43937431478971E-0001	
 3.45250000000000E+0003	 6.42964767934981E-0001	
 3.45450000000000E+0003	 6.41958604390991E-0001	
 3.45650000000000E+0003	 6.40924440847001E-0001	
 3.45850000000000E+0003	 6.39880777303010E-0001	
 3.46050000000000E+0003	 6.38717113759020E-0001	
 3.46250000000000E+0003	 6.37472950215030E-0001	
 3.46450000000000E+0003	 6.36358286671040E-0001	
 3.46650000000000E+0003	 6.35324123127050E-0001	
 3.46850000000000E+0003	 6.34010959583060E-0001	
 3.47050000000000E+0003	 6.32337296039070E-0001	
 3.47250000000000E+0003	 6.30644632495080E-0001	
 3.47450000000000E+0003	 6.29093468951090E-0001	
 3.47650000000000E+0003	 6.27661305407100E-0001	
 3.47850000000000E+0003	 6.26228141863110E-0001	
 3.48050000000000E+0003	 6.24570478319119E-0001	
 3.48250000000000E+0003	 6.22799314775129E-0001	
 3.48450000000000E+0003	 6.21118651231139E-0001	
 3.48650000000000E+0003	 6.19439987687149E-0001	
 3.48850000000000E+0003	 6.17675324143159E-0001	
 3.49050000000000E+0003	 6.15885660599169E-0001	
 3.49250000000000E+0003	 6.14126497055179E-0001	
 3.49450000000000E+0003	 6.12362833511189E-0001	
 3.49650000000000E+0003	 6.10532669967199E-0001	
 3.49850000000000E+0003	 6.08636506423209E-0001	
 3.50050000000000E+0003	 6.06761342879219E-0001	
 3.50250000000000E+0003	 6.04774179335229E-0001	
 3.50450000000000E+0003	 6.02609515791238E-0001	
 3.50650000000000E+0003	 6.00455852247248E-0001	
 3.50850000000000E+0003	 5.98365688703258E-0001	
 3.51050000000000E+0003	 5.96349025159268E-0001	
 3.51250000000000E+0003	 5.94331861615278E-0001	
 3.51450000000000E+0003	 5.92174698071288E-0001	
 3.51650000000000E+0003	 5.89891534527298E-0001	
 3.51850000000000E+0003	 5.87629870983308E-0001	
 3.52050000000000E+0003	 5.85468207439318E-0001	
 3.52250000000000E+0003	 5.83304043895328E-0001	
 3.52450000000000E+0003	 5.80889380351338E-0001	
 3.52650000000000E+0003	 5.78332216807347E-0001	
 3.52850000000000E+0003	 5.75899053263357E-0001	
 3.53050000000000E+0003	 5.73508889719367E-0001	
 3.53250000000000E+0003	 5.71155226175377E-0001	
 3.53450000000000E+0003	 5.68830062631387E-0001	
 3.53650000000000E+0003	 5.66323899087397E-0001	
 3.53850000000000E+0003	 5.63670735543407E-0001	
 3.54050000000000E+0003	 5.61161571999417E-0001	
 3.54250000000000E+0003	 5.58752408455427E-0001	
 3.54450000000000E+0003	 5.56096744911437E-0001	
 3.54650000000000E+0003	 5.53052581367447E-0001	
 3.54850000000000E+0003	 5.50030417823457E-0001	
 3.55050000000000E+0003	 5.47194754279466E-0001	
 3.55250000000000E+0003	 5.44320090735476E-0001	
 3.55450000000000E+0003	 5.41371427191486E-0001	
 3.55650000000000E+0003	 5.38462763647496E-0001	
 3.55850000000000E+0003	 5.35567600103506E-0001	
 3.56050000000000E+0003	 5.32558436559516E-0001	
 3.56250000000000E+0003	 5.29412773015526E-0001	
 3.56450000000000E+0003	 5.26170109471536E-0001	
 3.56650000000000E+0003	 5.22903445927546E-0001	
 3.56850000000000E+0003	 5.19676782383556E-0001	
 3.57050000000000E+0003	 5.16465618839566E-0001	
 3.57250000000000E+0003	 5.13270455295575E-0001	
 3.57450000000000E+0003	 5.09986291751585E-0001	
 3.57650000000000E+0003	 5.06615628207595E-0001	
 3.57850000000000E+0003	 5.03271964663605E-0001	
 3.58050000000000E+0003	 4.99975801119615E-0001	
 3.58250000000000E+0003	 4.96694637575625E-0001	
 3.58450000000000E+0003	 4.93238974031635E-0001	
 3.58650000000000E+0003	 4.89354310487645E-0001	
 3.58850000000000E+0003	 4.85363146943655E-0001	
 3.59050000000000E+0003	 4.81660983399665E-0001	
 3.59250000000000E+0003	 4.78125319855675E-0001	
 3.59450000000000E+0003	 4.74439156311685E-0001	
 3.59650000000000E+0003	 4.70681492767694E-0001	
 3.59850000000000E+0003	 4.66974329223704E-0001	
 3.60050000000000E+0003	 4.63191665679714E-0001	
 3.60250000000000E+0003	 4.59321002135724E-0001	
 3.60450000000000E+0003	 4.55419838591734E-0001	
 3.60650000000000E+0003	 4.51418675047744E-0001	
 3.60850000000000E+0003	 4.47288511503754E-0001	
 3.61050000000000E+0003	 4.43114847959764E-0001	
 3.61250000000000E+0003	 4.39073184415774E-0001	
 3.61450000000000E+0003	 4.35196520871784E-0001	
 3.61650000000000E+0003	 4.31133357327794E-0001	
 3.61850000000000E+0003	 4.26985193783803E-0001	
 3.62050000000000E+0003	 4.22962530239813E-0001	
 3.62250000000000E+0003	 4.19021366695823E-0001	
 3.62450000000000E+0003	 4.15190703151833E-0001	
 3.62650000000000E+0003	 4.11136039607843E-0001	
 3.62850000000000E+0003	 4.06828876063853E-0001	
 3.63050000000000E+0003	 4.02458212519863E-0001	
 3.63250000000000E+0003	 3.98426548975873E-0001	
 3.63450000000000E+0003	 3.94707885431883E-0001	
 3.63650000000000E+0003	 3.90703721887893E-0001	
 3.63850000000000E+0003	 3.86669558343903E-0001	
 3.64050000000000E+0003	 3.82631894799913E-0001	
 3.64250000000000E+0003	 3.78616731255922E-0001	
 3.64450000000000E+0003	 3.74630567711932E-0001	
 3.64650000000000E+0003	 3.70630404167942E-0001	
 3.64850000000000E+0003	 3.66716740623952E-0001	
 3.65050000000000E+0003	 3.62674077079962E-0001	
 3.65250000000000E+0003	 3.58862913535972E-0001	
 3.65450000000000E+0003	 3.55258749991982E-0001	
 3.65650000000000E+0003	 3.51879586447992E-0001	
 3.65850000000000E+0003	 3.48409922904002E-0001	
 3.66050000000000E+0003	 3.44938759360012E-0001	
 3.66250000000000E+0003	 3.41521595816022E-0001	
 3.66450000000000E+0003	 3.38142432272031E-0001	
 3.66650000000000E+0003	 3.34913268728041E-0001	
 3.66850000000000E+0003	 3.31611105184051E-0001	
 3.67050000000000E+0003	 3.28588941640061E-0001	
 3.67250000000000E+0003	 3.25669278096071E-0001	
 3.67450000000000E+0003	 3.22812114552081E-0001	
 3.67650000000000E+0003	 3.20368951008091E-0001	
 3.67850000000000E+0003	 3.17681287464101E-0001	
 3.68050000000000E+0003	 3.15442123920111E-0001	
 3.68250000000000E+0003	 3.13169460376121E-0001	
 3.68450000000000E+0003	 3.10954796832131E-0001	
 3.68650000000000E+0003	 3.08661133288141E-0001	
 3.68850000000000E+0003	 3.06524969744150E-0001	
 3.69050000000000E+0003	 3.04514806200160E-0001	
 3.69250000000000E+0003	 3.02606142656170E-0001	
 3.69450000000000E+0003	 3.00806479112180E-0001	
 3.69650000000000E+0003	 2.99065315568190E-0001	
 3.69850000000000E+0003	 2.97369152024200E-0001	
 3.70050000000000E+0003	 2.95673488480210E-0001	
 3.70250000000000E+0003	 2.94203824936220E-0001	
 3.70450000000000E+0003	 2.92718161392230E-0001	
 3.70650000000000E+0003	 2.91298497848240E-0001	
 3.70850000000000E+0003	 2.89983334304250E-0001	
 3.71050000000000E+0003	 2.88646170760259E-0001	
 3.71250000000000E+0003	 2.87291507216269E-0001	
 3.71450000000000E+0003	 2.86001343672279E-0001	
 3.71650000000000E+0003	 2.84856680128289E-0001	
 3.71850000000000E+0003	 2.83859016584299E-0001	
 3.72050000000000E+0003	 2.82800853040309E-0001	
 3.72250000000000E+0003	 2.81809189496319E-0001	
 3.72450000000000E+0003	 2.80772025952329E-0001	
 3.72650000000000E+0003	 2.79732862408339E-0001	
 3.72850000000000E+0003	 2.78735698864349E-0001	
 3.73050000000000E+0003	 2.77539535320359E-0001	
 3.73250000000000E+0003	 2.76684871776369E-0001	
 3.73450000000000E+0003	 2.75868708232378E-0001	
 3.73650000000000E+0003	 2.75127544688388E-0001	
 3.73850000000000E+0003	 2.74194881144398E-0001	
 3.74050000000000E+0003	 2.73373217600408E-0001	
 3.74250000000000E+0003	 2.72183054056418E-0001	
 3.74450000000000E+0003	 2.71257390512428E-0001	
 3.74650000000000E+0003	 2.70363226968438E-0001	
 3.74850000000000E+0003	 2.69368063424448E-0001	
 3.75050000000000E+0003	 2.68808399880458E-0001	
 3.75250000000000E+0003	 2.68088736336468E-0001	
 3.75450000000000E+0003	 2.67529072792478E-0001	
 3.75650000000000E+0003	 2.67002909248487E-0001	
 3.75850000000000E+0003	 2.66467745704497E-0001	
 3.76050000000000E+0003	 2.65851582160507E-0001	
 3.76250000000000E+0003	 2.65138418616517E-0001	
 3.76450000000000E+0003	 2.64405755072527E-0001	
 3.76650000000000E+0003	 2.63881091528537E-0001	
 3.76850000000000E+0003	 2.63142927984547E-0001	
 3.77050000000000E+0003	 2.62588764440557E-0001	
 3.77250000000000E+0003	 2.61943600896567E-0001	
 3.77450000000000E+0003	 2.61334437352577E-0001	
 3.77650000000000E+0003	 2.60844273808587E-0001	
 3.77850000000000E+0003	 2.60276610264597E-0001	
 3.78050000000000E+0003	 2.59741946720606E-0001	
 3.78250000000000E+0003	 2.59007283176616E-0001	
 3.78450000000000E+0003	 2.58421619632626E-0001	
 3.78650000000000E+0003	 2.57938956088636E-0001	
 3.78850000000000E+0003	 2.57396792544646E-0001	
 3.79050000000000E+0003	 2.56865629000656E-0001	
 3.79250000000000E+0003	 2.56346465456666E-0001	
 3.79450000000000E+0003	 2.55720801912676E-0001	
 3.79650000000000E+0003	 2.55205138368686E-0001	
 3.79850000000000E+0003	 2.54600474824696E-0001	
 3.80050000000000E+0003	 2.53816311280706E-0001	
 3.80250000000000E+0003	 2.53617147736716E-0001	
 3.80450000000000E+0003	 2.53014984192725E-0001	
 3.80650000000000E+0003	 2.52560820648735E-0001	
 3.80850000000000E+0003	 2.52281657104745E-0001	
 3.81050000000000E+0003	 2.51700493560755E-0001	
 3.81250000000000E+0003	 2.51323830016765E-0001	
 3.81450000000000E+0003	 2.50638166472775E-0001	
 3.81650000000000E+0003	 2.50346502928785E-0001	
 3.81850000000000E+0003	 2.49890839384795E-0001	
 3.82050000000000E+0003	 2.49413675840805E-0001	
 3.82250000000000E+0003	 2.49227012296815E-0001	
 3.82450000000000E+0003	 2.48581848752825E-0001	
 3.82650000000000E+0003	 2.48296685208834E-0001	
 3.82850000000000E+0003	 2.48019021664844E-0001	
 3.83050000000000E+0003	 2.47529858120854E-0001	
 3.83250000000000E+0003	 2.47219194576864E-0001	
 3.83450000000000E+0003	 2.46768031032874E-0001	
 3.83650000000000E+0003	 2.46175367488884E-0001	
 3.83850000000000E+0003	 2.45761203944894E-0001	
 3.84050000000000E+0003	 2.45438540400904E-0001	
 3.84250000000000E+0003	 2.45156376856914E-0001	
 3.84450000000000E+0003	 2.44948713312924E-0001	
 3.84650000000000E+0003	 2.44559549768934E-0001	
 3.84850000000000E+0003	 2.44076886224944E-0001	
 3.85050000000000E+0003	 2.43441722680953E-0001	
 3.85250000000000E+0003	 2.42811059136963E-0001	
 3.85450000000000E+0003	 2.42471895592973E-0001	
 3.85650000000000E+0003	 2.42118232048983E-0001	
 3.85850000000000E+0003	 2.42231568504993E-0001	
 3.86050000000000E+0003	 2.42153404961003E-0001	
 3.86250000000000E+0003	 2.41841741417013E-0001	
 3.86450000000000E+0003	 2.41495077873023E-0001	
 3.86650000000000E+0003	 2.41256414329033E-0001	
 3.86850000000000E+0003	 2.40674250785043E-0001	
 3.87050000000000E+0003	 2.40548087241053E-0001	
 3.87250000000000E+0003	 2.40182923697062E-0001	
 3.87450000000000E+0003	 2.39997760153072E-0001	
 3.87650000000000E+0003	 2.39915596609082E-0001	
 3.87850000000000E+0003	 2.39487933065092E-0001	
 3.88050000000000E+0003	 2.39303269521102E-0001	
 3.88250000000000E+0003	 2.39099105977112E-0001	
 3.88450000000000E+0003	 2.38657442433122E-0001	
 3.88650000000000E+0003	 2.38503778889132E-0001	
 3.88850000000000E+0003	 2.38136615345142E-0001	
 3.89050000000000E+0003	 2.37854951801152E-0001	
 3.89250000000000E+0003	 2.37755288257162E-0001	
 3.89450000000000E+0003	 2.37458624713172E-0001	
 3.89650000000000E+0003	 2.37252961169181E-0001	
 3.89850000000000E+0003	 2.37025797625191E-0001	
 3.90050000000000E+0003	 2.36777634081201E-0001	
 3.90250000000000E+0003	 2.36322470537211E-0001	
 3.90450000000000E+0003	 2.36076306993221E-0001	
 3.90650000000000E+0003	 2.35972143449231E-0001	
 3.90850000000000E+0003	 2.35879979905241E-0001	
 3.91050000000000E+0003	 2.35783316361251E-0001	
 3.91250000000000E+0003	 2.35646152817261E-0001	
 3.91450000000000E+0003	 2.35424989273271E-0001	
 3.91650000000000E+0003	 2.35181825729281E-0001	
 3.91850000000000E+0003	 2.34912662185290E-0001	
 3.92050000000000E+0003	 2.34679998641300E-0001	
 3.92250000000000E+0003	 2.34490835097310E-0001	
 3.92450000000000E+0003	 2.34310171553320E-0001	
 3.92650000000000E+0003	 2.34161508009330E-0001	
 3.92850000000000E+0003	 2.33962844465340E-0001	
 3.93050000000000E+0003	 2.33810180921350E-0001	
 3.93250000000000E+0003	 2.33605517377360E-0001	
 3.93450000000000E+0003	 2.33399353833370E-0001	
 3.93650000000000E+0003	 2.33199190289380E-0001	
 3.93850000000000E+0003	 2.33061526745390E-0001	
 3.94050000000000E+0003	 2.32835863201400E-0001	
 3.94250000000000E+0003	 2.32612699657409E-0001	
 3.94450000000000E+0003	 2.32438036113419E-0001	
 3.94650000000000E+0003	 2.32206372569429E-0001	
 3.94850000000000E+0003	 2.32015209025439E-0001	
 3.95050000000000E+0003	 2.31842545481449E-0001	
 3.95250000000000E+0003	 2.31688881937459E-0001	
 3.95450000000000E+0003	 2.31535718393469E-0001	
 3.95650000000000E+0003	 2.31357554849479E-0001	
 3.95850000000000E+0003	 2.31182391305489E-0001	
 3.96050000000000E+0003	 2.30992227761499E-0001	
 3.96250000000000E+0003	 2.30811064217509E-0001	
 3.96450000000000E+0003	 2.30640900673518E-0001	
 3.96650000000000E+0003	 2.30481737129528E-0001	
 3.96850000000000E+0003	 2.30313573585538E-0001	
 3.97050000000000E+0003	 2.30128410041548E-0001	
 3.97250000000000E+0003	 2.29955746497558E-0001	
 3.97450000000000E+0003	 2.29805082953568E-0001	
 3.97650000000000E+0003	 2.29640419409578E-0001	
 3.97850000000000E+0003	 2.29472755865588E-0001	
 3.98050000000000E+0003	 2.29328592321598E-0001	
 3.98250000000000E+0003	 2.29201928777608E-0001	
 3.98450000000000E+0003	 2.29039265233618E-0001	
 3.98650000000000E+0003	 2.28842101689628E-0001	
 3.98850000000000E+0003	 2.28638438145637E-0001	
 3.99050000000000E+0003	 2.28460794117647E-0001	
 3.99250000000000E+0003	 2.28296794117647E-0001	
 3.99450000000000E+0003	 2.28135794117647E-0001	
 3.99650000000000E+0003	 2.27981794117647E-0001	
 3.99850000000000E+0003	 2.27821294117647E-0001	

>1	DATALINE
