*CPCWIN*

>1	DATALINE
DATALINE
1
Operator:

Description:

Remarks:





15.9.2008
11:29


_x	_y
	
	
UNIT	UNIT
 4.50500000000000E+0002	 1.45698000000000E-0001	
 4.52500000000000E+0002	 1.46017000000000E-0001	
 4.54500000000000E+0002	 1.46375500000000E-0001	
 4.56500000000000E+0002	 1.46159500000000E-0001	
 4.58500000000000E+0002	 1.46661360081943E-0001	
 4.60500000000000E+0002	 1.48106242669008E-0001	
 4.62500000000000E+0002	 1.49254625256073E-0001	
 4.64500000000000E+0002	 1.50414507843137E-0001	
 4.66500000000000E+0002	 1.50858890430202E-0001	
 4.68500000000000E+0002	 1.51371273017267E-0001	
 4.70500000000000E+0002	 1.51865155604331E-0001	
 4.72500000000000E+0002	 1.52302538191396E-0001	
 4.74500000000000E+0002	 1.53374420778461E-0001	
 4.76500000000000E+0002	 1.54474303365525E-0001	
 4.78500000000000E+0002	 1.55450685952590E-0001	
 4.80500000000000E+0002	 1.56233568539655E-0001	
 4.82500000000000E+0002	 1.56736951126719E-0001	
 4.84500000000000E+0002	 1.57376833713784E-0001	
 4.86500000000000E+0002	 1.58329716300849E-0001	
 4.88500000000000E+0002	 1.59447098887913E-0001	
 4.90500000000000E+0002	 1.60248481474978E-0001	
 4.92500000000000E+0002	 1.61257864062043E-0001	
 4.94500000000000E+0002	 1.62591746649107E-0001	
 4.96500000000000E+0002	 1.63590129236172E-0001	
 4.98500000000000E+0002	 1.64443511823237E-0001	
 5.00500000000000E+0002	 1.65356894410301E-0001	
 5.02500000000000E+0002	 1.66277776997366E-0001	
 5.04500000000000E+0002	 1.67190659584431E-0001	
 5.06500000000000E+0002	 1.68000042171495E-0001	
 5.08500000000000E+0002	 1.68763924758560E-0001	
 5.10500000000000E+0002	 1.69479307345625E-0001	
 5.12500000000000E+0002	 1.70269689932689E-0001	
 5.14500000000000E+0002	 1.71068572519754E-0001	
 5.16500000000000E+0002	 1.71795955106819E-0001	
 5.18500000000000E+0002	 1.72591837693884E-0001	
 5.20500000000000E+0002	 1.73428720280948E-0001	
 5.22500000000000E+0002	 1.74113602868013E-0001	
 5.24500000000000E+0002	 1.74679985455078E-0001	
 5.26500000000000E+0002	 1.75355368042142E-0001	
 5.28500000000000E+0002	 1.75928750629207E-0001	
 5.30500000000000E+0002	 1.76387133216272E-0001	
 5.32500000000000E+0002	 1.76587015803336E-0001	
 5.34500000000000E+0002	 1.76652398390401E-0001	
 5.36500000000000E+0002	 1.76611280977466E-0001	
 5.38500000000000E+0002	 1.76421163564530E-0001	
 5.40500000000000E+0002	 1.76080546151595E-0001	
 5.42500000000000E+0002	 1.75605428738660E-0001	
 5.44500000000000E+0002	 1.75042311325724E-0001	
 5.46500000000000E+0002	 1.74456193912789E-0001	
 5.48500000000000E+0002	 1.73976076499854E-0001	
 5.50500000000000E+0002	 1.73633459086918E-0001	
 5.52500000000000E+0002	 1.73366841673983E-0001	
 5.54500000000000E+0002	 1.73094224261048E-0001	
 5.56500000000000E+0002	 1.72880106848112E-0001	
 5.58500000000000E+0002	 1.72753489435177E-0001	
 5.60500000000000E+0002	 1.72694872022242E-0001	
 5.62500000000000E+0002	 1.72668254609306E-0001	
 5.64500000000000E+0002	 1.72634637196371E-0001	
 5.66500000000000E+0002	 1.72566019783436E-0001	
 5.68500000000000E+0002	 1.72506402370500E-0001	
 5.70500000000000E+0002	 1.72482784957565E-0001	
 5.72500000000000E+0002	 1.72409167544630E-0001	
 5.74500000000000E+0002	 1.72121550131694E-0001	
 5.76500000000000E+0002	 1.71840932718759E-0001	
 5.78500000000000E+0002	 1.71536315305824E-0001	
 5.80500000000000E+0002	 1.70859197892888E-0001	
 5.82500000000000E+0002	 1.70071580479953E-0001	
 5.84500000000000E+0002	 1.69347963067018E-0001	
 5.86500000000000E+0002	 1.68885345654083E-0001	
 5.88500000000000E+0002	 1.68608228241147E-0001	
 5.90500000000000E+0002	 1.68350110828212E-0001	
 5.92500000000000E+0002	 1.68366493415277E-0001	
 5.94500000000000E+0002	 1.68652876002341E-0001	
 5.96500000000000E+0002	 1.68848758589406E-0001	
 5.98500000000000E+0002	 1.68852641176471E-0001	
 6.00500000000000E+0002	 1.68932023763535E-0001	
 6.02500000000000E+0002	 1.69168406350600E-0001	
 6.04500000000000E+0002	 1.69353788937665E-0001	
 6.06500000000000E+0002	 1.69560171524729E-0001	
 6.08500000000000E+0002	 1.69753054111794E-0001	
 6.10500000000000E+0002	 1.69886936698859E-0001	
 6.12500000000000E+0002	 1.69933319285923E-0001	
 6.14500000000000E+0002	 1.69757701872988E-0001	
 6.16500000000000E+0002	 1.69340584460053E-0001	
 6.18500000000000E+0002	 1.68708467047117E-0001	
 6.20500000000000E+0002	 1.67970349634182E-0001	
 6.22500000000000E+0002	 1.67240732221247E-0001	
 6.24500000000000E+0002	 1.66546114808311E-0001	
 6.26500000000000E+0002	 1.65999497395376E-0001	
 6.28500000000000E+0002	 1.65580379982441E-0001	
 6.30500000000000E+0002	 1.65153262569505E-0001	
 6.32500000000000E+0002	 1.64742145156570E-0001	
 6.34500000000000E+0002	 1.64391527743635E-0001	
 6.36500000000000E+0002	 1.64208410330699E-0001	
 6.38500000000000E+0002	 1.64108292917764E-0001	
 6.40500000000000E+0002	 1.63939175504829E-0001	
 6.42500000000000E+0002	 1.63646558091893E-0001	
 6.44500000000000E+0002	 1.63196940678958E-0001	
 6.46500000000000E+0002	 1.62659323266023E-0001	
 6.48500000000000E+0002	 1.62127205853088E-0001	
 6.50500000000000E+0002	 1.61582588440152E-0001	
 6.52500000000000E+0002	 1.61060471027217E-0001	
 6.54500000000000E+0002	 1.60614853614282E-0001	
 6.56500000000000E+0002	 1.60260236201346E-0001	
 6.58500000000000E+0002	 1.59942118788411E-0001	
 6.60500000000000E+0002	 1.59708501375476E-0001	
 6.62500000000000E+0002	 1.59480383962540E-0001	
 6.64500000000000E+0002	 1.59162266549605E-0001	
 6.66500000000000E+0002	 1.58622149136670E-0001	
 6.68500000000000E+0002	 1.58120031723734E-0001	
 6.70500000000000E+0002	 1.57843414310799E-0001	
 6.72500000000000E+0002	 1.57419296897864E-0001	
 6.74500000000000E+0002	 1.56848179484928E-0001	
 6.76500000000000E+0002	 1.56262562071993E-0001	
 6.78500000000000E+0002	 1.55666944659058E-0001	
 6.80500000000000E+0002	 1.55125827246122E-0001	
 6.82500000000000E+0002	 1.54637709833187E-0001	
 6.84500000000000E+0002	 1.54225592420252E-0001	
 6.86500000000000E+0002	 1.53803975007316E-0001	
 6.88500000000000E+0002	 1.53394857594381E-0001	
 6.90500000000000E+0002	 1.53145240181446E-0001	
 6.92500000000000E+0002	 1.52998622768510E-0001	
 6.94500000000000E+0002	 1.52892505355575E-0001	
 6.96500000000000E+0002	 1.52892387942640E-0001	
 6.98500000000000E+0002	 1.52894270529704E-0001	
 7.00500000000000E+0002	 1.52824653116769E-0001	
 7.02500000000000E+0002	 1.52503035703834E-0001	
 7.04500000000000E+0002	 1.51943918290898E-0001	
 7.06500000000000E+0002	 1.51238300877963E-0001	
 7.08500000000000E+0002	 1.50410183465028E-0001	
 7.10500000000000E+0002	 1.49414066052092E-0001	
 7.12500000000000E+0002	 1.48364948639157E-0001	
 7.14500000000000E+0002	 1.47377831226222E-0001	
 7.16500000000000E+0002	 1.46508713813287E-0001	
 7.18500000000000E+0002	 1.45745096400351E-0001	
 7.20500000000000E+0002	 1.45022478987416E-0001	
 7.22500000000000E+0002	 1.44148361574481E-0001	
 7.24500000000000E+0002	 1.43180244161545E-0001	
 7.26500000000000E+0002	 1.42135126748610E-0001	
 7.28500000000000E+0002	 1.41089009335675E-0001	
 7.30500000000000E+0002	 1.40039391922739E-0001	
 7.32500000000000E+0002	 1.39068274509804E-0001	
 7.34500000000000E+0002	 1.38230157096869E-0001	
 7.36500000000000E+0002	 1.37499539683933E-0001	
 7.38500000000000E+0002	 1.36792422270998E-0001	
 7.40500000000000E+0002	 1.36151304858063E-0001	
 7.42500000000000E+0002	 1.35572187445127E-0001	
 7.44500000000000E+0002	 1.35067070032192E-0001	
 7.46500000000000E+0002	 1.34630952619257E-0001	
 7.48500000000000E+0002	 1.34236835206321E-0001	
 7.50500000000000E+0002	 1.33762717793386E-0001	
 7.52500000000000E+0002	 1.33211100380451E-0001	
 7.54500000000000E+0002	 1.32558482967515E-0001	
 7.56500000000000E+0002	 1.31808365554580E-0001	
 7.58500000000000E+0002	 1.30962748141645E-0001	
 7.60500000000000E+0002	 1.30115630728709E-0001	
 7.62500000000000E+0002	 1.29345513315774E-0001	
 7.64500000000000E+0002	 1.28652895902839E-0001	
 7.66500000000000E+0002	 1.27880778489903E-0001	
 7.68500000000000E+0002	 1.26979661076968E-0001	
 7.70500000000000E+0002	 1.26049043664033E-0001	
 7.72500000000000E+0002	 1.25300426251097E-0001	
 7.74500000000000E+0002	 1.24876308838162E-0001	
 7.76500000000000E+0002	 1.24918691425227E-0001	
 7.78500000000000E+0002	 1.25187574012291E-0001	
 7.80500000000000E+0002	 1.25071956599356E-0001	
 7.82500000000000E+0002	 1.24345839186421E-0001	
 7.84500000000000E+0002	 1.23507221773486E-0001	
 7.86500000000000E+0002	 1.22898104360550E-0001	
 7.88500000000000E+0002	 1.22448986947615E-0001	
 7.90500000000000E+0002	 1.22156869534680E-0001	
 7.92500000000000E+0002	 1.22202752121744E-0001	
 7.94500000000000E+0002	 1.22632134708809E-0001	
 7.96500000000000E+0002	 1.23235017295874E-0001	
 7.98500000000000E+0002	 1.23767399882938E-0001	
 8.00500000000000E+0002	 1.24212782470003E-0001	
 8.02500000000000E+0002	 1.24474165057068E-0001	
 8.04500000000000E+0002	 1.24339547644132E-0001	
 8.06500000000000E+0002	 1.23622430231197E-0001	
 8.08500000000000E+0002	 1.22477312818262E-0001	
 8.10500000000000E+0002	 1.21235695405326E-0001	
 8.12500000000000E+0002	 1.20118077992391E-0001	
 8.14500000000000E+0002	 1.19186460579456E-0001	
 8.16500000000000E+0002	 1.18458843166520E-0001	
 8.18500000000000E+0002	 1.17882725753585E-0001	
 8.20500000000000E+0002	 1.17435108340650E-0001	
 8.22500000000000E+0002	 1.17136490927714E-0001	
 8.24500000000000E+0002	 1.16945873514779E-0001	
 8.26500000000000E+0002	 1.16759756101844E-0001	
 8.28500000000000E+0002	 1.16641638688908E-0001	
 8.30500000000000E+0002	 1.16627521275973E-0001	
 8.32500000000000E+0002	 1.16766903863038E-0001	
 8.34500000000000E+0002	 1.16999286450102E-0001	
 8.36500000000000E+0002	 1.17246669037167E-0001	
 8.38500000000000E+0002	 1.17465551624232E-0001	
 8.40500000000000E+0002	 1.17659434211296E-0001	
 8.42500000000000E+0002	 1.17810316798361E-0001	
 8.44500000000000E+0002	 1.17965199385426E-0001	
 8.46500000000000E+0002	 1.18147581972490E-0001	
 8.48500000000000E+0002	 1.18430464559555E-0001	
 8.50500000000000E+0002	 1.18812847146620E-0001	
 8.52500000000000E+0002	 1.19310729733685E-0001	
 8.54500000000000E+0002	 1.19848612320749E-0001	
 8.56500000000000E+0002	 1.20364994907814E-0001	
 8.58500000000000E+0002	 1.20749877494879E-0001	
 8.60500000000000E+0002	 1.20933260081943E-0001	
 8.62500000000000E+0002	 1.20817142669008E-0001	
 8.64500000000000E+0002	 1.20423525256073E-0001	
 8.66500000000000E+0002	 1.19773907843137E-0001	
 8.68500000000000E+0002	 1.18960290430202E-0001	
 8.70500000000000E+0002	 1.18057173017267E-0001	
 8.72500000000000E+0002	 1.17167555604331E-0001	
 8.74500000000000E+0002	 1.16257438191396E-0001	
 8.76500000000000E+0002	 1.15393320778461E-0001	
 8.78500000000000E+0002	 1.14577703365525E-0001	
 8.80500000000000E+0002	 1.13830085952590E-0001	
 8.82500000000000E+0002	 1.13093968539655E-0001	
 8.84500000000000E+0002	 1.12402351126719E-0001	
 8.86500000000000E+0002	 1.11732233713784E-0001	
 8.88500000000000E+0002	 1.11181616300849E-0001	
 8.90500000000000E+0002	 1.10772998887913E-0001	
 8.92500000000000E+0002	 1.10552881474978E-0001	
 8.94500000000000E+0002	 1.10475764062043E-0001	
 8.96500000000000E+0002	 1.10569146649107E-0001	
 8.98500000000000E+0002	 1.10742529236172E-0001	
 9.00500000000000E+0002	 1.11027411823237E-0001	
 9.02500000000000E+0002	 1.11458294410301E-0001	
 9.04500000000000E+0002	 1.12130676997366E-0001	
 9.06500000000000E+0002	 1.12971059584431E-0001	
 9.08500000000000E+0002	 1.13921942171495E-0001	
 9.10500000000000E+0002	 1.14815824758560E-0001	
 9.12500000000000E+0002	 1.15542707345625E-0001	
 9.14500000000000E+0002	 1.15986089932689E-0001	
 9.16500000000000E+0002	 1.16141972519754E-0001	
 9.18500000000000E+0002	 1.15991355106819E-0001	
 9.20500000000000E+0002	 1.15728237693884E-0001	
 9.22500000000000E+0002	 1.15530120280948E-0001	
 9.24500000000000E+0002	 1.15586502868013E-0001	
 9.26500000000000E+0002	 1.15943885455078E-0001	
 9.28500000000000E+0002	 1.16644268042142E-0001	
 9.30500000000000E+0002	 1.17565150629207E-0001	
 9.32500000000000E+0002	 1.18614533216272E-0001	
 9.34500000000000E+0002	 1.19650915803336E-0001	
 9.36500000000000E+0002	 1.20661798390401E-0001	
 9.38500000000000E+0002	 1.21580180977466E-0001	
 9.40500000000000E+0002	 1.22366063564530E-0001	
 9.42500000000000E+0002	 1.22920446151595E-0001	
 9.44500000000000E+0002	 1.23191328738660E-0001	
 9.46500000000000E+0002	 1.23111711325724E-0001	
 9.48500000000000E+0002	 1.22762093912789E-0001	
 9.50500000000000E+0002	 1.22230976499854E-0001	
 9.52500000000000E+0002	 1.21780859086918E-0001	
 9.54500000000000E+0002	 1.21642741673983E-0001	
 9.56500000000000E+0002	 1.21959624261048E-0001	
 9.58500000000000E+0002	 1.22737506848112E-0001	
 9.60500000000000E+0002	 1.23955389435177E-0001	
 9.62500000000000E+0002	 1.25456272022242E-0001	
 9.64500000000000E+0002	 1.27165154609306E-0001	
 9.66500000000000E+0002	 1.28987537196371E-0001	
 9.68500000000000E+0002	 1.30926419783436E-0001	
 9.70500000000000E+0002	 1.33080802370500E-0001	
 9.72500000000000E+0002	 1.35715684957565E-0001	
 9.74500000000000E+0002	 1.39090567544630E-0001	
 9.76500000000000E+0002	 1.43492950131694E-0001	
 9.78500000000000E+0002	 1.49083832718759E-0001	
 9.80500000000000E+0002	 1.55805715305824E-0001	
 9.82500000000000E+0002	 1.63255097892888E-0001	
 9.84500000000000E+0002	 1.70764980479953E-0001	
 9.86500000000000E+0002	 1.77516363067018E-0001	
 9.88500000000000E+0002	 1.82837245654083E-0001	
 9.90500000000000E+0002	 1.86315628241147E-0001	
 9.92500000000000E+0002	 1.87806010828212E-0001	
 9.94500000000000E+0002	 1.87464393415277E-0001	
 9.96500000000000E+0002	 1.85751776002341E-0001	
 9.98500000000000E+0002	 1.83351158589406E-0001	
 1.00050000000000E+0003	 1.81106541176471E-0001	
 1.00250000000000E+0003	 1.79771923763535E-0001	
 1.00450000000000E+0003	 1.79837806350600E-0001	
 1.00650000000000E+0003	 1.81402688937665E-0001	
 1.00850000000000E+0003	 1.84184571524729E-0001	
 1.01050000000000E+0003	 1.87663954111794E-0001	
 1.01250000000000E+0003	 1.91336336698859E-0001	
 1.01450000000000E+0003	 1.94835719285923E-0001	
 1.01650000000000E+0003	 1.98051601872988E-0001	
 1.01850000000000E+0003	 2.01174484460053E-0001	
 1.02050000000000E+0003	 2.04555867047117E-0001	
 1.02250000000000E+0003	 2.08450749634182E-0001	
 1.02450000000000E+0003	 2.12880132221247E-0001	
 1.02650000000000E+0003	 2.17458514808311E-0001	
 1.02850000000000E+0003	 2.21622397395376E-0001	
 1.03050000000000E+0003	 2.24915279982441E-0001	
 1.03250000000000E+0003	 2.27167662569505E-0001	
 1.03450000000000E+0003	 2.28562045156570E-0001	
 1.03650000000000E+0003	 2.29500927743635E-0001	
 1.03850000000000E+0003	 2.30332310330699E-0001	
 1.04050000000000E+0003	 2.31356192917764E-0001	
 1.04250000000000E+0003	 2.32722575504829E-0001	
 1.04450000000000E+0003	 2.34419958091893E-0001	
 1.04650000000000E+0003	 2.36216340678958E-0001	
 1.04850000000000E+0003	 2.37734723266023E-0001	
 1.05050000000000E+0003	 2.38609105853088E-0001	
 1.05250000000000E+0003	 2.38770988440152E-0001	
 1.05450000000000E+0003	 2.38426871027217E-0001	
 1.05650000000000E+0003	 2.37870753614282E-0001	
 1.05850000000000E+0003	 2.37243636201346E-0001	
 1.06050000000000E+0003	 2.36552018788411E-0001	
 1.06250000000000E+0003	 2.35811401375476E-0001	
 1.06450000000000E+0003	 2.35248783962540E-0001	
 1.06650000000000E+0003	 2.35121166549605E-0001	
 1.06850000000000E+0003	 2.35631549136670E-0001	
 1.07050000000000E+0003	 2.36767931723734E-0001	
 1.07250000000000E+0003	 2.38294314310799E-0001	
 1.07450000000000E+0003	 2.39761696897864E-0001	
 1.07650000000000E+0003	 2.40748579484928E-0001	
 1.07850000000000E+0003	 2.40888962071993E-0001	
 1.08050000000000E+0003	 2.40004844659058E-0001	
 1.08250000000000E+0003	 2.38076727246122E-0001	
 1.08450000000000E+0003	 2.35298609833187E-0001	
 1.08650000000000E+0003	 2.31977492420252E-0001	
 1.08850000000000E+0003	 2.28474375007316E-0001	
 1.09050000000000E+0003	 2.25103257594381E-0001	
 1.09250000000000E+0003	 2.22247640181446E-0001	
 1.09450000000000E+0003	 2.20114022768510E-0001	
 1.09650000000000E+0003	 2.18688405355575E-0001	
 1.09850000000000E+0003	 2.17725787942640E-0001	
 1.10050000000000E+0003	 2.17009170529704E-0001	
 1.10250000000000E+0003	 2.16339053116769E-0001	
 1.10450000000000E+0003	 2.15550435703834E-0001	
 1.10650000000000E+0003	 2.14573318290898E-0001	
 1.10850000000000E+0003	 2.13457700877963E-0001	
 1.11050000000000E+0003	 2.12203083465028E-0001	
 1.11250000000000E+0003	 2.10772966052092E-0001	
 1.11450000000000E+0003	 2.09053348639157E-0001	
 1.11650000000000E+0003	 2.06934731226222E-0001	
 1.11850000000000E+0003	 2.04279613813287E-0001	
 1.12050000000000E+0003	 2.01096496400351E-0001	
 1.12250000000000E+0003	 1.97483878987416E-0001	
 1.12450000000000E+0003	 1.93583761574481E-0001	
 1.12650000000000E+0003	 1.89532644161545E-0001	
 1.12850000000000E+0003	 1.85496526748610E-0001	
 1.13050000000000E+0003	 1.81600409335675E-0001	
 1.13250000000000E+0003	 1.78018791922739E-0001	
 1.13450000000000E+0003	 1.74947174509804E-0001	
 1.13650000000000E+0003	 1.72616557096869E-0001	
 1.13850000000000E+0003	 1.71202939683933E-0001	
 1.14050000000000E+0003	 1.70785822270998E-0001	
 1.14250000000000E+0003	 1.71285204858063E-0001	
 1.14450000000000E+0003	 1.72395087445127E-0001	
 1.14650000000000E+0003	 1.73564470032192E-0001	
 1.14850000000000E+0003	 1.74180852619257E-0001	
 1.15050000000000E+0003	 1.73735735206321E-0001	
 1.15250000000000E+0003	 1.72044117793386E-0001	
 1.15450000000000E+0003	 1.69207000380451E-0001	
 1.15650000000000E+0003	 1.65511382967515E-0001	
 1.15850000000000E+0003	 1.61366265554580E-0001	
 1.16050000000000E+0003	 1.57164148141645E-0001	
 1.16250000000000E+0003	 1.53214530728709E-0001	
 1.16450000000000E+0003	 1.49724913315774E-0001	
 1.16650000000000E+0003	 1.46738295902839E-0001	
 1.16850000000000E+0003	 1.44296678489903E-0001	
 1.17050000000000E+0003	 1.42362061076968E-0001	
 1.17250000000000E+0003	 1.40794943664033E-0001	
 1.17450000000000E+0003	 1.39463326251097E-0001	
 1.17650000000000E+0003	 1.38372208838162E-0001	
 1.17850000000000E+0003	 1.37599591425227E-0001	
 1.18050000000000E+0003	 1.37243974012291E-0001	
 1.18250000000000E+0003	 1.37393856599356E-0001	
 1.18450000000000E+0003	 1.38149239186421E-0001	
 1.18650000000000E+0003	 1.39519121773486E-0001	
 1.18850000000000E+0003	 1.41522004360550E-0001	
 1.19050000000000E+0003	 1.44101386947615E-0001	
 1.19250000000000E+0003	 1.47184269534680E-0001	
 1.19450000000000E+0003	 1.50644652121744E-0001	
 1.19650000000000E+0003	 1.54371534708809E-0001	
 1.19850000000000E+0003	 1.58244917295874E-0001	
 1.20050000000000E+0003	 1.62113299882938E-0001	
 1.20250000000000E+0003	 1.65806682470003E-0001	
 1.20450000000000E+0003	 1.69213065057068E-0001	
 1.20650000000000E+0003	 1.72271447644132E-0001	
 1.20850000000000E+0003	 1.74994330231197E-0001	
 1.21050000000000E+0003	 1.77419212818262E-0001	
 1.21250000000000E+0003	 1.79648095405326E-0001	
 1.21450000000000E+0003	 1.81711477992391E-0001	
 1.21650000000000E+0003	 1.83545860579456E-0001	
 1.21850000000000E+0003	 1.85103743166520E-0001	
 1.22050000000000E+0003	 1.86383625753585E-0001	
 1.22250000000000E+0003	 1.87407008340650E-0001	
 1.22450000000000E+0003	 1.88249890927714E-0001	
 1.22650000000000E+0003	 1.88976273514779E-0001	
 1.22850000000000E+0003	 1.89619656101844E-0001	
 1.23050000000000E+0003	 1.90156538688908E-0001	
 1.23250000000000E+0003	 1.90562921275973E-0001	
 1.23450000000000E+0003	 1.90784803863038E-0001	
 1.23650000000000E+0003	 1.90774686450102E-0001	
 1.23850000000000E+0003	 1.90477069037167E-0001	
 1.24050000000000E+0003	 1.89853951624232E-0001	
 1.24250000000000E+0003	 1.88871334211296E-0001	
 1.24450000000000E+0003	 1.87580216798361E-0001	
 1.24650000000000E+0003	 1.86001099385426E-0001	
 1.24850000000000E+0003	 1.84192481972490E-0001	
 1.25050000000000E+0003	 1.82218364559555E-0001	
 1.25250000000000E+0003	 1.80119247146620E-0001	
 1.25450000000000E+0003	 1.77933129733685E-0001	
 1.25650000000000E+0003	 1.75692012320749E-0001	
 1.25850000000000E+0003	 1.73381394907814E-0001	
 1.26050000000000E+0003	 1.71054277494879E-0001	
 1.26250000000000E+0003	 1.68688660081943E-0001	
 1.26450000000000E+0003	 1.66275542669008E-0001	
 1.26650000000000E+0003	 1.63919925256073E-0001	
 1.26850000000000E+0003	 1.61746307843137E-0001	
 1.27050000000000E+0003	 1.59800190430202E-0001	
 1.27250000000000E+0003	 1.58120073017267E-0001	
 1.27450000000000E+0003	 1.56619455604331E-0001	
 1.27650000000000E+0003	 1.55240838191396E-0001	
 1.27850000000000E+0003	 1.53959720778461E-0001	
 1.28050000000000E+0003	 1.52816603365525E-0001	
 1.28250000000000E+0003	 1.51760485952590E-0001	
 1.28450000000000E+0003	 1.50690868539655E-0001	
 1.28650000000000E+0003	 1.49589251126719E-0001	
 1.28850000000000E+0003	 1.48665633713784E-0001	
 1.29050000000000E+0003	 1.47975516300849E-0001	
 1.29250000000000E+0003	 1.47435898887913E-0001	
 1.29450000000000E+0003	 1.46996281474978E-0001	
 1.29650000000000E+0003	 1.46719164062043E-0001	
 1.29850000000000E+0003	 1.46653046649107E-0001	
 1.30050000000000E+0003	 1.46743929236172E-0001	
 1.30250000000000E+0003	 1.46897311823237E-0001	
 1.30450000000000E+0003	 1.47068694410301E-0001	
 1.30650000000000E+0003	 1.47216576997366E-0001	
 1.30850000000000E+0003	 1.47396459584431E-0001	
 1.31050000000000E+0003	 1.47502842171495E-0001	
 1.31250000000000E+0003	 1.47563224758560E-0001	
 1.31450000000000E+0003	 1.47707107345625E-0001	
 1.31650000000000E+0003	 1.47811989932689E-0001	
 1.31850000000000E+0003	 1.47894372519754E-0001	
 1.32050000000000E+0003	 1.48054755106819E-0001	
 1.32250000000000E+0003	 1.48137637693884E-0001	
 1.32450000000000E+0003	 1.48085020280948E-0001	
 1.32650000000000E+0003	 1.47931902868013E-0001	
 1.32850000000000E+0003	 1.47755785455078E-0001	
 1.33050000000000E+0003	 1.47496668042142E-0001	
 1.33250000000000E+0003	 1.47201550629207E-0001	
 1.33450000000000E+0003	 1.46811433216272E-0001	
 1.33650000000000E+0003	 1.46296315803336E-0001	
 1.33850000000000E+0003	 1.45654198390401E-0001	
 1.34050000000000E+0003	 1.44966080977466E-0001	
 1.34250000000000E+0003	 1.44206463564530E-0001	
 1.34450000000000E+0003	 1.43283346151595E-0001	
 1.34650000000000E+0003	 1.42222728738660E-0001	
 1.34850000000000E+0003	 1.41261611325724E-0001	
 1.35050000000000E+0003	 1.40425993912789E-0001	
 1.35250000000000E+0003	 1.39728876499854E-0001	
 1.35450000000000E+0003	 1.39237759086918E-0001	
 1.35650000000000E+0003	 1.39053141673983E-0001	
 1.35850000000000E+0003	 1.38825024261048E-0001	
 1.36050000000000E+0003	 1.38497906848112E-0001	
 1.36250000000000E+0003	 1.39364789435177E-0001	
 1.36450000000000E+0003	 1.42047172022242E-0001	
 1.36650000000000E+0003	 1.44999554609306E-0001	
 1.36850000000000E+0003	 1.47693937196371E-0001	
 1.37050000000000E+0003	 1.50067819783436E-0001	
 1.37250000000000E+0003	 1.51849202370500E-0001	
 1.37450000000000E+0003	 1.53836584957565E-0001	
 1.37650000000000E+0003	 1.55795467544630E-0001	
 1.37850000000000E+0003	 1.57033350131694E-0001	
 1.38050000000000E+0003	 1.57850732718759E-0001	
 1.38250000000000E+0003	 1.58382615305824E-0001	
 1.38450000000000E+0003	 1.58414497892888E-0001	
 1.38650000000000E+0003	 1.58374880479953E-0001	
 1.38850000000000E+0003	 1.59629763067018E-0001	
 1.39050000000000E+0003	 1.60463145654083E-0001	
 1.39250000000000E+0003	 1.61114528241147E-0001	
 1.39450000000000E+0003	 1.60430410828212E-0001	
 1.39650000000000E+0003	 1.60592793415277E-0001	
 1.39850000000000E+0003	 1.61500176002341E-0001	
 1.40050000000000E+0003	 1.62426558589406E-0001	
 1.40250000000000E+0003	 1.62442441176471E-0001	
 1.40450000000000E+0003	 1.61718323763535E-0001	
 1.40650000000000E+0003	 1.61141706350600E-0001	
 1.40850000000000E+0003	 1.60444588937665E-0001	
 1.41050000000000E+0003	 1.59445971524729E-0001	
 1.41250000000000E+0003	 1.58672854111794E-0001	
 1.41450000000000E+0003	 1.57671236698859E-0001	
 1.41650000000000E+0003	 1.56568119285923E-0001	
 1.41850000000000E+0003	 1.55279001872988E-0001	
 1.42050000000000E+0003	 1.53177884460053E-0001	
 1.42250000000000E+0003	 1.51886267047117E-0001	
 1.42450000000000E+0003	 1.50654649634182E-0001	
 1.42650000000000E+0003	 1.49370032221247E-0001	
 1.42850000000000E+0003	 1.48031914808311E-0001	
 1.43050000000000E+0003	 1.47095297395376E-0001	
 1.43250000000000E+0003	 1.46515679982441E-0001	
 1.43450000000000E+0003	 1.45834562569505E-0001	
 1.43650000000000E+0003	 1.46124945156570E-0001	
 1.43850000000000E+0003	 1.47998327743635E-0001	
 1.44050000000000E+0003	 1.49695710330699E-0001	
 1.44250000000000E+0003	 1.50791092917764E-0001	
 1.44450000000000E+0003	 1.51419975504829E-0001	
 1.44650000000000E+0003	 1.51887358091893E-0001	
 1.44850000000000E+0003	 1.52850240678958E-0001	
 1.45050000000000E+0003	 1.54005123266023E-0001	
 1.45250000000000E+0003	 1.54304505853088E-0001	
 1.45450000000000E+0003	 1.53869888440152E-0001	
 1.45650000000000E+0003	 1.53100271027217E-0001	
 1.45850000000000E+0003	 1.52149153614282E-0001	
 1.46050000000000E+0003	 1.51421536201346E-0001	
 1.46250000000000E+0003	 1.49969918788411E-0001	
 1.46450000000000E+0003	 1.47646301375476E-0001	
 1.46650000000000E+0003	 1.45237183962540E-0001	
 1.46850000000000E+0003	 1.42661566549605E-0001	
 1.47050000000000E+0003	 1.39378949136670E-0001	
 1.47250000000000E+0003	 1.35700831723734E-0001	
 1.47450000000000E+0003	 1.32453714310799E-0001	
 1.47650000000000E+0003	 1.30806096897864E-0001	
 1.47850000000000E+0003	 1.30100979484928E-0001	
 1.48050000000000E+0003	 1.29489862071993E-0001	
 1.48250000000000E+0003	 1.29094244659058E-0001	
 1.48450000000000E+0003	 1.28867127246122E-0001	
 1.48650000000000E+0003	 1.28592009833187E-0001	
 1.48850000000000E+0003	 1.28878392420252E-0001	
 1.49050000000000E+0003	 1.31272275007316E-0001	
 1.49250000000000E+0003	 1.34633657594381E-0001	
 1.49450000000000E+0003	 1.37625540181446E-0001	
 1.49650000000000E+0003	 1.40165922768510E-0001	
 1.49850000000000E+0003	 1.42813305355575E-0001	
 1.50050000000000E+0003	 1.46027687942640E-0001	
 1.50250000000000E+0003	 1.49288570529704E-0001	
 1.50450000000000E+0003	 1.52259953116769E-0001	
 1.50650000000000E+0003	 1.55443835703834E-0001	
 1.50850000000000E+0003	 1.59522218290898E-0001	
 1.51050000000000E+0003	 1.65112600877963E-0001	
 1.51250000000000E+0003	 1.70927483465028E-0001	
 1.51450000000000E+0003	 1.75622866052092E-0001	
 1.51650000000000E+0003	 1.80003248639157E-0001	
 1.51850000000000E+0003	 1.84201631226222E-0001	
 1.52050000000000E+0003	 1.88675513813287E-0001	
 1.52250000000000E+0003	 1.92855896400351E-0001	
 1.52450000000000E+0003	 1.96411778987416E-0001	
 1.52650000000000E+0003	 2.00630661574481E-0001	
 1.52850000000000E+0003	 2.05203044161545E-0001	
 1.53050000000000E+0003	 2.08726426748610E-0001	
 1.53250000000000E+0003	 2.12004309335675E-0001	
 1.53450000000000E+0003	 2.15861191922739E-0001	
 1.53650000000000E+0003	 2.19539074509804E-0001	
 1.53850000000000E+0003	 2.23103957096869E-0001	
 1.54050000000000E+0003	 2.24812339683933E-0001	
 1.54250000000000E+0003	 2.25418222270998E-0001	
 1.54450000000000E+0003	 2.26884104858063E-0001	
 1.54650000000000E+0003	 2.28187487445127E-0001	
 1.54850000000000E+0003	 2.27803370032192E-0001	
 1.55050000000000E+0003	 2.26165252619257E-0001	
 1.55250000000000E+0003	 2.24216635206321E-0001	
 1.55450000000000E+0003	 2.20612017793386E-0001	
 1.55650000000000E+0003	 2.16572900380451E-0001	
 1.55850000000000E+0003	 2.13182782967515E-0001	
 1.56050000000000E+0003	 2.08504665554580E-0001	
 1.56250000000000E+0003	 2.05109048141645E-0001	
 1.56450000000000E+0003	 2.01904930728709E-0001	
 1.56650000000000E+0003	 1.98066313315774E-0001	
 1.56850000000000E+0003	 1.94980195902839E-0001	
 1.57050000000000E+0003	 1.91797578489903E-0001	
 1.57250000000000E+0003	 1.89312461076968E-0001	
 1.57450000000000E+0003	 1.88508343664033E-0001	
 1.57650000000000E+0003	 1.84993226251097E-0001	
 1.57850000000000E+0003	 1.82191108838162E-0001	
 1.58050000000000E+0003	 1.80407991425227E-0001	
 1.58250000000000E+0003	 1.78871374012291E-0001	
 1.58450000000000E+0003	 1.77758756599356E-0001	
 1.58650000000000E+0003	 1.77048639186421E-0001	
 1.58850000000000E+0003	 1.76905521773486E-0001	
 1.59050000000000E+0003	 1.77197404360550E-0001	
 1.59250000000000E+0003	 1.78068786947615E-0001	
 1.59450000000000E+0003	 1.79329169534680E-0001	
 1.59650000000000E+0003	 1.80989052121744E-0001	
 1.59850000000000E+0003	 1.82865934708809E-0001	
 1.60050000000000E+0003	 1.85111317295874E-0001	
 1.60250000000000E+0003	 1.87689699882938E-0001	
 1.60450000000000E+0003	 1.90735082470003E-0001	
 1.60650000000000E+0003	 1.94147465057068E-0001	
 1.60850000000000E+0003	 1.98249347644132E-0001	
 1.61050000000000E+0003	 2.02984730231197E-0001	
 1.61250000000000E+0003	 2.08128612818262E-0001	
 1.61450000000000E+0003	 2.14365495405326E-0001	
 1.61650000000000E+0003	 2.21792377992391E-0001	
 1.61850000000000E+0003	 2.27840260579456E-0001	
 1.62050000000000E+0003	 2.33729143166520E-0001	
 1.62250000000000E+0003	 2.41134025753585E-0001	
 1.62450000000000E+0003	 2.49418908340650E-0001	
 1.62650000000000E+0003	 2.57618790927714E-0001	
 1.62850000000000E+0003	 2.66185173514779E-0001	
 1.63050000000000E+0003	 2.74324056101844E-0001	
 1.63250000000000E+0003	 2.81260938688908E-0001	
 1.63450000000000E+0003	 2.88431321275973E-0001	
 1.63650000000000E+0003	 2.95437203863038E-0001	
 1.63850000000000E+0003	 3.00681586450102E-0001	
 1.64050000000000E+0003	 3.05035969037167E-0001	
 1.64250000000000E+0003	 3.08323351624232E-0001	
 1.64450000000000E+0003	 3.11057234211296E-0001	
 1.64650000000000E+0003	 3.13687116798361E-0001	
 1.64850000000000E+0003	 3.15954499385426E-0001	
 1.65050000000000E+0003	 3.19602381972490E-0001	
 1.65250000000000E+0003	 3.22814764559555E-0001	
 1.65450000000000E+0003	 3.23052147146620E-0001	
 1.65650000000000E+0003	 3.23118529733685E-0001	
 1.65850000000000E+0003	 3.22675912320749E-0001	
 1.66050000000000E+0003	 3.20538794907814E-0001	
 1.66250000000000E+0003	 3.17464177494879E-0001	
 1.66450000000000E+0003	 3.13248060081943E-0001	
 1.66650000000000E+0003	 3.08974942669008E-0001	
 1.66850000000000E+0003	 3.04446325256073E-0001	
 1.67050000000000E+0003	 2.99308707843137E-0001	
 1.67250000000000E+0003	 2.94718090430202E-0001	
 1.67450000000000E+0003	 2.90641473017267E-0001	
 1.67650000000000E+0003	 2.85669355604331E-0001	
 1.67850000000000E+0003	 2.81044738191396E-0001	
 1.68050000000000E+0003	 2.75837120778461E-0001	
 1.68250000000000E+0003	 2.71932003365525E-0001	
 1.68450000000000E+0003	 2.67815385952590E-0001	
 1.68650000000000E+0003	 2.61473268539655E-0001	
 1.68850000000000E+0003	 2.56413151126719E-0001	
 1.69050000000000E+0003	 2.51300033713784E-0001	
 1.69250000000000E+0003	 2.45853416300849E-0001	
 1.69450000000000E+0003	 2.41129298887913E-0001	
 1.69650000000000E+0003	 2.33339681474978E-0001	
 1.69850000000000E+0003	 2.26235564062043E-0001	
 1.70050000000000E+0003	 2.19616946649107E-0001	
 1.70250000000000E+0003	 2.13024329236172E-0001	
 1.70450000000000E+0003	 2.08892711823237E-0001	
 1.70650000000000E+0003	 2.04291094410301E-0001	
 1.70850000000000E+0003	 2.00054976997366E-0001	
 1.71050000000000E+0003	 1.95888859584431E-0001	
 1.71250000000000E+0003	 1.91306242171495E-0001	
 1.71450000000000E+0003	 1.87221624758560E-0001	
 1.71650000000000E+0003	 1.83858507345625E-0001	
 1.71850000000000E+0003	 1.79536389932689E-0001	
 1.72050000000000E+0003	 1.75823272519754E-0001	
 1.72250000000000E+0003	 1.73175655106819E-0001	
 1.72450000000000E+0003	 1.70241037693884E-0001	
 1.72650000000000E+0003	 1.67466420280948E-0001	
 1.72850000000000E+0003	 1.64799802868013E-0001	
 1.73050000000000E+0003	 1.62755685455078E-0001	
 1.73250000000000E+0003	 1.62301568042142E-0001	
 1.73450000000000E+0003	 1.61865950629207E-0001	
 1.73650000000000E+0003	 1.61118833216272E-0001	
 1.73850000000000E+0003	 1.61581715803336E-0001	
 1.74050000000000E+0003	 1.61643598390401E-0001	
 1.74250000000000E+0003	 1.61544480977466E-0001	
 1.74450000000000E+0003	 1.61511863564530E-0001	
 1.74650000000000E+0003	 1.60950746151595E-0001	
 1.74850000000000E+0003	 1.59751628738660E-0001	
 1.75050000000000E+0003	 1.58589511325724E-0001	
 1.75250000000000E+0003	 1.56782393912789E-0001	
 1.75450000000000E+0003	 1.54160276499854E-0001	
 1.75650000000000E+0003	 1.50853159086918E-0001	
 1.75850000000000E+0003	 1.47054041673983E-0001	
 1.76050000000000E+0003	 1.43616924261048E-0001	
 1.76250000000000E+0003	 1.40008306848112E-0001	
 1.76450000000000E+0003	 1.36465189435177E-0001	
 1.76650000000000E+0003	 1.33011572022242E-0001	
 1.76850000000000E+0003	 1.29424454609306E-0001	
 1.77050000000000E+0003	 1.27463837196371E-0001	
 1.77250000000000E+0003	 1.25698719783436E-0001	
 1.77450000000000E+0003	 1.23115602370500E-0001	
 1.77650000000000E+0003	 1.21343484957565E-0001	
 1.77850000000000E+0003	 1.19770367544630E-0001	
 1.78050000000000E+0003	 1.18222750131694E-0001	
 1.78250000000000E+0003	 1.16761632718759E-0001	
 1.78450000000000E+0003	 1.15630515305824E-0001	
 1.78650000000000E+0003	 1.14687897892888E-0001	
 1.78850000000000E+0003	 1.13269780479953E-0001	
 1.79050000000000E+0003	 1.11940163067018E-0001	
 1.79250000000000E+0003	 1.11236045654083E-0001	
 1.79450000000000E+0003	 1.10536428241147E-0001	
 1.79650000000000E+0003	 1.09852310828212E-0001	
 1.79850000000000E+0003	 1.09699193415277E-0001	
 1.80050000000000E+0003	 1.09042076002341E-0001	
 1.80250000000000E+0003	 1.08352958589406E-0001	
 1.80450000000000E+0003	 1.07747341176471E-0001	
 1.80650000000000E+0003	 1.07125223763535E-0001	
 1.80850000000000E+0003	 1.06453606350600E-0001	
 1.81050000000000E+0003	 1.05758488937665E-0001	
 1.81250000000000E+0003	 1.04884371524729E-0001	
 1.81450000000000E+0003	 1.04490254111794E-0001	
 1.81650000000000E+0003	 1.03917636698859E-0001	
 1.81850000000000E+0003	 1.03471519285923E-0001	
 1.82050000000000E+0003	 1.02917901872988E-0001	
 1.82250000000000E+0003	 1.01944784460053E-0001	
 1.82450000000000E+0003	 1.01074667047117E-0001	
 1.82650000000000E+0003	 1.00518049634182E-0001	
 1.82850000000000E+0003	 1.00349932221247E-0001	
 1.83050000000000E+0003	 1.00087314808311E-0001	
 1.83250000000000E+0003	 9.99596973953761E-0002	
 1.83450000000000E+0003	 9.99275799824407E-0002	
 1.83650000000000E+0003	 9.97594625695054E-0002	
 1.83850000000000E+0003	 9.93898451565701E-0002	
 1.84050000000000E+0003	 9.90137277436348E-0002	
 1.84250000000000E+0003	 9.85871103306994E-0002	
 1.84450000000000E+0003	 9.81814929177641E-0002	
 1.84650000000000E+0003	 9.79243755048288E-0002	
 1.84850000000000E+0003	 9.76857580918935E-0002	
 1.85050000000000E+0003	 9.74356406789582E-0002	
 1.85250000000000E+0003	 9.71545232660228E-0002	
 1.85450000000000E+0003	 9.68484058530875E-0002	
 1.85650000000000E+0003	 9.65132884401522E-0002	
 1.85850000000000E+0003	 9.61746710272169E-0002	
 1.86050000000000E+0003	 9.58845536142815E-0002	
 1.86250000000000E+0003	 9.55934362013462E-0002	
 1.86450000000000E+0003	 9.54718187884109E-0002	
 1.86650000000000E+0003	 9.52122013754756E-0002	
 1.86850000000000E+0003	 9.49085839625402E-0002	
 1.87050000000000E+0003	 9.47554665496049E-0002	
 1.87250000000000E+0003	 9.44843491366696E-0002	
 1.87450000000000E+0003	 9.44377317237343E-0002	
 1.87650000000000E+0003	 9.42181143107989E-0002	
 1.87850000000000E+0003	 9.39949968978636E-0002	
 1.88050000000000E+0003	 9.38143794849283E-0002	
 1.88250000000000E+0003	 9.36502620719930E-0002	
 1.88450000000000E+0003	 9.33981446590577E-0002	
 1.88650000000000E+0003	 9.29535272461223E-0002	
 1.88850000000000E+0003	 9.26114098331870E-0002	
 1.89050000000000E+0003	 9.25067924202517E-0002	
 1.89250000000000E+0003	 9.25266750073164E-0002	
 1.89450000000000E+0003	 9.24855575943810E-0002	
 1.89650000000000E+0003	 9.23949401814457E-0002	
 1.89850000000000E+0003	 9.23633227685104E-0002	
 1.90050000000000E+0003	 9.22542053555751E-0002	
 1.90250000000000E+0003	 9.21165879426397E-0002	
 1.90450000000000E+0003	 9.19399705297044E-0002	
 1.90650000000000E+0003	 9.16888531167691E-0002	
 1.90850000000000E+0003	 9.15022357038338E-0002	
 1.91050000000000E+0003	 9.14356182908984E-0002	
 1.91250000000000E+0003	 9.13865008779631E-0002	
 1.91450000000000E+0003	 9.10603834650278E-0002	
 1.91650000000000E+0003	 9.07377660520925E-0002	
 1.91850000000000E+0003	 9.05421486391572E-0002	
 1.92050000000000E+0003	 9.04085312262218E-0002	
 1.92250000000000E+0003	 9.04474138132865E-0002	
 1.92450000000000E+0003	 9.05662964003512E-0002	
 1.92650000000000E+0003	 9.07251789874159E-0002	
 1.92850000000000E+0003	 9.06970615744805E-0002	
 1.93050000000000E+0003	 9.05939441615452E-0002	
 1.93250000000000E+0003	 9.04963267486099E-0002	
 1.93450000000000E+0003	 9.04477093356746E-0002	
 1.93650000000000E+0003	 9.03770919227392E-0002	
 1.93850000000000E+0003	 9.03044745098039E-0002	
 1.94050000000000E+0003	 9.02008570968686E-0002	
 1.94250000000000E+0003	 9.00987396839333E-0002	
 1.94450000000000E+0003	 9.00721222709980E-0002	
 1.94650000000000E+0003	 9.00680048580626E-0002	
 1.94850000000000E+0003	 9.00368874451273E-0002	
 1.95050000000000E+0003	 8.99982700321920E-0002	
 1.95250000000000E+0003	 8.99201526192567E-0002	
 1.95450000000000E+0003	 8.98625352063213E-0002	
 1.95650000000000E+0003	 8.98189177933860E-0002	
 1.95850000000000E+0003	 8.97988003804507E-0002	
 1.96050000000000E+0003	 8.97766829675154E-0002	
 1.96250000000000E+0003	 8.96935655545800E-0002	
 1.96450000000000E+0003	 8.95034481416447E-0002	
 1.96650000000000E+0003	 8.93853307287094E-0002	
 1.96850000000000E+0003	 8.94442133157741E-0002	
 1.97050000000000E+0003	 8.95750959028387E-0002	
 1.97250000000000E+0003	 8.96014784899034E-0002	
 1.97450000000000E+0003	 8.95813610769681E-0002	
 1.97650000000000E+0003	 8.95577436640328E-0002	
 1.97850000000000E+0003	 8.95366262510975E-0002	
 1.98050000000000E+0003	 8.95130088381621E-0002	
 1.98250000000000E+0003	 8.94973914252268E-0002	
 1.98450000000000E+0003	 8.94382740122915E-0002	
 1.98650000000000E+0003	 8.94516565993562E-0002	
 1.98850000000000E+0003	 8.94365391864208E-0002	
 1.99050000000000E+0003	 8.94089217734855E-0002	
 1.99250000000000E+0003	 8.93933043605502E-0002	
 1.99450000000000E+0003	 8.94256869476149E-0002	
 1.99650000000000E+0003	 8.94375695346795E-0002	
 1.99850000000000E+0003	 8.94474521217442E-0002	
 2.00050000000000E+0003	 8.94433347088089E-0002	
 2.00250000000000E+0003	 8.94502172958736E-0002	
 2.00450000000000E+0003	 8.94545998829383E-0002	
 2.00650000000000E+0003	 8.94624824700029E-0002	
 2.00850000000000E+0003	 8.94743650570676E-0002	
 2.01050000000000E+0003	 8.95032476441323E-0002	
 2.01250000000000E+0003	 8.94816302311970E-0002	
 2.01450000000000E+0003	 8.93820128182616E-0002	
 2.01650000000000E+0003	 8.93263954053263E-0002	
 2.01850000000000E+0003	 8.94272779923910E-0002	
 2.02050000000000E+0003	 8.95756605794557E-0002	
 2.02250000000000E+0003	 8.96550431665203E-0002	
 2.02450000000000E+0003	 8.96994257535850E-0002	
 2.02650000000000E+0003	 8.97428083406497E-0002	
 2.02850000000000E+0003	 8.97846909277144E-0002	
 2.03050000000000E+0003	 8.98250735147790E-0002	
 2.03250000000000E+0003	 8.98529561018437E-0002	
 2.03450000000000E+0003	 8.98843386889084E-0002	
 2.03650000000000E+0003	 8.99007212759731E-0002	
 2.03850000000000E+0003	 8.98836038630378E-0002	
 2.04050000000000E+0003	 8.98689864501024E-0002	
 2.04250000000000E+0003	 8.99233690371671E-0002	
 2.04450000000000E+0003	 9.00052516242318E-0002	
 2.04650000000000E+0003	 9.00581342112965E-0002	
 2.04850000000000E+0003	 9.00990167983611E-0002	
 2.05050000000000E+0003	 9.01338993854258E-0002	
 2.05250000000000E+0003	 9.01547819724905E-0002	
 2.05450000000000E+0003	 9.01731645595552E-0002	
 2.05650000000000E+0003	 9.01870471466198E-0002	
 2.05850000000000E+0003	 9.02034297336845E-0002	
 2.06050000000000E+0003	 9.01958123207492E-0002	
 2.06250000000000E+0003	 9.01421949078139E-0002	
 2.06450000000000E+0003	 9.01145774948785E-0002	
 2.06650000000000E+0003	 9.01794600819432E-0002	
 2.06850000000000E+0003	 9.02648426690079E-0002	
 2.07050000000000E+0003	 9.02862252560726E-0002	
 2.07250000000000E+0003	 9.02811078431373E-0002	
 2.07450000000000E+0003	 9.02824904302019E-0002	
 2.07650000000000E+0003	 9.02848730172666E-0002	
 2.07850000000000E+0003	 9.02992556043313E-0002	
 2.08050000000000E+0003	 9.03111381913960E-0002	
 2.08250000000000E+0003	 9.03140207784606E-0002	
 2.08450000000000E+0003	 9.03089033655253E-0002	
 2.08650000000000E+0003	 9.02812859525900E-0002	
 2.08850000000000E+0003	 9.02501685396547E-0002	
 2.09050000000000E+0003	 9.02580511267193E-0002	
 2.09250000000000E+0003	 9.02904337137840E-0002	
 2.09450000000000E+0003	 9.03088163008487E-0002	
 2.09650000000000E+0003	 9.03046988879134E-0002	
 2.09850000000000E+0003	 9.03010814749781E-0002	
 2.10050000000000E+0003	 9.02904640620427E-0002	
 2.10250000000000E+0003	 9.02828466491074E-0002	
 2.10450000000000E+0003	 9.02742292361721E-0002	
 2.10650000000000E+0003	 9.02691118232368E-0002	
 2.10850000000000E+0003	 9.02534944103014E-0002	
 2.11050000000000E+0003	 9.02278769973661E-0002	
 2.11250000000000E+0003	 9.01932595844308E-0002	
 2.11450000000000E+0003	 9.01716421714955E-0002	
 2.11650000000000E+0003	 9.01655247585601E-0002	
 2.11850000000000E+0003	 9.01599073456248E-0002	
 2.12050000000000E+0003	 9.01372899326895E-0002	
 2.12250000000000E+0003	 9.01146725197542E-0002	
 2.12450000000000E+0003	 9.00865551068188E-0002	
 2.12650000000000E+0003	 9.00614376938835E-0002	
 2.12850000000000E+0003	 9.00293202809482E-0002	
 2.13050000000000E+0003	 8.99957028680129E-0002	
 2.13250000000000E+0003	 8.99545854550776E-0002	
 2.13450000000000E+0003	 8.99079680421422E-0002	
 2.13650000000000E+0003	 8.98633506292069E-0002	
 2.13850000000000E+0003	 8.98287332162716E-0002	
 2.14050000000000E+0003	 8.97926158033363E-0002	
 2.14250000000000E+0003	 8.97604983904009E-0002	
 2.14450000000000E+0003	 8.97128809774656E-0002	
 2.14650000000000E+0003	 8.96612635645303E-0002	
 2.14850000000000E+0003	 8.96141461515950E-0002	
 2.15050000000000E+0003	 8.95765287386596E-0002	
 2.15250000000000E+0003	 8.95309113257243E-0002	
 2.15450000000000E+0003	 8.94797939127890E-0002	
 2.15650000000000E+0003	 8.94226764998537E-0002	
 2.15850000000000E+0003	 8.93655590869183E-0002	
 2.16050000000000E+0003	 8.93019416739830E-0002	
 2.16250000000000E+0003	 8.92513242610477E-0002	
 2.16450000000000E+0003	 8.92007068481124E-0002	
 2.16650000000000E+0003	 8.91495894351771E-0002	
 2.16850000000000E+0003	 8.91069720222417E-0002	
 2.17050000000000E+0003	 8.90588546093064E-0002	
 2.17250000000000E+0003	 8.89822371963711E-0002	
 2.17450000000000E+0003	 8.89046197834358E-0002	
 2.17650000000000E+0003	 8.88350023705004E-0002	
 2.17850000000000E+0003	 8.87758849575651E-0002	
 2.18050000000000E+0003	 8.87127675446298E-0002	
 2.18250000000000E+0003	 8.86506501316945E-0002	
 2.18450000000000E+0003	 8.85755327187591E-0002	
 2.18650000000000E+0003	 8.85089153058238E-0002	
 2.18850000000000E+0003	 8.84437978928885E-0002	
 2.19050000000000E+0003	 8.83801804799532E-0002	
 2.19250000000000E+0003	 8.83185630670179E-0002	
 2.19450000000000E+0003	 8.82514456540825E-0002	
 2.19650000000000E+0003	 8.81808282411472E-0002	
 2.19850000000000E+0003	 8.81162108282119E-0002	
 2.20050000000000E+0003	 8.80480934152766E-0002	
 2.20250000000000E+0003	 8.79749760023412E-0002	
 2.20450000000000E+0003	 8.79048585894059E-0002	
 2.20650000000000E+0003	 8.78472411764706E-0002	
 2.20850000000000E+0003	 8.77891237635353E-0002	
 2.21050000000000E+0003	 8.77310063505999E-0002	
 2.21250000000000E+0003	 8.76653889376646E-0002	
 2.21450000000000E+0003	 8.76032715247293E-0002	
 2.21650000000000E+0003	 8.75451541117940E-0002	
 2.21850000000000E+0003	 8.74860366988586E-0002	
 2.22050000000000E+0003	 8.74284192859233E-0002	
 2.22250000000000E+0003	 8.73683018729880E-0002	
 2.22450000000000E+0003	 8.73061844600527E-0002	
 2.22650000000000E+0003	 8.72530670471174E-0002	
 2.22850000000000E+0003	 8.71999496341820E-0002	
 2.23050000000000E+0003	 8.71508322212467E-0002	
 2.23250000000000E+0003	 8.71112148083114E-0002	
 2.23450000000000E+0003	 8.70735973953761E-0002	
 2.23650000000000E+0003	 8.70319799824407E-0002	
 2.23850000000000E+0003	 8.69928625695054E-0002	
 2.24050000000000E+0003	 8.69547451565701E-0002	
 2.24250000000000E+0003	 8.69196277436348E-0002	
 2.24450000000000E+0003	 8.68905103306994E-0002	
 2.24650000000000E+0003	 8.68663929177641E-0002	
 2.24850000000000E+0003	 8.68367755048288E-0002	
 2.25050000000000E+0003	 8.68066580918935E-0002	
 2.25250000000000E+0003	 8.67750406789582E-0002	
 2.25450000000000E+0003	 8.67504232660228E-0002	
 2.25650000000000E+0003	 8.67283058530875E-0002	
 2.25850000000000E+0003	 8.67056884401522E-0002	
 2.26050000000000E+0003	 8.66815710272169E-0002	
 2.26250000000000E+0003	 8.66579536142815E-0002	
 2.26450000000000E+0003	 8.66408362013462E-0002	
 2.26650000000000E+0003	 8.66247187884109E-0002	
 2.26850000000000E+0003	 8.66031013754756E-0002	
 2.27050000000000E+0003	 8.65824839625402E-0002	
 2.27250000000000E+0003	 8.65608665496049E-0002	
 2.27450000000000E+0003	 8.65397491366696E-0002	
 2.27650000000000E+0003	 8.65196317237343E-0002	
 2.27850000000000E+0003	 8.65040143107989E-0002	
 2.28050000000000E+0003	 8.64908968978636E-0002	
 2.28250000000000E+0003	 8.64747794849283E-0002	
 2.28450000000000E+0003	 8.64646620719930E-0002	
 2.28650000000000E+0003	 8.64675446590577E-0002	
 2.28850000000000E+0003	 8.64779272461223E-0002	
 2.29050000000000E+0003	 8.64903098331870E-0002	
 2.29250000000000E+0003	 8.65041924202517E-0002	
 2.29450000000000E+0003	 8.65190750073164E-0002	
 2.29650000000000E+0003	 8.65349575943810E-0002	
 2.29850000000000E+0003	 8.65558401814457E-0002	
 2.30050000000000E+0003	 8.65817227685104E-0002	
 2.30250000000000E+0003	 8.65991053555751E-0002	
 2.30450000000000E+0003	 8.66209879426397E-0002	
 2.30650000000000E+0003	 8.66598705297044E-0002	
 2.30850000000000E+0003	 8.66992531167691E-0002	
 2.31050000000000E+0003	 8.67271357038338E-0002	
 2.31250000000000E+0003	 8.67440182908984E-0002	
 2.31450000000000E+0003	 8.67579008779631E-0002	
 2.31650000000000E+0003	 8.67827834650278E-0002	
 2.31850000000000E+0003	 8.68246660520925E-0002	
 2.32050000000000E+0003	 8.68765486391572E-0002	
 2.32250000000000E+0003	 8.69159312262218E-0002	
 2.32450000000000E+0003	 8.69323138132865E-0002	
 2.32650000000000E+0003	 8.69311964003512E-0002	
 2.32850000000000E+0003	 8.69255789874159E-0002	
 2.33050000000000E+0003	 8.69304615744805E-0002	
 2.33250000000000E+0003	 8.69478441615452E-0002	
 2.33450000000000E+0003	 8.70022267486099E-0002	
 2.33650000000000E+0003	 8.70941093356746E-0002	
 2.33850000000000E+0003	 8.71559919227392E-0002	
 2.34050000000000E+0003	 8.71923745098039E-0002	
 2.34250000000000E+0003	 8.72017570968686E-0002	
 2.34450000000000E+0003	 8.71611396839333E-0002	
 2.34650000000000E+0003	 8.71140222709980E-0002	
 2.34850000000000E+0003	 8.71334048580626E-0002	
 2.35050000000000E+0003	 8.71342874451273E-0002	
 2.35250000000000E+0003	 8.71041700321920E-0002	
 2.35450000000000E+0003	 8.71260526192567E-0002	
 2.35650000000000E+0003	 8.71959352063213E-0002	
 2.35850000000000E+0003	 8.72463177933860E-0002	
 2.36050000000000E+0003	 8.72712003804507E-0002	
 2.36250000000000E+0003	 8.72705829675154E-0002	
 2.36450000000000E+0003	 8.72969655545800E-0002	
 2.36650000000000E+0003	 8.73328481416447E-0002	
 2.36850000000000E+0003	 8.73517307287094E-0002	
 2.37050000000000E+0003	 8.73791133157741E-0002	
 2.37250000000000E+0003	 8.74139959028387E-0002	
 2.37450000000000E+0003	 8.74413784899034E-0002	
 2.37650000000000E+0003	 8.74807610769681E-0002	
 2.37850000000000E+0003	 8.75346436640328E-0002	
 2.38050000000000E+0003	 8.75875262510975E-0002	
 2.38250000000000E+0003	 8.76124088381621E-0002	
 2.38450000000000E+0003	 8.76252914252268E-0002	
 2.38650000000000E+0003	 8.76501740122915E-0002	
 2.38850000000000E+0003	 8.76915565993562E-0002	
 2.39050000000000E+0003	 8.77419391864208E-0002	
 2.39250000000000E+0003	 8.78028217734855E-0002	
 2.39450000000000E+0003	 8.78732043605502E-0002	
 2.39650000000000E+0003	 8.79455869476149E-0002	
 2.39850000000000E+0003	 8.80199695346795E-0002	
 2.40050000000000E+0003	 8.81018521217442E-0002	
 2.40250000000000E+0003	 8.81817347088089E-0002	
 2.40450000000000E+0003	 8.82656172958736E-0002	
 2.40650000000000E+0003	 8.83569998829383E-0002	
 2.40850000000000E+0003	 8.84468824700029E-0002	
 2.41050000000000E+0003	 8.85412650570676E-0002	
 2.41250000000000E+0003	 8.86436476441323E-0002	
 2.41450000000000E+0003	 8.87440302311970E-0002	
 2.41650000000000E+0003	 8.88389128182616E-0002	
 2.41850000000000E+0003	 8.89357954053263E-0002	
 2.42050000000000E+0003	 8.90386779923910E-0002	
 2.42250000000000E+0003	 8.91490605794557E-0002	
 2.42450000000000E+0003	 8.92679431665203E-0002	
 2.42650000000000E+0003	 8.93868257535850E-0002	
 2.42850000000000E+0003	 8.95077083406497E-0002	
 2.43050000000000E+0003	 8.96275909277144E-0002	
 2.43250000000000E+0003	 8.97474735147790E-0002	
 2.43450000000000E+0003	 8.98718561018437E-0002	
 2.43650000000000E+0003	 9.00042386889084E-0002	
 2.43850000000000E+0003	 9.01411212759731E-0002	
 2.44050000000000E+0003	 9.02795038630378E-0002	
 2.44250000000000E+0003	 9.04173864501024E-0002	
 2.44450000000000E+0003	 9.05527690371671E-0002	
 2.44650000000000E+0003	 9.06836516242318E-0002	
 2.44850000000000E+0003	 9.08250342112965E-0002	
 2.45050000000000E+0003	 9.09719167983611E-0002	
 2.45250000000000E+0003	 9.11222993854258E-0002	
 2.45450000000000E+0003	 9.12711819724905E-0002	
 2.45650000000000E+0003	 9.14185645595552E-0002	
 2.45850000000000E+0003	 9.15699471466198E-0002	
 2.46050000000000E+0003	 9.17323297336845E-0002	
 2.46250000000000E+0003	 9.19017123207492E-0002	
 2.46450000000000E+0003	 9.20705949078139E-0002	
 2.46650000000000E+0003	 9.22374774948785E-0002	
 2.46850000000000E+0003	 9.24048600819432E-0002	
 2.47050000000000E+0003	 9.25792426690079E-0002	
 2.47250000000000E+0003	 9.27611252560726E-0002	
 2.47450000000000E+0003	 9.29355078431373E-0002	
 2.47650000000000E+0003	 9.31083904302019E-0002	
 2.47850000000000E+0003	 9.32902730172666E-0002	
 2.48050000000000E+0003	 9.34731556043313E-0002	
 2.48250000000000E+0003	 9.36515381913960E-0002	
 2.48450000000000E+0003	 9.38314207784606E-0002	
 2.48650000000000E+0003	 9.40158033655253E-0002	
 2.48850000000000E+0003	 9.42016859525900E-0002	
 2.49050000000000E+0003	 9.43840685396547E-0002	
 2.49250000000000E+0003	 9.45679511267193E-0002	
 2.49450000000000E+0003	 9.47548337137840E-0002	
 2.49650000000000E+0003	 9.49417163008487E-0002	
 2.49850000000000E+0003	 9.51290988879134E-0002	
 2.50050000000000E+0003	 9.53184814749781E-0002	
 2.50250000000000E+0003	 9.55063640620427E-0002	
 2.50450000000000E+0003	 9.56962466491074E-0002	
 2.50650000000000E+0003	 9.58941292361721E-0002	
 2.50850000000000E+0003	 9.60925118232368E-0002	
 2.51050000000000E+0003	 9.62843944103014E-0002	
 2.51250000000000E+0003	 9.64752769973661E-0002	
 2.51450000000000E+0003	 9.66686595844308E-0002	
 2.51650000000000E+0003	 9.68650421714955E-0002	
 2.51850000000000E+0003	 9.70594247585601E-0002	
 2.52050000000000E+0003	 9.72518073456248E-0002	
 2.52250000000000E+0003	 9.74416899326895E-0002	
 2.52450000000000E+0003	 9.76240725197542E-0002	
 2.52650000000000E+0003	 9.78034551068188E-0002	
 2.52850000000000E+0003	 9.79778376938835E-0002	
 2.53050000000000E+0003	 9.81512202809482E-0002	
 2.53250000000000E+0003	 9.83236028680129E-0002	
 2.53450000000000E+0003	 9.84899854550776E-0002	
 2.53650000000000E+0003	 9.86503680421422E-0002	
 2.53850000000000E+0003	 9.88072506292069E-0002	
 2.54050000000000E+0003	 9.89626332162716E-0002	
 2.54250000000000E+0003	 9.91135158033363E-0002	
 2.54450000000000E+0003	 9.92558983904009E-0002	
 2.54650000000000E+0003	 9.93917809774656E-0002	
 2.54850000000000E+0003	 9.95261635645303E-0002	
 2.55050000000000E+0003	 9.96575461515950E-0002	
 2.55250000000000E+0003	 9.97904287386596E-0002	
 2.55450000000000E+0003	 9.99213113257243E-0002	
 2.55650000000000E+0003	 1.00044193912789E-0001	
 2.55850000000000E+0003	 1.00164076499854E-0001	
 2.56050000000000E+0003	 1.00285959086918E-0001	
 2.56250000000000E+0003	 1.00403841673983E-0001	
 2.56450000000000E+0003	 1.00519224261048E-0001	
 2.56650000000000E+0003	 1.00634606848112E-0001	
 2.56850000000000E+0003	 1.00756489435177E-0001	
 2.57050000000000E+0003	 1.00888872022242E-0001	
 2.57250000000000E+0003	 1.01025254609306E-0001	
 2.57450000000000E+0003	 1.01167137196371E-0001	
 2.57650000000000E+0003	 1.01312519783436E-0001	
 2.57850000000000E+0003	 1.01459902370500E-0001	
 2.58050000000000E+0003	 1.01618784957565E-0001	
 2.58250000000000E+0003	 1.01788667544630E-0001	
 2.58450000000000E+0003	 1.01972050131694E-0001	
 2.58650000000000E+0003	 1.02159432718759E-0001	
 2.58850000000000E+0003	 1.02353315305824E-0001	
 2.59050000000000E+0003	 1.02552197892888E-0001	
 2.59250000000000E+0003	 1.02758080479953E-0001	
 2.59450000000000E+0003	 1.02971963067018E-0001	
 2.59650000000000E+0003	 1.03190845654083E-0001	
 2.59850000000000E+0003	 1.03413228241147E-0001	
 2.60050000000000E+0003	 1.03637610828212E-0001	
 2.60250000000000E+0003	 1.03862993415277E-0001	
 2.60450000000000E+0003	 1.04088876002341E-0001	
 2.60650000000000E+0003	 1.04314258589406E-0001	
 2.60850000000000E+0003	 1.04543141176471E-0001	
 2.61050000000000E+0003	 1.04771023763535E-0001	
 2.61250000000000E+0003	 1.05000406350600E-0001	
 2.61450000000000E+0003	 1.05224288937665E-0001	
 2.61650000000000E+0003	 1.05447171524729E-0001	
 2.61850000000000E+0003	 1.05669554111794E-0001	
 2.62050000000000E+0003	 1.05897936698859E-0001	
 2.62250000000000E+0003	 1.06124319285923E-0001	
 2.62450000000000E+0003	 1.06348201872988E-0001	
 2.62650000000000E+0003	 1.06572584460053E-0001	
 2.62850000000000E+0003	 1.06797467047117E-0001	
 2.63050000000000E+0003	 1.07024349634182E-0001	
 2.63250000000000E+0003	 1.07251232221247E-0001	
 2.63450000000000E+0003	 1.07475114808311E-0001	
 2.63650000000000E+0003	 1.07707997395376E-0001	
 2.63850000000000E+0003	 1.07938379982441E-0001	
 2.64050000000000E+0003	 1.08160262569505E-0001	
 2.64250000000000E+0003	 1.08375645156570E-0001	
 2.64450000000000E+0003	 1.08593027743635E-0001	
 2.64650000000000E+0003	 1.08805410330699E-0001	
 2.64850000000000E+0003	 1.09024292917764E-0001	
 2.65050000000000E+0003	 1.09252675504829E-0001	
 2.65250000000000E+0003	 1.09483558091893E-0001	
 2.65450000000000E+0003	 1.09714440678958E-0001	
 2.65650000000000E+0003	 1.09944323266023E-0001	
 2.65850000000000E+0003	 1.10172705853088E-0001	
 2.66050000000000E+0003	 1.10405588440152E-0001	
 2.66250000000000E+0003	 1.10635971027217E-0001	
 2.66450000000000E+0003	 1.10870353614282E-0001	
 2.66650000000000E+0003	 1.11108736201346E-0001	
 2.66850000000000E+0003	 1.11349118788411E-0001	
 2.67050000000000E+0003	 1.11593001375476E-0001	
 2.67250000000000E+0003	 1.11839383962540E-0001	
 2.67450000000000E+0003	 1.12084766549605E-0001	
 2.67650000000000E+0003	 1.12333649136670E-0001	
 2.67850000000000E+0003	 1.12586531723734E-0001	
 2.68050000000000E+0003	 1.12835914310799E-0001	
 2.68250000000000E+0003	 1.13072796897864E-0001	
 2.68450000000000E+0003	 1.13305679484928E-0001	
 2.68650000000000E+0003	 1.13542562071993E-0001	
 2.68850000000000E+0003	 1.13784944659058E-0001	
 2.69050000000000E+0003	 1.14034827246122E-0001	
 2.69250000000000E+0003	 1.14287709833187E-0001	
 2.69450000000000E+0003	 1.14537092420252E-0001	
 2.69650000000000E+0003	 1.14792975007316E-0001	
 2.69850000000000E+0003	 1.15060857594381E-0001	
 2.70050000000000E+0003	 1.15333240181446E-0001	
 2.70250000000000E+0003	 1.15609122768510E-0001	
 2.70450000000000E+0003	 1.15891005355575E-0001	
 2.70650000000000E+0003	 1.16182387942640E-0001	
 2.70850000000000E+0003	 1.16489770529704E-0001	
 2.71050000000000E+0003	 1.16808653116769E-0001	
 2.71250000000000E+0003	 1.17122535703834E-0001	
 2.71450000000000E+0003	 1.17442418290898E-0001	
 2.71650000000000E+0003	 1.17777300877963E-0001	
 2.71850000000000E+0003	 1.18121683465028E-0001	
 2.72050000000000E+0003	 1.18479066052092E-0001	
 2.72250000000000E+0003	 1.18833448639157E-0001	
 2.72450000000000E+0003	 1.19180331226222E-0001	
 2.72650000000000E+0003	 1.19524213813287E-0001	
 2.72850000000000E+0003	 1.19832096400351E-0001	
 2.73050000000000E+0003	 1.20128478987416E-0001	
 2.73250000000000E+0003	 1.20438861574481E-0001	
 2.73450000000000E+0003	 1.20748744161545E-0001	
 2.73650000000000E+0003	 1.21051626748610E-0001	
 2.73850000000000E+0003	 1.21341509335675E-0001	
 2.74050000000000E+0003	 1.21620891922739E-0001	
 2.74250000000000E+0003	 1.21893774509804E-0001	
 2.74450000000000E+0003	 1.22159657096869E-0001	
 2.74650000000000E+0003	 1.22440539683933E-0001	
 2.74850000000000E+0003	 1.22730922270998E-0001	
 2.75050000000000E+0003	 1.22994804858063E-0001	
 2.75250000000000E+0003	 1.23237187445127E-0001	
 2.75450000000000E+0003	 1.23489070032192E-0001	
 2.75650000000000E+0003	 1.23764452619257E-0001	
 2.75850000000000E+0003	 1.24049335206321E-0001	
 2.76050000000000E+0003	 1.24331217793386E-0001	
 2.76250000000000E+0003	 1.24618600380451E-0001	
 2.76450000000000E+0003	 1.24919482967515E-0001	
 2.76650000000000E+0003	 1.25224365554580E-0001	
 2.76850000000000E+0003	 1.25530248141645E-0001	
 2.77050000000000E+0003	 1.25844130728709E-0001	
 2.77250000000000E+0003	 1.26179513315774E-0001	
 2.77450000000000E+0003	 1.26534895902839E-0001	
 2.77650000000000E+0003	 1.26864278489903E-0001	
 2.77850000000000E+0003	 1.27176661076968E-0001	
 2.78050000000000E+0003	 1.27524543664033E-0001	
 2.78250000000000E+0003	 1.27899426251097E-0001	
 2.78450000000000E+0003	 1.28276308838162E-0001	
 2.78650000000000E+0003	 1.28665691425227E-0001	
 2.78850000000000E+0003	 1.29090574012291E-0001	
 2.79050000000000E+0003	 1.29509956599356E-0001	
 2.79250000000000E+0003	 1.29903339186421E-0001	
 2.79450000000000E+0003	 1.30305221773486E-0001	
 2.79650000000000E+0003	 1.30737104360550E-0001	
 2.79850000000000E+0003	 1.31179486947615E-0001	
 2.80050000000000E+0003	 1.31598369534680E-0001	
 2.80250000000000E+0003	 1.32015752121744E-0001	
 2.80450000000000E+0003	 1.32459634708809E-0001	
 2.80650000000000E+0003	 1.32915517295874E-0001	
 2.80850000000000E+0003	 1.33388399882938E-0001	
 2.81050000000000E+0003	 1.33873782470003E-0001	
 2.81250000000000E+0003	 1.34340665057068E-0001	
 2.81450000000000E+0003	 1.34814547644132E-0001	
 2.81650000000000E+0003	 1.35308430231197E-0001	
 2.81850000000000E+0003	 1.35815312818262E-0001	
 2.82050000000000E+0003	 1.36336695405326E-0001	
 2.82250000000000E+0003	 1.36870577992391E-0001	
 2.82450000000000E+0003	 1.37414460579456E-0001	
 2.82650000000000E+0003	 1.37979343166520E-0001	
 2.82850000000000E+0003	 1.38576725753585E-0001	
 2.83050000000000E+0003	 1.39207608340650E-0001	
 2.83250000000000E+0003	 1.39878490927714E-0001	
 2.83450000000000E+0003	 1.40607373514779E-0001	
 2.83650000000000E+0003	 1.41410756101844E-0001	
 2.83850000000000E+0003	 1.42311138688908E-0001	
 2.84050000000000E+0003	 1.43257521275973E-0001	
 2.84250000000000E+0003	 1.44336903863038E-0001	
 2.84450000000000E+0003	 1.45716786450102E-0001	
 2.84650000000000E+0003	 1.47422669037167E-0001	
 2.84850000000000E+0003	 1.49338051624232E-0001	
 2.85050000000000E+0003	 1.51246434211296E-0001	
 2.85250000000000E+0003	 1.52933816798361E-0001	
 2.85450000000000E+0003	 1.54205199385426E-0001	
 2.85650000000000E+0003	 1.55021081972490E-0001	
 2.85850000000000E+0003	 1.55559464559555E-0001	
 2.86050000000000E+0003	 1.56022847146620E-0001	
 2.86250000000000E+0003	 1.56563229733685E-0001	
 2.86450000000000E+0003	 1.57330612320749E-0001	
 2.86650000000000E+0003	 1.58343494907814E-0001	
 2.86850000000000E+0003	 1.59504877494879E-0001	
 2.87050000000000E+0003	 1.60726760081943E-0001	
 2.87250000000000E+0003	 1.61892142669008E-0001	
 2.87450000000000E+0003	 1.62758025256073E-0001	
 2.87650000000000E+0003	 1.63240907843137E-0001	
 2.87850000000000E+0003	 1.63542290430202E-0001	
 2.88050000000000E+0003	 1.63791173017267E-0001	
 2.88250000000000E+0003	 1.64049055604331E-0001	
 2.88450000000000E+0003	 1.64374938191396E-0001	
 2.88650000000000E+0003	 1.64801820778461E-0001	
 2.88850000000000E+0003	 1.65331703365525E-0001	
 2.89050000000000E+0003	 1.65953085952590E-0001	
 2.89250000000000E+0003	 1.66656468539655E-0001	
 2.89450000000000E+0003	 1.67449851126719E-0001	
 2.89650000000000E+0003	 1.68285233713784E-0001	
 2.89850000000000E+0003	 1.69106116300849E-0001	
 2.90050000000000E+0003	 1.69977998887913E-0001	
 2.90250000000000E+0003	 1.70951881474978E-0001	
 2.90450000000000E+0003	 1.72025264062043E-0001	
 2.90650000000000E+0003	 1.73215146649107E-0001	
 2.90850000000000E+0003	 1.74578029236172E-0001	
 2.91050000000000E+0003	 1.76178911823237E-0001	
 2.91250000000000E+0003	 1.78053794410301E-0001	
 2.91450000000000E+0003	 1.80104676997366E-0001	
 2.91650000000000E+0003	 1.82220559584431E-0001	
 2.91850000000000E+0003	 1.84361442171495E-0001	
 2.92050000000000E+0003	 1.86407324758560E-0001	
 2.92250000000000E+0003	 1.88260707345625E-0001	
 2.92450000000000E+0003	 1.89827089932689E-0001	
 2.92650000000000E+0003	 1.91056972519754E-0001	
 2.92850000000000E+0003	 1.91990355106819E-0001	
 2.93050000000000E+0003	 1.92569237693884E-0001	
 2.93250000000000E+0003	 1.92749620280948E-0001	
 2.93450000000000E+0003	 1.92669002868013E-0001	
 2.93650000000000E+0003	 1.92363885455078E-0001	
 2.93850000000000E+0003	 1.91808268042142E-0001	
 2.94050000000000E+0003	 1.91068150629207E-0001	
 2.94250000000000E+0003	 1.90302533216272E-0001	
 2.94450000000000E+0003	 1.89565915803336E-0001	
 2.94650000000000E+0003	 1.88878798390401E-0001	
 2.94850000000000E+0003	 1.88341180977466E-0001	
 2.95050000000000E+0003	 1.88114563564530E-0001	
 2.95250000000000E+0003	 1.88220946151595E-0001	
 2.95450000000000E+0003	 1.88431828738660E-0001	
 2.95650000000000E+0003	 1.88643211325724E-0001	
 2.95850000000000E+0003	 1.88780593912789E-0001	
 2.96050000000000E+0003	 1.88708476499854E-0001	
 2.96250000000000E+0003	 1.88337859086918E-0001	
 2.96450000000000E+0003	 1.87615741673983E-0001	
 2.96650000000000E+0003	 1.86596624261048E-0001	
 2.96850000000000E+0003	 1.85382506848112E-0001	
 2.97050000000000E+0003	 1.84076889435177E-0001	
 2.97250000000000E+0003	 1.82796272022242E-0001	
 2.97450000000000E+0003	 1.81577654609306E-0001	
 2.97650000000000E+0003	 1.80405037196371E-0001	
 2.97850000000000E+0003	 1.79341919783436E-0001	
 2.98050000000000E+0003	 1.78364802370500E-0001	
 2.98250000000000E+0003	 1.77369684957565E-0001	
 2.98450000000000E+0003	 1.76393567544630E-0001	
 2.98650000000000E+0003	 1.75521450131694E-0001	
 2.98850000000000E+0003	 1.74758832718759E-0001	
 2.99050000000000E+0003	 1.74126715305824E-0001	
 2.99250000000000E+0003	 1.73599097892888E-0001	
 2.99450000000000E+0003	 1.73087480479953E-0001	
 2.99650000000000E+0003	 1.72698363067018E-0001	
 2.99850000000000E+0003	 1.72461245654083E-0001	
 3.00050000000000E+0003	 1.72305128241147E-0001	
 3.00250000000000E+0003	 1.72289510828212E-0001	
 3.00450000000000E+0003	 1.72402893415277E-0001	
 3.00650000000000E+0003	 1.72605776002341E-0001	
 3.00850000000000E+0003	 1.72946658589406E-0001	
 3.01050000000000E+0003	 1.73464541176471E-0001	
 3.01250000000000E+0003	 1.74059423763535E-0001	
 3.01450000000000E+0003	 1.74619306350600E-0001	
 3.01650000000000E+0003	 1.75149688937665E-0001	
 3.01850000000000E+0003	 1.75739571524729E-0001	
 3.02050000000000E+0003	 1.76415954111794E-0001	
 3.02250000000000E+0003	 1.77175836698859E-0001	
 3.02450000000000E+0003	 1.78041719285923E-0001	
 3.02650000000000E+0003	 1.78919601872988E-0001	
 3.02850000000000E+0003	 1.79805484460053E-0001	
 3.03050000000000E+0003	 1.80741367047117E-0001	
 3.03250000000000E+0003	 1.81713249634182E-0001	
 3.03450000000000E+0003	 1.82692132221247E-0001	
 3.03650000000000E+0003	 1.83599014808311E-0001	
 3.03850000000000E+0003	 1.84528897395376E-0001	
 3.04050000000000E+0003	 1.85599279982441E-0001	
 3.04250000000000E+0003	 1.86704162569505E-0001	
 3.04450000000000E+0003	 1.87734545156570E-0001	
 3.04650000000000E+0003	 1.88718427743635E-0001	
 3.04850000000000E+0003	 1.89733810330699E-0001	
 3.05050000000000E+0003	 1.90833192917764E-0001	
 3.05250000000000E+0003	 1.91921075504829E-0001	
 3.05450000000000E+0003	 1.92971958091893E-0001	
 3.05650000000000E+0003	 1.94015840678958E-0001	
 3.05850000000000E+0003	 1.95004223266023E-0001	
 3.06050000000000E+0003	 1.95946105853088E-0001	
 3.06250000000000E+0003	 1.96878988440152E-0001	
 3.06450000000000E+0003	 1.97791871027217E-0001	
 3.06650000000000E+0003	 1.98672253614282E-0001	
 3.06850000000000E+0003	 1.99453636201346E-0001	
 3.07050000000000E+0003	 2.00126518788411E-0001	
 3.07250000000000E+0003	 2.00785901375476E-0001	
 3.07450000000000E+0003	 2.01466283962540E-0001	
 3.07650000000000E+0003	 2.02181166549605E-0001	
 3.07850000000000E+0003	 2.02889049136670E-0001	
 3.08050000000000E+0003	 2.03492431723734E-0001	
 3.08250000000000E+0003	 2.04023314310799E-0001	
 3.08450000000000E+0003	 2.04550196897864E-0001	
 3.08650000000000E+0003	 2.05035079484928E-0001	
 3.08850000000000E+0003	 2.05507962071993E-0001	
 3.09050000000000E+0003	 2.06004844659058E-0001	
 3.09250000000000E+0003	 2.06452727246122E-0001	
 3.09450000000000E+0003	 2.06870609833187E-0001	
 3.09650000000000E+0003	 2.07325492420252E-0001	
 3.09850000000000E+0003	 2.07843875007316E-0001	
 3.10050000000000E+0003	 2.08381257594381E-0001	
 3.10250000000000E+0003	 2.08878140181446E-0001	
 3.10450000000000E+0003	 2.09393522768510E-0001	
 3.10650000000000E+0003	 2.10001405355575E-0001	
 3.10850000000000E+0003	 2.10679287942640E-0001	
 3.11050000000000E+0003	 2.11314170529704E-0001	
 3.11250000000000E+0003	 2.11966053116769E-0001	
 3.11450000000000E+0003	 2.12768435703834E-0001	
 3.11650000000000E+0003	 2.13647818290898E-0001	
 3.11850000000000E+0003	 2.14501200877963E-0001	
 3.12050000000000E+0003	 2.15320083465028E-0001	
 3.12250000000000E+0003	 2.16082466052092E-0001	
 3.12450000000000E+0003	 2.16890848639157E-0001	
 3.12650000000000E+0003	 2.17831231226222E-0001	
 3.12850000000000E+0003	 2.18858613813287E-0001	
 3.13050000000000E+0003	 2.19906996400351E-0001	
 3.13250000000000E+0003	 2.20951878987416E-0001	
 3.13450000000000E+0003	 2.22036261574481E-0001	
 3.13650000000000E+0003	 2.23217144161545E-0001	
 3.13850000000000E+0003	 2.24491526748610E-0001	
 3.14050000000000E+0003	 2.25699909335675E-0001	
 3.14250000000000E+0003	 2.26825291922739E-0001	
 3.14450000000000E+0003	 2.28013674509804E-0001	
 3.14650000000000E+0003	 2.29291057096869E-0001	
 3.14850000000000E+0003	 2.30636939683933E-0001	
 3.15050000000000E+0003	 2.32107322270998E-0001	
 3.15250000000000E+0003	 2.33614704858063E-0001	
 3.15450000000000E+0003	 2.34944087445127E-0001	
 3.15650000000000E+0003	 2.36225970032192E-0001	
 3.15850000000000E+0003	 2.37628852619257E-0001	
 3.16050000000000E+0003	 2.39103235206321E-0001	
 3.16250000000000E+0003	 2.40604617793386E-0001	
 3.16450000000000E+0003	 2.42122500380451E-0001	
 3.16650000000000E+0003	 2.43646382967515E-0001	
 3.16850000000000E+0003	 2.45173765554580E-0001	
 3.17050000000000E+0003	 2.46709148141645E-0001	
 3.17250000000000E+0003	 2.48256530728709E-0001	
 3.17450000000000E+0003	 2.49807413315774E-0001	
 3.17650000000000E+0003	 2.51348795902839E-0001	
 3.17850000000000E+0003	 2.52888678489903E-0001	
 3.18050000000000E+0003	 2.54420061076968E-0001	
 3.18250000000000E+0003	 2.55924943664033E-0001	
 3.18450000000000E+0003	 2.57415826251097E-0001	
 3.18650000000000E+0003	 2.58896708838162E-0001	
 3.18850000000000E+0003	 2.60362091425227E-0001	
 3.19050000000000E+0003	 2.61791974012291E-0001	
 3.19250000000000E+0003	 2.63185856599356E-0001	
 3.19450000000000E+0003	 2.64550739186421E-0001	
 3.19650000000000E+0003	 2.65887121773486E-0001	
 3.19850000000000E+0003	 2.67202004360550E-0001	
 3.20050000000000E+0003	 2.68500386947615E-0001	
 3.20250000000000E+0003	 2.69777269534680E-0001	
 3.20450000000000E+0003	 2.71037152121744E-0001	
 3.20650000000000E+0003	 2.72275034708809E-0001	
 3.20850000000000E+0003	 2.73480917295874E-0001	
 3.21050000000000E+0003	 2.74678799882938E-0001	
 3.21250000000000E+0003	 2.75886182470003E-0001	
 3.21450000000000E+0003	 2.77087065057068E-0001	
 3.21650000000000E+0003	 2.78275947644132E-0001	
 3.21850000000000E+0003	 2.79489330231197E-0001	
 3.22050000000000E+0003	 2.80694212818262E-0001	
 3.22250000000000E+0003	 2.81883595405326E-0001	
 3.22450000000000E+0003	 2.83100977992391E-0001	
 3.22650000000000E+0003	 2.84344860579456E-0001	
 3.22850000000000E+0003	 2.85618243166520E-0001	
 3.23050000000000E+0003	 2.86965125753585E-0001	
 3.23250000000000E+0003	 2.88414008340650E-0001	
 3.23450000000000E+0003	 2.89775390927714E-0001	
 3.23650000000000E+0003	 2.90994273514779E-0001	
 3.23850000000000E+0003	 2.92285156101844E-0001	
 3.24050000000000E+0003	 2.93672538688908E-0001	
 3.24250000000000E+0003	 2.95096921275973E-0001	
 3.24450000000000E+0003	 2.96595303863038E-0001	
 3.24650000000000E+0003	 2.98155186450102E-0001	
 3.24850000000000E+0003	 2.99652569037167E-0001	
 3.25050000000000E+0003	 3.01089451624232E-0001	
 3.25250000000000E+0003	 3.02596334211296E-0001	
 3.25450000000000E+0003	 3.04198716798361E-0001	
 3.25650000000000E+0003	 3.05797599385426E-0001	
 3.25850000000000E+0003	 3.07327481972490E-0001	
 3.26050000000000E+0003	 3.08858864559555E-0001	
 3.26250000000000E+0003	 3.10418247146620E-0001	
 3.26450000000000E+0003	 3.11980129733685E-0001	
 3.26650000000000E+0003	 3.13534012320749E-0001	
 3.26850000000000E+0003	 3.15116394907814E-0001	
 3.27050000000000E+0003	 3.16691777494879E-0001	
 3.27250000000000E+0003	 3.18103660081943E-0001	
 3.27450000000000E+0003	 3.19374042669008E-0001	
 3.27650000000000E+0003	 3.20611925256073E-0001	
 3.27850000000000E+0003	 3.21813307843137E-0001	
 3.28050000000000E+0003	 3.22978690430202E-0001	
 3.28250000000000E+0003	 3.24093573017267E-0001	
 3.28450000000000E+0003	 3.25148455604331E-0001	
 3.28650000000000E+0003	 3.26142838191396E-0001	
 3.28850000000000E+0003	 3.27080220778461E-0001	
 3.29050000000000E+0003	 3.28005103365525E-0001	
 3.29250000000000E+0003	 3.28883485952590E-0001	
 3.29450000000000E+0003	 3.29632368539655E-0001	
 3.29650000000000E+0003	 3.30288751126719E-0001	
 3.29850000000000E+0003	 3.30871133713784E-0001	
 3.30050000000000E+0003	 3.31425516300849E-0001	
 3.30250000000000E+0003	 3.32027898887913E-0001	
 3.30450000000000E+0003	 3.32703781474978E-0001	
 3.30650000000000E+0003	 3.33299164062043E-0001	
 3.30850000000000E+0003	 3.33706046649107E-0001	
 3.31050000000000E+0003	 3.34026429236172E-0001	
 3.31250000000000E+0003	 3.34367311823237E-0001	
 3.31450000000000E+0003	 3.34753694410301E-0001	
 3.31650000000000E+0003	 3.35161076997366E-0001	
 3.31850000000000E+0003	 3.35557959584431E-0001	
 3.32050000000000E+0003	 3.35956342171495E-0001	
 3.32250000000000E+0003	 3.36376224758560E-0001	
 3.32450000000000E+0003	 3.36842107345625E-0001	
 3.32650000000000E+0003	 3.37286489932689E-0001	
 3.32850000000000E+0003	 3.37665872519754E-0001	
 3.33050000000000E+0003	 3.38071755106819E-0001	
 3.33250000000000E+0003	 3.38522137693884E-0001	
 3.33450000000000E+0003	 3.39003020280948E-0001	
 3.33650000000000E+0003	 3.39550402868013E-0001	
 3.33850000000000E+0003	 3.40113785455078E-0001	
 3.34050000000000E+0003	 3.40607668042142E-0001	
 3.34250000000000E+0003	 3.41082050629207E-0001	
 3.34450000000000E+0003	 3.41577933216272E-0001	
 3.34650000000000E+0003	 3.42085815803336E-0001	
 3.34850000000000E+0003	 3.42688698390401E-0001	
 3.35050000000000E+0003	 3.43328080977466E-0001	
 3.35250000000000E+0003	 3.43836963564530E-0001	
 3.35450000000000E+0003	 3.44287346151595E-0001	
 3.35650000000000E+0003	 3.44806728738660E-0001	
 3.35850000000000E+0003	 3.45389111325724E-0001	
 3.36050000000000E+0003	 3.45988993912789E-0001	
 3.36250000000000E+0003	 3.46548876499854E-0001	
 3.36450000000000E+0003	 3.47159259086918E-0001	
 3.36650000000000E+0003	 3.47876141673983E-0001	
 3.36850000000000E+0003	 3.48579024261048E-0001	
 3.37050000000000E+0003	 3.49073406848112E-0001	
 3.37250000000000E+0003	 3.49421289435177E-0001	
 3.37450000000000E+0003	 3.49862672022242E-0001	
 3.37650000000000E+0003	 3.50406554609306E-0001	
 3.37850000000000E+0003	 3.50946937196371E-0001	
 3.38050000000000E+0003	 3.51458819783436E-0001	
 3.38250000000000E+0003	 3.51937702370500E-0001	
 3.38450000000000E+0003	 3.52414084957565E-0001	
 3.38650000000000E+0003	 3.52914967544630E-0001	
 3.38850000000000E+0003	 3.53522850131694E-0001	
 3.39050000000000E+0003	 3.54243732718759E-0001	
 3.39250000000000E+0003	 3.54805115305824E-0001	
 3.39450000000000E+0003	 3.55100997892888E-0001	
 3.39650000000000E+0003	 3.55446380479953E-0001	
 3.39850000000000E+0003	 3.56056263067018E-0001	
 3.40050000000000E+0003	 3.56702145654083E-0001	
 3.40250000000000E+0003	 3.56970528241147E-0001	
 3.40450000000000E+0003	 3.57022410828212E-0001	
 3.40650000000000E+0003	 3.57238293415277E-0001	
 3.40850000000000E+0003	 3.57606676002341E-0001	
 3.41050000000000E+0003	 3.57929558589406E-0001	
 3.41250000000000E+0003	 3.58190441176471E-0001	
 3.41450000000000E+0003	 3.58332823763535E-0001	
 3.41650000000000E+0003	 3.58395206350600E-0001	
 3.41850000000000E+0003	 3.58520588937665E-0001	
 3.42050000000000E+0003	 3.58662471524729E-0001	
 3.42250000000000E+0003	 3.58732854111794E-0001	
 3.42450000000000E+0003	 3.58790736698859E-0001	
 3.42650000000000E+0003	 3.58907119285923E-0001	
 3.42850000000000E+0003	 3.59054001872988E-0001	
 3.43050000000000E+0003	 3.59089884460053E-0001	
 3.43250000000000E+0003	 3.59058267047117E-0001	
 3.43450000000000E+0003	 3.59094649634182E-0001	
 3.43650000000000E+0003	 3.59000532221247E-0001	
 3.43850000000000E+0003	 3.58599414808311E-0001	
 3.44050000000000E+0003	 3.58125297395376E-0001	
 3.44250000000000E+0003	 3.57770679982441E-0001	
 3.44450000000000E+0003	 3.57493562569505E-0001	
 3.44650000000000E+0003	 3.57205945156570E-0001	
 3.44850000000000E+0003	 3.56840327743635E-0001	
 3.45050000000000E+0003	 3.56422710330699E-0001	
 3.45250000000000E+0003	 3.56002092917764E-0001	
 3.45450000000000E+0003	 3.55561475504829E-0001	
 3.45650000000000E+0003	 3.55122858091893E-0001	
 3.45850000000000E+0003	 3.54721240678958E-0001	
 3.46050000000000E+0003	 3.54249123266023E-0001	
 3.46250000000000E+0003	 3.53626505853088E-0001	
 3.46450000000000E+0003	 3.53112888440152E-0001	
 3.46650000000000E+0003	 3.52803271027217E-0001	
 3.46850000000000E+0003	 3.52339653614282E-0001	
 3.47050000000000E+0003	 3.51426036201346E-0001	
 3.47250000000000E+0003	 3.50354918788411E-0001	
 3.47450000000000E+0003	 3.49474801375476E-0001	
 3.47650000000000E+0003	 3.48770183962540E-0001	
 3.47850000000000E+0003	 3.48144066549605E-0001	
 3.48050000000000E+0003	 3.47351949136670E-0001	
 3.48250000000000E+0003	 3.46336331723734E-0001	
 3.48450000000000E+0003	 3.45442214310799E-0001	
 3.48650000000000E+0003	 3.44647096897864E-0001	
 3.48850000000000E+0003	 3.43709979484928E-0001	
 3.49050000000000E+0003	 3.42708362071993E-0001	
 3.49250000000000E+0003	 3.41783244659058E-0001	
 3.49450000000000E+0003	 3.40897627246122E-0001	
 3.49650000000000E+0003	 3.39980009833187E-0001	
 3.49850000000000E+0003	 3.38983892420252E-0001	
 3.50050000000000E+0003	 3.38009775007316E-0001	
 3.50250000000000E+0003	 3.37022657594381E-0001	
 3.50450000000000E+0003	 3.35815040181446E-0001	
 3.50650000000000E+0003	 3.34540422768510E-0001	
 3.50850000000000E+0003	 3.33365305355575E-0001	
 3.51050000000000E+0003	 3.32273687942640E-0001	
 3.51250000000000E+0003	 3.31282570529704E-0001	
 3.51450000000000E+0003	 3.30200953116769E-0001	
 3.51650000000000E+0003	 3.28945335703834E-0001	
 3.51850000000000E+0003	 3.27684718290898E-0001	
 3.52050000000000E+0003	 3.26550100877963E-0001	
 3.52250000000000E+0003	 3.25513483465028E-0001	
 3.52450000000000E+0003	 3.24298866052092E-0001	
 3.52650000000000E+0003	 3.22854248639157E-0001	
 3.52850000000000E+0003	 3.21451631226222E-0001	
 3.53050000000000E+0003	 3.20144013813287E-0001	
 3.53250000000000E+0003	 3.18893396400351E-0001	
 3.53450000000000E+0003	 3.17734778987416E-0001	
 3.53650000000000E+0003	 3.16485161574481E-0001	
 3.53850000000000E+0003	 3.15020544161545E-0001	
 3.54050000000000E+0003	 3.13638426748610E-0001	
 3.54250000000000E+0003	 3.12447809335675E-0001	
 3.54450000000000E+0003	 3.11163691922739E-0001	
 3.54650000000000E+0003	 3.09518574509804E-0001	
 3.54850000000000E+0003	 3.07764957096869E-0001	
 3.55050000000000E+0003	 3.06203839683933E-0001	
 3.55250000000000E+0003	 3.04620222270998E-0001	
 3.55450000000000E+0003	 3.02958604858063E-0001	
 3.55650000000000E+0003	 3.01373987445127E-0001	
 3.55850000000000E+0003	 2.99833370032192E-0001	
 3.56050000000000E+0003	 2.98268752619257E-0001	
 3.56250000000000E+0003	 2.96613135206321E-0001	
 3.56450000000000E+0003	 2.94867517793386E-0001	
 3.56650000000000E+0003	 2.93041900380451E-0001	
 3.56850000000000E+0003	 2.91254282967515E-0001	
 3.57050000000000E+0003	 2.89567165554580E-0001	
 3.57250000000000E+0003	 2.87801048141645E-0001	
 3.57450000000000E+0003	 2.85956930728709E-0001	
 3.57650000000000E+0003	 2.84123813315774E-0001	
 3.57850000000000E+0003	 2.82315695902839E-0001	
 3.58050000000000E+0003	 2.80566578489903E-0001	
 3.58250000000000E+0003	 2.78883461076968E-0001	
 3.58450000000000E+0003	 2.77185343664033E-0001	
 3.58650000000000E+0003	 2.75142726251097E-0001	
 3.58850000000000E+0003	 2.72762108838162E-0001	
 3.59050000000000E+0003	 2.70684491425227E-0001	
 3.59250000000000E+0003	 2.68817874012291E-0001	
 3.59450000000000E+0003	 2.66772256599356E-0001	
 3.59650000000000E+0003	 2.64720139186421E-0001	
 3.59850000000000E+0003	 2.62803521773486E-0001	
 3.60050000000000E+0003	 2.60801404360550E-0001	
 3.60250000000000E+0003	 2.58706786947615E-0001	
 3.60450000000000E+0003	 2.56664169534680E-0001	
 3.60650000000000E+0003	 2.54559552121744E-0001	
 3.60850000000000E+0003	 2.52311434708809E-0001	
 3.61050000000000E+0003	 2.50118817295874E-0001	
 3.61250000000000E+0003	 2.48006699882938E-0001	
 3.61450000000000E+0003	 2.45869082470003E-0001	
 3.61650000000000E+0003	 2.43808465057068E-0001	
 3.61850000000000E+0003	 2.41677847644132E-0001	
 3.62050000000000E+0003	 2.39432730231197E-0001	
 3.62250000000000E+0003	 2.37283112818262E-0001	
 3.62450000000000E+0003	 2.35210495405326E-0001	
 3.62650000000000E+0003	 2.33172377992391E-0001	
 3.62850000000000E+0003	 2.30870760579456E-0001	
 3.63050000000000E+0003	 2.28414143166520E-0001	
 3.63250000000000E+0003	 2.26340525753585E-0001	
 3.63450000000000E+0003	 2.24297908340650E-0001	
 3.63650000000000E+0003	 2.22153290927714E-0001	
 3.63850000000000E+0003	 2.20014673514779E-0001	
 3.64050000000000E+0003	 2.17889056101844E-0001	
 3.64250000000000E+0003	 2.15799438688908E-0001	
 3.64450000000000E+0003	 2.13801321275973E-0001	
 3.64650000000000E+0003	 2.11837203863038E-0001	
 3.64850000000000E+0003	 2.09791586450102E-0001	
 3.65050000000000E+0003	 2.07692469037167E-0001	
 3.65250000000000E+0003	 2.05593851624232E-0001	
 3.65450000000000E+0003	 2.03682734211296E-0001	
 3.65650000000000E+0003	 2.01816116798361E-0001	
 3.65850000000000E+0003	 2.00015999385426E-0001	
 3.66050000000000E+0003	 1.98252381972490E-0001	
 3.66250000000000E+0003	 1.96345764559555E-0001	
 3.66450000000000E+0003	 1.94497147146620E-0001	
 3.66650000000000E+0003	 1.92843029733685E-0001	
 3.66850000000000E+0003	 1.91258912320749E-0001	
 3.67050000000000E+0003	 1.89581794907814E-0001	
 3.67250000000000E+0003	 1.88085677494879E-0001	
 3.67450000000000E+0003	 1.86753060081943E-0001	
 3.67650000000000E+0003	 1.85213442669008E-0001	
 3.67850000000000E+0003	 1.83796325256073E-0001	
 3.68050000000000E+0003	 1.82520207843137E-0001	
 3.68250000000000E+0003	 1.81308590430202E-0001	
 3.68450000000000E+0003	 1.80197973017267E-0001	
 3.68650000000000E+0003	 1.79283355604331E-0001	
 3.68850000000000E+0003	 1.78393238191396E-0001	
 3.69050000000000E+0003	 1.77221120778461E-0001	
 3.69250000000000E+0003	 1.76018503365525E-0001	
 3.69450000000000E+0003	 1.75031885952590E-0001	
 3.69650000000000E+0003	 1.74144768539655E-0001	
 3.69850000000000E+0003	 1.73270151126719E-0001	
 3.70050000000000E+0003	 1.72446033713784E-0001	
 3.70250000000000E+0003	 1.71643416300849E-0001	
 3.70450000000000E+0003	 1.70891298887913E-0001	
 3.70650000000000E+0003	 1.70205181474978E-0001	
 3.70850000000000E+0003	 1.69555564062043E-0001	
 3.71050000000000E+0003	 1.68916946649107E-0001	
 3.71250000000000E+0003	 1.68293329236172E-0001	
 3.71450000000000E+0003	 1.67690711823237E-0001	
 3.71650000000000E+0003	 1.67104594410301E-0001	
 3.71850000000000E+0003	 1.66529976997366E-0001	
 3.72050000000000E+0003	 1.65989859584431E-0001	
 3.72250000000000E+0003	 1.65471242171495E-0001	
 3.72450000000000E+0003	 1.64946624758560E-0001	
 3.72650000000000E+0003	 1.64437007345625E-0001	
 3.72850000000000E+0003	 1.63970889932689E-0001	
 3.73050000000000E+0003	 1.63608772519754E-0001	
 3.73250000000000E+0003	 1.63260655106819E-0001	
 3.73450000000000E+0003	 1.62870537693884E-0001	
 3.73650000000000E+0003	 1.62520920280948E-0001	
 3.73850000000000E+0003	 1.62186302868013E-0001	
 3.74050000000000E+0003	 1.61723685455078E-0001	
 3.74250000000000E+0003	 1.61287568042142E-0001	
 3.74450000000000E+0003	 1.60854450629207E-0001	
 3.74650000000000E+0003	 1.60438833216272E-0001	
 3.74850000000000E+0003	 1.60102215803336E-0001	
 3.75050000000000E+0003	 1.59774598390401E-0001	
 3.75250000000000E+0003	 1.59483980977466E-0001	
 3.75450000000000E+0003	 1.59169863564530E-0001	
 3.75650000000000E+0003	 1.58836746151595E-0001	
 3.75850000000000E+0003	 1.58512128738660E-0001	
 3.76050000000000E+0003	 1.58198511325724E-0001	
 3.76250000000000E+0003	 1.57900893912789E-0001	
 3.76450000000000E+0003	 1.57621776499854E-0001	
 3.76650000000000E+0003	 1.57324659086918E-0001	
 3.76850000000000E+0003	 1.57070041673983E-0001	
 3.77050000000000E+0003	 1.56812924261048E-0001	
 3.77250000000000E+0003	 1.56539806848112E-0001	
 3.77450000000000E+0003	 1.56278689435177E-0001	
 3.77650000000000E+0003	 1.56063072022242E-0001	
 3.77850000000000E+0003	 1.55892454609306E-0001	
 3.78050000000000E+0003	 1.55635337196371E-0001	
 3.78250000000000E+0003	 1.55316719783436E-0001	
 3.78450000000000E+0003	 1.55040602370500E-0001	
 3.78650000000000E+0003	 1.54805484957565E-0001	
 3.78850000000000E+0003	 1.54609867544630E-0001	
 3.79050000000000E+0003	 1.54419750131694E-0001	
 3.79250000000000E+0003	 1.54186132718759E-0001	
 3.79450000000000E+0003	 1.53963515305824E-0001	
 3.79650000000000E+0003	 1.53745897892888E-0001	
 3.79850000000000E+0003	 1.53516780479953E-0001	
 3.80050000000000E+0003	 1.53353663067018E-0001	
 3.80250000000000E+0003	 1.53181045654083E-0001	
 3.80450000000000E+0003	 1.53003928241147E-0001	
 3.80650000000000E+0003	 1.52844810828212E-0001	
 3.80850000000000E+0003	 1.52667693415277E-0001	
 3.81050000000000E+0003	 1.52462576002341E-0001	
 3.81250000000000E+0003	 1.52239958589406E-0001	
 3.81450000000000E+0003	 1.52097841176471E-0001	
 3.81650000000000E+0003	 1.51985223763535E-0001	
 3.81850000000000E+0003	 1.51877606350600E-0001	
 3.82050000000000E+0003	 1.51747988937665E-0001	
 3.82250000000000E+0003	 1.51538871524729E-0001	
 3.82450000000000E+0003	 1.51345754111794E-0001	
 3.82650000000000E+0003	 1.51167636698859E-0001	
 3.82850000000000E+0003	 1.51014019285923E-0001	
 3.83050000000000E+0003	 1.50894901872988E-0001	
 3.83250000000000E+0003	 1.50787784460053E-0001	
 3.83450000000000E+0003	 1.50730667047117E-0001	
 3.83650000000000E+0003	 1.50676049634182E-0001	
 3.83850000000000E+0003	 1.50507932221247E-0001	
 3.84050000000000E+0003	 1.50297814808311E-0001	
 3.84250000000000E+0003	 1.50147697395376E-0001	
 3.84450000000000E+0003	 1.50050079982441E-0001	
 3.84650000000000E+0003	 1.49931962569505E-0001	
 3.84850000000000E+0003	 1.49753845156570E-0001	
 3.85050000000000E+0003	 1.49609727743635E-0001	
 3.85250000000000E+0003	 1.49564610330699E-0001	
 3.85450000000000E+0003	 1.49530992917764E-0001	
 3.85650000000000E+0003	 1.49449875504829E-0001	
 3.85850000000000E+0003	 1.49261258091893E-0001	
 3.86050000000000E+0003	 1.49124140678958E-0001	
 3.86250000000000E+0003	 1.49030023266023E-0001	
 3.86450000000000E+0003	 1.48957405853088E-0001	
 3.86650000000000E+0003	 1.48875288440152E-0001	
 3.86850000000000E+0003	 1.48805171027217E-0001	
 3.87050000000000E+0003	 1.48705553614282E-0001	
 3.87250000000000E+0003	 1.48622936201346E-0001	
 3.87450000000000E+0003	 1.48538818788411E-0001	
 3.87650000000000E+0003	 1.48456701375476E-0001	
 3.87850000000000E+0003	 1.48401583962540E-0001	
 3.88050000000000E+0003	 1.48308466549605E-0001	
 3.88250000000000E+0003	 1.48249849136670E-0001	
 3.88450000000000E+0003	 1.48272231723734E-0001	
 3.88650000000000E+0003	 1.48206114310799E-0001	
 3.88850000000000E+0003	 1.48084496897864E-0001	
 3.89050000000000E+0003	 1.48009879484928E-0001	
 3.89250000000000E+0003	 1.47926762071993E-0001	
 3.89450000000000E+0003	 1.47834144659058E-0001	
 3.89650000000000E+0003	 1.47769527246122E-0001	
 3.89850000000000E+0003	 1.47729409833187E-0001	
 3.90050000000000E+0003	 1.47668792420252E-0001	
 3.90250000000000E+0003	 1.47629175007316E-0001	
 3.90450000000000E+0003	 1.47584057594381E-0001	
 3.90650000000000E+0003	 1.47518940181446E-0001	
 3.90850000000000E+0003	 1.47456322768510E-0001	
 3.91050000000000E+0003	 1.47402705355575E-0001	
 3.91250000000000E+0003	 1.47354587942640E-0001	
 3.91450000000000E+0003	 1.47326470529704E-0001	
 3.91650000000000E+0003	 1.47303353116769E-0001	
 3.91850000000000E+0003	 1.47264235703834E-0001	
 3.92050000000000E+0003	 1.47218618290898E-0001	
 3.92250000000000E+0003	 1.47175000877963E-0001	
 3.92450000000000E+0003	 1.47136883465028E-0001	
 3.92650000000000E+0003	 1.47097766052092E-0001	
 3.92850000000000E+0003	 1.47070148639157E-0001	
 3.93050000000000E+0003	 1.47042031226222E-0001	
 3.93250000000000E+0003	 1.47021413813287E-0001	
 3.93450000000000E+0003	 1.47011796400351E-0001	
 3.93650000000000E+0003	 1.46983178987416E-0001	
 3.93850000000000E+0003	 1.46927061574481E-0001	
 3.94050000000000E+0003	 1.46883944161545E-0001	
 3.94250000000000E+0003	 1.46839826748610E-0001	
 3.94450000000000E+0003	 1.46794209335675E-0001	
 3.94650000000000E+0003	 1.46771091922739E-0001	
 3.94850000000000E+0003	 1.46742474509804E-0001	
 3.95050000000000E+0003	 1.46706857096869E-0001	
 3.95250000000000E+0003	 1.46677739683933E-0001	
 3.95450000000000E+0003	 1.46652122270998E-0001	
 3.95650000000000E+0003	 1.46629004858063E-0001	
 3.95850000000000E+0003	 1.46601387445127E-0001	
 3.96050000000000E+0003	 1.46568270032192E-0001	
 3.96250000000000E+0003	 1.46536652619257E-0001	
 3.96450000000000E+0003	 1.46519035206321E-0001	
 3.96650000000000E+0003	 1.46509917793386E-0001	
 3.96850000000000E+0003	 1.46490300380451E-0001	
 3.97050000000000E+0003	 1.46456682967515E-0001	
 3.97250000000000E+0003	 1.46425565554580E-0001	
 3.97450000000000E+0003	 1.46408448141645E-0001	
 3.97650000000000E+0003	 1.46402330728709E-0001	
 3.97850000000000E+0003	 1.46383713315774E-0001	
 3.98050000000000E+0003	 1.46353595902839E-0001	
 3.98250000000000E+0003	 1.46356478489903E-0001	
 3.98450000000000E+0003	 1.46369861076968E-0001	
 3.98650000000000E+0003	 1.46334743664033E-0001	
 3.98850000000000E+0003	 1.46273626251097E-0001	
 3.99050000000000E+0003	 1.46228008838162E-0001	
 3.99250000000000E+0003	 1.46205891425227E-0001	
 3.99450000000000E+0003	 1.46195774012291E-0001	
 3.99650000000000E+0003	 1.46181656599356E-0001	
 3.99850000000000E+0003	 1.46165539186421E-0001	

>1	DATALINE
