*CPCWIN*

>1	DATALINE
DATALINE
1
Operator:

Description:

Remarks:





15.9.2008
11:31


_x	_y
	
	
UNIT	UNIT
 4.50500000000000E+0002	 1.36893806405229E-0001	
 4.52500000000000E+0002	 1.37823090849673E-0001	
 4.54500000000000E+0002	 1.39197375294118E-0001	
 4.56500000000000E+0002	 1.40375159738562E-0001	
 4.58500000000000E+0002	 1.41440944183007E-0001	
 4.60500000000000E+0002	 1.42932228627451E-0001	
 4.62500000000000E+0002	 1.44514513071895E-0001	
 4.64500000000000E+0002	 1.46451297516340E-0001	
 4.66500000000000E+0002	 1.47496581960784E-0001	
 4.68500000000000E+0002	 1.48288866405229E-0001	
 4.70500000000000E+0002	 1.49833150849673E-0001	
 4.72500000000000E+0002	 1.51523935294118E-0001	
 4.74500000000000E+0002	 1.53047219738562E-0001	
 4.76500000000000E+0002	 1.54554504183007E-0001	
 4.78500000000000E+0002	 1.56330788627451E-0001	
 4.80500000000000E+0002	 1.57983573071895E-0001	
 4.82500000000000E+0002	 1.59592857516340E-0001	
 4.84500000000000E+0002	 1.61198141960784E-0001	
 4.86500000000000E+0002	 1.62747926405229E-0001	
 4.88500000000000E+0002	 1.64712210849673E-0001	
 4.90500000000000E+0002	 1.66552995294118E-0001	
 4.92500000000000E+0002	 1.68375279738562E-0001	
 4.94500000000000E+0002	 1.70503064183007E-0001	
 4.96500000000000E+0002	 1.72699848627451E-0001	
 4.98500000000000E+0002	 1.74771633071895E-0001	
 5.00500000000000E+0002	 1.76249917516340E-0001	
 5.02500000000000E+0002	 1.77788201960784E-0001	
 5.04500000000000E+0002	 1.80024486405229E-0001	
 5.06500000000000E+0002	 1.82139270849673E-0001	
 5.08500000000000E+0002	 1.83822055294118E-0001	
 5.10500000000000E+0002	 1.85468339738562E-0001	
 5.12500000000000E+0002	 1.87361124183007E-0001	
 5.14500000000000E+0002	 1.89231908627451E-0001	
 5.16500000000000E+0002	 1.90941693071895E-0001	
 5.18500000000000E+0002	 1.92980977516340E-0001	
 5.20500000000000E+0002	 1.95452761960784E-0001	
 5.22500000000000E+0002	 1.98066546405229E-0001	
 5.24500000000000E+0002	 2.00823330849673E-0001	
 5.26500000000000E+0002	 2.04966615294118E-0001	
 5.28500000000000E+0002	 2.10200899738562E-0001	
 5.30500000000000E+0002	 2.13661684183007E-0001	
 5.32500000000000E+0002	 2.13448968627451E-0001	
 5.34500000000000E+0002	 2.11143753071895E-0001	
 5.36500000000000E+0002	 2.08508537516340E-0001	
 5.38500000000000E+0002	 2.06115321960784E-0001	
 5.40500000000000E+0002	 2.04001106405229E-0001	
 5.42500000000000E+0002	 2.02133390849673E-0001	
 5.44500000000000E+0002	 2.00411175294118E-0001	
 5.46500000000000E+0002	 1.99003959738562E-0001	
 5.48500000000000E+0002	 1.97918244183007E-0001	
 5.50500000000000E+0002	 1.97161528627451E-0001	
 5.52500000000000E+0002	 1.96687813071895E-0001	
 5.54500000000000E+0002	 1.96366597516340E-0001	
 5.56500000000000E+0002	 1.96155381960784E-0001	
 5.58500000000000E+0002	 1.96117166405229E-0001	
 5.60500000000000E+0002	 1.95966450849673E-0001	
 5.62500000000000E+0002	 1.95683735294118E-0001	
 5.64500000000000E+0002	 1.95413519738562E-0001	
 5.66500000000000E+0002	 1.95226304183007E-0001	
 5.68500000000000E+0002	 1.95016088627451E-0001	
 5.70500000000000E+0002	 1.94843873071895E-0001	
 5.72500000000000E+0002	 1.94744157516340E-0001	
 5.74500000000000E+0002	 1.94581441960784E-0001	
 5.76500000000000E+0002	 1.94304226405229E-0001	
 5.78500000000000E+0002	 1.93937510849673E-0001	
 5.80500000000000E+0002	 1.93113295294118E-0001	
 5.82500000000000E+0002	 1.92213579738562E-0001	
 5.84500000000000E+0002	 1.91390364183007E-0001	
 5.86500000000000E+0002	 1.90889148627451E-0001	
 5.88500000000000E+0002	 1.90758433071895E-0001	
 5.90500000000000E+0002	 1.90754217516340E-0001	
 5.92500000000000E+0002	 1.91000001960784E-0001	
 5.94500000000000E+0002	 1.91618786405229E-0001	
 5.96500000000000E+0002	 1.92198570849673E-0001	
 5.98500000000000E+0002	 1.92551355294118E-0001	
 6.00500000000000E+0002	 1.92836639738562E-0001	
 6.02500000000000E+0002	 1.93335424183007E-0001	
 6.04500000000000E+0002	 1.93830208627451E-0001	
 6.06500000000000E+0002	 1.94364993071895E-0001	
 6.08500000000000E+0002	 1.94864777516340E-0001	
 6.10500000000000E+0002	 1.95283061960784E-0001	
 6.12500000000000E+0002	 1.95580346405229E-0001	
 6.14500000000000E+0002	 1.95676630849673E-0001	
 6.16500000000000E+0002	 1.95503415294118E-0001	
 6.18500000000000E+0002	 1.95023199738562E-0001	
 6.20500000000000E+0002	 1.94201984183007E-0001	
 6.22500000000000E+0002	 1.93409268627451E-0001	
 6.24500000000000E+0002	 1.92628053071895E-0001	
 6.26500000000000E+0002	 1.91961337516340E-0001	
 6.28500000000000E+0002	 1.91451121960784E-0001	
 6.30500000000000E+0002	 1.90973906405229E-0001	
 6.32500000000000E+0002	 1.90406690849673E-0001	
 6.34500000000000E+0002	 1.89866975294118E-0001	
 6.36500000000000E+0002	 1.89542759738562E-0001	
 6.38500000000000E+0002	 1.89371044183007E-0001	
 6.40500000000000E+0002	 1.89075828627451E-0001	
 6.42500000000000E+0002	 1.88771613071895E-0001	
 6.44500000000000E+0002	 1.88305897516340E-0001	
 6.46500000000000E+0002	 1.87744181960784E-0001	
 6.48500000000000E+0002	 1.87204466405229E-0001	
 6.50500000000000E+0002	 1.86697250849673E-0001	
 6.52500000000000E+0002	 1.86234535294118E-0001	
 6.54500000000000E+0002	 1.85966319738562E-0001	
 6.56500000000000E+0002	 1.85867104183007E-0001	
 6.58500000000000E+0002	 1.85860388627451E-0001	
 6.60500000000000E+0002	 1.85893673071895E-0001	
 6.62500000000000E+0002	 1.85844957516340E-0001	
 6.64500000000000E+0002	 1.85420741960784E-0001	
 6.66500000000000E+0002	 1.84255026405229E-0001	
 6.68500000000000E+0002	 1.83973310849673E-0001	
 6.70500000000000E+0002	 1.84206595294118E-0001	
 6.72500000000000E+0002	 1.83471379738562E-0001	
 6.74500000000000E+0002	 1.82575164183007E-0001	
 6.76500000000000E+0002	 1.81625948627451E-0001	
 6.78500000000000E+0002	 1.80720233071895E-0001	
 6.80500000000000E+0002	 1.79934517516340E-0001	
 6.82500000000000E+0002	 1.79298301960784E-0001	
 6.84500000000000E+0002	 1.78780586405229E-0001	
 6.86500000000000E+0002	 1.78326370849673E-0001	
 6.88500000000000E+0002	 1.77954155294118E-0001	
 6.90500000000000E+0002	 1.77799439738562E-0001	
 6.92500000000000E+0002	 1.77822224183007E-0001	
 6.94500000000000E+0002	 1.77947008627451E-0001	
 6.96500000000000E+0002	 1.78188793071895E-0001	
 6.98500000000000E+0002	 1.78441577516340E-0001	
 7.00500000000000E+0002	 1.78511861960784E-0001	
 7.02500000000000E+0002	 1.78149646405229E-0001	
 7.04500000000000E+0002	 1.77382430849673E-0001	
 7.06500000000000E+0002	 1.76363715294118E-0001	
 7.08500000000000E+0002	 1.75178999738562E-0001	
 7.10500000000000E+0002	 1.73857784183007E-0001	
 7.12500000000000E+0002	 1.72503568627451E-0001	
 7.14500000000000E+0002	 1.71134853071895E-0001	
 7.16500000000000E+0002	 1.69879637516340E-0001	
 7.18500000000000E+0002	 1.68791421960784E-0001	
 7.20500000000000E+0002	 1.67776706405229E-0001	
 7.22500000000000E+0002	 1.66527490849673E-0001	
 7.24500000000000E+0002	 1.65073275294118E-0001	
 7.26500000000000E+0002	 1.63428059738562E-0001	
 7.28500000000000E+0002	 1.61721344183007E-0001	
 7.30500000000000E+0002	 1.60068128627451E-0001	
 7.32500000000000E+0002	 1.58626913071895E-0001	
 7.34500000000000E+0002	 1.57357197516340E-0001	
 7.36500000000000E+0002	 1.56306981960784E-0001	
 7.38500000000000E+0002	 1.55409266405229E-0001	
 7.40500000000000E+0002	 1.54679550849673E-0001	
 7.42500000000000E+0002	 1.54059335294118E-0001	
 7.44500000000000E+0002	 1.53560119738562E-0001	
 7.46500000000000E+0002	 1.53119404183007E-0001	
 7.48500000000000E+0002	 1.52714688627451E-0001	
 7.50500000000000E+0002	 1.52174973071895E-0001	
 7.52500000000000E+0002	 1.51506257516340E-0001	
 7.54500000000000E+0002	 1.50676541960784E-0001	
 7.56500000000000E+0002	 1.49784826405229E-0001	
 7.58500000000000E+0002	 1.48788610849673E-0001	
 7.60500000000000E+0002	 1.47872395294118E-0001	
 7.62500000000000E+0002	 1.47096679738562E-0001	
 7.64500000000000E+0002	 1.46441464183007E-0001	
 7.66500000000000E+0002	 1.45583748627451E-0001	
 7.68500000000000E+0002	 1.44489533071895E-0001	
 7.70500000000000E+0002	 1.43338817516340E-0001	
 7.72500000000000E+0002	 1.42496101960784E-0001	
 7.74500000000000E+0002	 1.42143386405229E-0001	
 7.76500000000000E+0002	 1.42571170849673E-0001	
 7.78500000000000E+0002	 1.43409955294118E-0001	
 7.80500000000000E+0002	 1.43671239738562E-0001	
 7.82500000000000E+0002	 1.42886524183007E-0001	
 7.84500000000000E+0002	 1.41812308627451E-0001	
 7.86500000000000E+0002	 1.40894093071895E-0001	
 7.88500000000000E+0002	 1.40190877516340E-0001	
 7.90500000000000E+0002	 1.39697661960784E-0001	
 7.92500000000000E+0002	 1.39755446405229E-0001	
 7.94500000000000E+0002	 1.40374730849673E-0001	
 7.96500000000000E+0002	 1.41227515294118E-0001	
 7.98500000000000E+0002	 1.41915299738562E-0001	
 8.00500000000000E+0002	 1.42489084183007E-0001	
 8.02500000000000E+0002	 1.42890368627451E-0001	
 8.04500000000000E+0002	 1.42982153071895E-0001	
 8.06500000000000E+0002	 1.42507937516340E-0001	
 8.08500000000000E+0002	 1.41584221960784E-0001	
 8.10500000000000E+0002	 1.40440006405229E-0001	
 8.12500000000000E+0002	 1.39412790849673E-0001	
 8.14500000000000E+0002	 1.38541075294118E-0001	
 8.16500000000000E+0002	 1.37863359738562E-0001	
 8.18500000000000E+0002	 1.37359644183007E-0001	
 8.20500000000000E+0002	 1.37100928627451E-0001	
 8.22500000000000E+0002	 1.36948213071895E-0001	
 8.24500000000000E+0002	 1.36908497516340E-0001	
 8.26500000000000E+0002	 1.36929281960784E-0001	
 8.28500000000000E+0002	 1.37000566405229E-0001	
 8.30500000000000E+0002	 1.37095350849673E-0001	
 8.32500000000000E+0002	 1.37297135294118E-0001	
 8.34500000000000E+0002	 1.37562419738562E-0001	
 8.36500000000000E+0002	 1.37853704183007E-0001	
 8.38500000000000E+0002	 1.38101988627451E-0001	
 8.40500000000000E+0002	 1.38373773071895E-0001	
 8.42500000000000E+0002	 1.38678057516340E-0001	
 8.44500000000000E+0002	 1.39102341960784E-0001	
 8.46500000000000E+0002	 1.39690626405229E-0001	
 8.48500000000000E+0002	 1.40475410849673E-0001	
 8.50500000000000E+0002	 1.41445695294118E-0001	
 8.52500000000000E+0002	 1.42568979738562E-0001	
 8.54500000000000E+0002	 1.43741264183007E-0001	
 8.56500000000000E+0002	 1.44842548627451E-0001	
 8.58500000000000E+0002	 1.45730333071895E-0001	
 8.60500000000000E+0002	 1.46291617516340E-0001	
 8.62500000000000E+0002	 1.46448401960784E-0001	
 8.64500000000000E+0002	 1.46193186405229E-0001	
 8.66500000000000E+0002	 1.45608470849673E-0001	
 8.68500000000000E+0002	 1.44921755294118E-0001	
 8.70500000000000E+0002	 1.44434039738562E-0001	
 8.72500000000000E+0002	 1.43942824183007E-0001	
 8.74500000000000E+0002	 1.42963608627451E-0001	
 8.76500000000000E+0002	 1.41723393071895E-0001	
 8.78500000000000E+0002	 1.40630677516340E-0001	
 8.80500000000000E+0002	 1.39686961960784E-0001	
 8.82500000000000E+0002	 1.38843746405229E-0001	
 8.84500000000000E+0002	 1.38070530849673E-0001	
 8.86500000000000E+0002	 1.37408815294118E-0001	
 8.88500000000000E+0002	 1.36949599738562E-0001	
 8.90500000000000E+0002	 1.36810884183007E-0001	
 8.92500000000000E+0002	 1.36958668627451E-0001	
 8.94500000000000E+0002	 1.37304453071895E-0001	
 8.96500000000000E+0002	 1.37698737516340E-0001	
 8.98500000000000E+0002	 1.38068521960784E-0001	
 9.00500000000000E+0002	 1.38407306405229E-0001	
 9.02500000000000E+0002	 1.38865090849673E-0001	
 9.04500000000000E+0002	 1.39570375294118E-0001	
 9.06500000000000E+0002	 1.40590159738562E-0001	
 9.08500000000000E+0002	 1.41820444183007E-0001	
 9.10500000000000E+0002	 1.43106728627451E-0001	
 9.12500000000000E+0002	 1.44200013071895E-0001	
 9.14500000000000E+0002	 1.44938297516340E-0001	
 9.16500000000000E+0002	 1.45256581960784E-0001	
 9.18500000000000E+0002	 1.45261866405229E-0001	
 9.20500000000000E+0002	 1.45115150849673E-0001	
 9.22500000000000E+0002	 1.45133935294118E-0001	
 9.24500000000000E+0002	 1.45537719738562E-0001	
 9.26500000000000E+0002	 1.46429004183007E-0001	
 9.28500000000000E+0002	 1.47755288627451E-0001	
 9.30500000000000E+0002	 1.49377073071895E-0001	
 9.32500000000000E+0002	 1.51079357516340E-0001	
 9.34500000000000E+0002	 1.52721141960784E-0001	
 9.36500000000000E+0002	 1.54207926405229E-0001	
 9.38500000000000E+0002	 1.55562710849673E-0001	
 9.40500000000000E+0002	 1.56795495294118E-0001	
 9.42500000000000E+0002	 1.57881779738562E-0001	
 9.44500000000000E+0002	 1.58745564183007E-0001	
 9.46500000000000E+0002	 1.59353348627451E-0001	
 9.48500000000000E+0002	 1.59735633071895E-0001	
 9.50500000000000E+0002	 1.60050917516340E-0001	
 9.52500000000000E+0002	 1.60585701960784E-0001	
 9.54500000000000E+0002	 1.61588986405229E-0001	
 9.56500000000000E+0002	 1.63185770849673E-0001	
 9.58500000000000E+0002	 1.65341555294118E-0001	
 9.60500000000000E+0002	 1.67941339738562E-0001	
 9.62500000000000E+0002	 1.70795124183007E-0001	
 9.64500000000000E+0002	 1.73745908627451E-0001	
 9.66500000000000E+0002	 1.76672693071895E-0001	
 9.68500000000000E+0002	 1.79607477516340E-0001	
 9.70500000000000E+0002	 1.82707761960784E-0001	
 9.72500000000000E+0002	 1.86356046405229E-0001	
 9.74500000000000E+0002	 1.90939330849673E-0001	
 9.76500000000000E+0002	 1.96865115294118E-0001	
 9.78500000000000E+0002	 2.04324899738562E-0001	
 9.80500000000000E+0002	 2.13258684183007E-0001	
 9.82500000000000E+0002	 2.23060468627451E-0001	
 9.84500000000000E+0002	 2.32874753071895E-0001	
 9.86500000000000E+0002	 2.41719037516340E-0001	
 9.88500000000000E+0002	 2.48899321960784E-0001	
 9.90500000000000E+0002	 2.53932606405229E-0001	
 9.92500000000000E+0002	 2.56715390849673E-0001	
 9.94500000000000E+0002	 2.57377175294118E-0001	
 9.96500000000000E+0002	 2.56558959738562E-0001	
 9.98500000000000E+0002	 2.55088244183007E-0001	
 1.00050000000000E+0003	 2.54007028627451E-0001	
 1.00250000000000E+0003	 2.54126313071895E-0001	
 1.00450000000000E+0003	 2.56048097516340E-0001	
 1.00650000000000E+0003	 2.59784381960784E-0001	
 1.00850000000000E+0003	 2.65010166405229E-0001	
 1.01050000000000E+0003	 2.70952950849673E-0001	
 1.01250000000000E+0003	 2.76993235294118E-0001	
 1.01450000000000E+0003	 2.82636519738562E-0001	
 1.01650000000000E+0003	 2.87878804183007E-0001	
 1.01850000000000E+0003	 2.92876088627451E-0001	
 1.02050000000000E+0003	 2.98094373071895E-0001	
 1.02250000000000E+0003	 3.03789157516340E-0001	
 1.02450000000000E+0003	 3.10033941960784E-0001	
 1.02650000000000E+0003	 3.16395226405229E-0001	
 1.02850000000000E+0003	 3.22332010849673E-0001	
 1.03050000000000E+0003	 3.27191295294118E-0001	
 1.03250000000000E+0003	 3.30749579738562E-0001	
 1.03450000000000E+0003	 3.33037864183007E-0001	
 1.03650000000000E+0003	 3.34517648627451E-0001	
 1.03850000000000E+0003	 3.35582933071895E-0001	
 1.04050000000000E+0003	 3.36778717516340E-0001	
 1.04250000000000E+0003	 3.38456501960784E-0001	
 1.04450000000000E+0003	 3.40840286405229E-0001	
 1.04650000000000E+0003	 3.43670570849673E-0001	
 1.04850000000000E+0003	 3.46543355294118E-0001	
 1.05050000000000E+0003	 3.48834639738562E-0001	
 1.05250000000000E+0003	 3.50307924183007E-0001	
 1.05450000000000E+0003	 3.50970708627451E-0001	
 1.05650000000000E+0003	 3.51173493071895E-0001	
 1.05850000000000E+0003	 3.51026777516340E-0001	
 1.06050000000000E+0003	 3.50541061960784E-0001	
 1.06250000000000E+0003	 3.49656846405229E-0001	
 1.06450000000000E+0003	 3.48677630849673E-0001	
 1.06650000000000E+0003	 3.47968415294118E-0001	
 1.06850000000000E+0003	 3.47916699738562E-0001	
 1.07050000000000E+0003	 3.48550484183007E-0001	
 1.07250000000000E+0003	 3.49709768627451E-0001	
 1.07450000000000E+0003	 3.50921553071895E-0001	
 1.07650000000000E+0003	 3.51743337516340E-0001	
 1.07850000000000E+0003	 3.51728121960784E-0001	
 1.08050000000000E+0003	 3.50660906405229E-0001	
 1.08250000000000E+0003	 3.48537690849673E-0001	
 1.08450000000000E+0003	 3.45615475294118E-0001	
 1.08650000000000E+0003	 3.42160259738562E-0001	
 1.08850000000000E+0003	 3.38469544183007E-0001	
 1.09050000000000E+0003	 3.34645328627451E-0001	
 1.09250000000000E+0003	 3.30798613071895E-0001	
 1.09450000000000E+0003	 3.27037897516340E-0001	
 1.09650000000000E+0003	 3.23608181960784E-0001	
 1.09850000000000E+0003	 3.20728966405229E-0001	
 1.10050000000000E+0003	 3.18463750849673E-0001	
 1.10250000000000E+0003	 3.16602035294118E-0001	
 1.10450000000000E+0003	 3.14913819738562E-0001	
 1.10650000000000E+0003	 3.13223104183007E-0001	
 1.10850000000000E+0003	 3.11518388627451E-0001	
 1.11050000000000E+0003	 3.09813173071895E-0001	
 1.11250000000000E+0003	 3.07962957516340E-0001	
 1.11450000000000E+0003	 3.05630241960784E-0001	
 1.11650000000000E+0003	 3.02554526405229E-0001	
 1.11850000000000E+0003	 2.98674310849673E-0001	
 1.12050000000000E+0003	 2.94063595294118E-0001	
 1.12250000000000E+0003	 2.88862379738562E-0001	
 1.12450000000000E+0003	 2.83221664183007E-0001	
 1.12650000000000E+0003	 2.77268948627451E-0001	
 1.12850000000000E+0003	 2.71136733071895E-0001	
 1.13050000000000E+0003	 2.64998517516340E-0001	
 1.13250000000000E+0003	 2.59164301960784E-0001	
 1.13450000000000E+0003	 2.53960586405229E-0001	
 1.13650000000000E+0003	 2.49664870849673E-0001	
 1.13850000000000E+0003	 2.46597655294118E-0001	
 1.14050000000000E+0003	 2.44976939738562E-0001	
 1.14250000000000E+0003	 2.44783724183007E-0001	
 1.14450000000000E+0003	 2.45668008627451E-0001	
 1.14650000000000E+0003	 2.46931293071895E-0001	
 1.14850000000000E+0003	 2.47729077516340E-0001	
 1.15050000000000E+0003	 2.47396361960784E-0001	
 1.15250000000000E+0003	 2.45671146405229E-0001	
 1.15450000000000E+0003	 2.42622930849673E-0001	
 1.15650000000000E+0003	 2.38535715294118E-0001	
 1.15850000000000E+0003	 2.33857499738562E-0001	
 1.16050000000000E+0003	 2.29067784183007E-0001	
 1.16250000000000E+0003	 2.24450568627451E-0001	
 1.16450000000000E+0003	 2.20168353071895E-0001	
 1.16650000000000E+0003	 2.16330637516340E-0001	
 1.16850000000000E+0003	 2.13017421960784E-0001	
 1.17050000000000E+0003	 2.10185706405229E-0001	
 1.17250000000000E+0003	 2.07669490849673E-0001	
 1.17450000000000E+0003	 2.05290275294118E-0001	
 1.17650000000000E+0003	 2.03116559738562E-0001	
 1.17850000000000E+0003	 2.01327844183007E-0001	
 1.18050000000000E+0003	 2.00170628627451E-0001	
 1.18250000000000E+0003	 1.99816413071895E-0001	
 1.18450000000000E+0003	 2.00425697516340E-0001	
 1.18650000000000E+0003	 2.02049981960784E-0001	
 1.18850000000000E+0003	 2.04735766405229E-0001	
 1.19050000000000E+0003	 2.08400550849673E-0001	
 1.19250000000000E+0003	 2.12989835294118E-0001	
 1.19450000000000E+0003	 2.18333619738562E-0001	
 1.19650000000000E+0003	 2.24232404183007E-0001	
 1.19850000000000E+0003	 2.30401688627451E-0001	
 1.20050000000000E+0003	 2.36675473071895E-0001	
 1.20250000000000E+0003	 2.42830757516340E-0001	
 1.20450000000000E+0003	 2.48783041960784E-0001	
 1.20650000000000E+0003	 2.54449826405229E-0001	
 1.20850000000000E+0003	 2.59915610849673E-0001	
 1.21050000000000E+0003	 2.65418395294118E-0001	
 1.21250000000000E+0003	 2.71568179738562E-0001	
 1.21450000000000E+0003	 2.78975464183007E-0001	
 1.21650000000000E+0003	 2.88073748627451E-0001	
 1.21850000000000E+0003	 2.98538533071895E-0001	
 1.22050000000000E+0003	 3.08671817516340E-0001	
 1.22250000000000E+0003	 3.15050601960784E-0001	
 1.22450000000000E+0003	 3.15513386405229E-0001	
 1.22650000000000E+0003	 3.11855670849673E-0001	
 1.22850000000000E+0003	 3.07310955294118E-0001	
 1.23050000000000E+0003	 3.02976239738562E-0001	
 1.23250000000000E+0003	 2.98824524183007E-0001	
 1.23450000000000E+0003	 2.94812308627451E-0001	
 1.23650000000000E+0003	 2.91020093071895E-0001	
 1.23850000000000E+0003	 2.87319877516340E-0001	
 1.24050000000000E+0003	 2.83690161960784E-0001	
 1.24250000000000E+0003	 2.80044446405229E-0001	
 1.24450000000000E+0003	 2.76406230849673E-0001	
 1.24650000000000E+0003	 2.72722515294118E-0001	
 1.24850000000000E+0003	 2.69014799738562E-0001	
 1.25050000000000E+0003	 2.65233084183007E-0001	
 1.25250000000000E+0003	 2.61425868627451E-0001	
 1.25450000000000E+0003	 2.57564653071895E-0001	
 1.25650000000000E+0003	 2.53710437516340E-0001	
 1.25850000000000E+0003	 2.49814721960784E-0001	
 1.26050000000000E+0003	 2.45940506405229E-0001	
 1.26250000000000E+0003	 2.42114290849673E-0001	
 1.26450000000000E+0003	 2.38406575294118E-0001	
 1.26650000000000E+0003	 2.34851859738562E-0001	
 1.26850000000000E+0003	 2.31607144183007E-0001	
 1.27050000000000E+0003	 2.28683428627451E-0001	
 1.27250000000000E+0003	 2.26149713071895E-0001	
 1.27450000000000E+0003	 2.23928497516340E-0001	
 1.27650000000000E+0003	 2.21989281960784E-0001	
 1.27850000000000E+0003	 2.20300066405229E-0001	
 1.28050000000000E+0003	 2.18825850849673E-0001	
 1.28250000000000E+0003	 2.17342635294118E-0001	
 1.28450000000000E+0003	 2.15735919738562E-0001	
 1.28650000000000E+0003	 2.14012204183007E-0001	
 1.28850000000000E+0003	 2.12425988627451E-0001	
 1.29050000000000E+0003	 2.11225773071895E-0001	
 1.29250000000000E+0003	 2.10362557516340E-0001	
 1.29450000000000E+0003	 2.09669341960784E-0001	
 1.29650000000000E+0003	 2.09204626405229E-0001	
 1.29850000000000E+0003	 2.09149410849673E-0001	
 1.30050000000000E+0003	 2.09483695294118E-0001	
 1.30250000000000E+0003	 2.10000479738562E-0001	
 1.30450000000000E+0003	 2.10624264183007E-0001	
 1.30650000000000E+0003	 2.11304548627451E-0001	
 1.30850000000000E+0003	 2.12067333071895E-0001	
 1.31050000000000E+0003	 2.12850117516340E-0001	
 1.31250000000000E+0003	 2.13486401960784E-0001	
 1.31450000000000E+0003	 2.14071186405229E-0001	
 1.31650000000000E+0003	 2.14545470849673E-0001	
 1.31850000000000E+0003	 2.14762755294118E-0001	
 1.32050000000000E+0003	 2.14829539738562E-0001	
 1.32250000000000E+0003	 2.14755324183007E-0001	
 1.32450000000000E+0003	 2.14590608627451E-0001	
 1.32650000000000E+0003	 2.14437893071895E-0001	
 1.32850000000000E+0003	 2.14401677516340E-0001	
 1.33050000000000E+0003	 2.14536961960784E-0001	
 1.33250000000000E+0003	 2.14832746405229E-0001	
 1.33450000000000E+0003	 2.15039030849673E-0001	
 1.33650000000000E+0003	 2.14787315294118E-0001	
 1.33850000000000E+0003	 2.14216599738562E-0001	
 1.34050000000000E+0003	 2.14190884183007E-0001	
 1.34250000000000E+0003	 2.14924168627451E-0001	
 1.34450000000000E+0003	 2.15604953071895E-0001	
 1.34650000000000E+0003	 2.16437237516340E-0001	
 1.34850000000000E+0003	 2.18273021960784E-0001	
 1.35050000000000E+0003	 2.21595806405229E-0001	
 1.35250000000000E+0003	 2.26511590849673E-0001	
 1.35450000000000E+0003	 2.32594875294118E-0001	
 1.35650000000000E+0003	 2.38939659738562E-0001	
 1.35850000000000E+0003	 2.44736444183007E-0001	
 1.36050000000000E+0003	 2.49742728627451E-0001	
 1.36250000000000E+0003	 2.54333013071895E-0001	
 1.36450000000000E+0003	 2.58579297516340E-0001	
 1.36650000000000E+0003	 2.61032581960784E-0001	
 1.36850000000000E+0003	 2.60636866405229E-0001	
 1.37050000000000E+0003	 2.58239150849673E-0001	
 1.37250000000000E+0003	 2.54970935294118E-0001	
 1.37450000000000E+0003	 2.51715219738562E-0001	
 1.37650000000000E+0003	 2.49160504183007E-0001	
 1.37850000000000E+0003	 2.46911788627451E-0001	
 1.38050000000000E+0003	 2.45185573071895E-0001	
 1.38250000000000E+0003	 2.44151357516340E-0001	
 1.38450000000000E+0003	 2.43410141960784E-0001	
 1.38650000000000E+0003	 2.42433426405229E-0001	
 1.38850000000000E+0003	 2.41846710849673E-0001	
 1.39050000000000E+0003	 2.42366495294118E-0001	
 1.39250000000000E+0003	 2.43034279738562E-0001	
 1.39450000000000E+0003	 2.43309564183007E-0001	
 1.39650000000000E+0003	 2.43847848627451E-0001	
 1.39850000000000E+0003	 2.44598633071895E-0001	
 1.40050000000000E+0003	 2.45231917516340E-0001	
 1.40250000000000E+0003	 2.45452701960784E-0001	
 1.40450000000000E+0003	 2.44922486405229E-0001	
 1.40650000000000E+0003	 2.44273270849673E-0001	
 1.40850000000000E+0003	 2.43794055294118E-0001	
 1.41050000000000E+0003	 2.43298339738562E-0001	
 1.41250000000000E+0003	 2.43053124183007E-0001	
 1.41450000000000E+0003	 2.42988908627451E-0001	
 1.41650000000000E+0003	 2.42464193071895E-0001	
 1.41850000000000E+0003	 2.41519477516340E-0001	
 1.42050000000000E+0003	 2.40491761960784E-0001	
 1.42250000000000E+0003	 2.39620046405229E-0001	
 1.42450000000000E+0003	 2.37935330849673E-0001	
 1.42650000000000E+0003	 2.35791615294118E-0001	
 1.42850000000000E+0003	 2.33967899738562E-0001	
 1.43050000000000E+0003	 2.32689684183007E-0001	
 1.43250000000000E+0003	 2.32008468627451E-0001	
 1.43450000000000E+0003	 2.31967253071895E-0001	
 1.43650000000000E+0003	 2.31914537516340E-0001	
 1.43850000000000E+0003	 2.33105821960784E-0001	
 1.44050000000000E+0003	 2.35215106405229E-0001	
 1.44250000000000E+0003	 2.36667390849673E-0001	
 1.44450000000000E+0003	 2.37605675294118E-0001	
 1.44650000000000E+0003	 2.38398459738562E-0001	
 1.44850000000000E+0003	 2.39022244183007E-0001	
 1.45050000000000E+0003	 2.39690028627451E-0001	
 1.45250000000000E+0003	 2.40175813071895E-0001	
 1.45450000000000E+0003	 2.40124597516340E-0001	
 1.45650000000000E+0003	 2.38296881960784E-0001	
 1.45850000000000E+0003	 2.35710166405229E-0001	
 1.46050000000000E+0003	 2.32895950849673E-0001	
 1.46250000000000E+0003	 2.29987735294118E-0001	
 1.46450000000000E+0003	 2.26290019738562E-0001	
 1.46650000000000E+0003	 2.22078804183007E-0001	
 1.46850000000000E+0003	 2.17999588627451E-0001	
 1.47050000000000E+0003	 2.13804373071895E-0001	
 1.47250000000000E+0003	 2.08399657516340E-0001	
 1.47450000000000E+0003	 2.02725441960784E-0001	
 1.47650000000000E+0003	 1.98306726405229E-0001	
 1.47850000000000E+0003	 1.95651010849673E-0001	
 1.48050000000000E+0003	 1.94288295294118E-0001	
 1.48250000000000E+0003	 1.93744079738562E-0001	
 1.48450000000000E+0003	 1.94106864183007E-0001	
 1.48650000000000E+0003	 1.95529148627451E-0001	
 1.48850000000000E+0003	 1.97681433071895E-0001	
 1.49050000000000E+0003	 2.00689717516340E-0001	
 1.49250000000000E+0003	 2.04695001960784E-0001	
 1.49450000000000E+0003	 2.09449286405229E-0001	
 1.49650000000000E+0003	 2.14529070849673E-0001	
 1.49850000000000E+0003	 2.19957855294118E-0001	
 1.50050000000000E+0003	 2.24920139738562E-0001	
 1.50250000000000E+0003	 2.30494424183007E-0001	
 1.50450000000000E+0003	 2.36907208627451E-0001	
 1.50650000000000E+0003	 2.44865493071895E-0001	
 1.50850000000000E+0003	 2.52074777516340E-0001	
 1.51050000000000E+0003	 2.58505561960784E-0001	
 1.51250000000000E+0003	 2.66903846405229E-0001	
 1.51450000000000E+0003	 2.75345630849673E-0001	
 1.51650000000000E+0003	 2.83280915294118E-0001	
 1.51850000000000E+0003	 2.90163199738562E-0001	
 1.52050000000000E+0003	 2.95378984183007E-0001	
 1.52250000000000E+0003	 3.01507768627451E-0001	
 1.52450000000000E+0003	 3.06802553071895E-0001	
 1.52650000000000E+0003	 3.11959337516340E-0001	
 1.52850000000000E+0003	 3.17687121960784E-0001	
 1.53050000000000E+0003	 3.23222406405229E-0001	
 1.53250000000000E+0003	 3.28580190849673E-0001	
 1.53450000000000E+0003	 3.34277475294118E-0001	
 1.53650000000000E+0003	 3.38770259738562E-0001	
 1.53850000000000E+0003	 3.43800544183007E-0001	
 1.54050000000000E+0003	 3.49709328627451E-0001	
 1.54250000000000E+0003	 3.51140613071895E-0001	
 1.54450000000000E+0003	 3.50400897516340E-0001	
 1.54650000000000E+0003	 3.50007181960784E-0001	
 1.54850000000000E+0003	 3.49047966405229E-0001	
 1.55050000000000E+0003	 3.46207250849673E-0001	
 1.55250000000000E+0003	 3.42501535294118E-0001	
 1.55450000000000E+0003	 3.37598319738562E-0001	
 1.55650000000000E+0003	 3.32813104183007E-0001	
 1.55850000000000E+0003	 3.27495888627451E-0001	
 1.56050000000000E+0003	 3.18593173071895E-0001	
 1.56250000000000E+0003	 3.10478957516340E-0001	
 1.56450000000000E+0003	 3.05726241960784E-0001	
 1.56650000000000E+0003	 3.00322526405229E-0001	
 1.56850000000000E+0003	 2.95547310849673E-0001	
 1.57050000000000E+0003	 2.90696095294118E-0001	
 1.57250000000000E+0003	 2.85786379738562E-0001	
 1.57450000000000E+0003	 2.82417664183007E-0001	
 1.57650000000000E+0003	 2.78944948627451E-0001	
 1.57850000000000E+0003	 2.74139233071895E-0001	
 1.58050000000000E+0003	 2.70598517516340E-0001	
 1.58250000000000E+0003	 2.67909301960784E-0001	
 1.58450000000000E+0003	 2.66082086405229E-0001	
 1.58650000000000E+0003	 2.65028370849673E-0001	
 1.58850000000000E+0003	 2.64969655294118E-0001	
 1.59050000000000E+0003	 2.65663439738562E-0001	
 1.59250000000000E+0003	 2.67294224183007E-0001	
 1.59450000000000E+0003	 2.69499508627451E-0001	
 1.59650000000000E+0003	 2.72202293071895E-0001	
 1.59850000000000E+0003	 2.75094077516340E-0001	
 1.60050000000000E+0003	 2.78723861960784E-0001	
 1.60250000000000E+0003	 2.82939646405229E-0001	
 1.60450000000000E+0003	 2.87857930849673E-0001	
 1.60650000000000E+0003	 2.93349215294118E-0001	
 1.60850000000000E+0003	 2.99996999738562E-0001	
 1.61050000000000E+0003	 3.07439784183007E-0001	
 1.61250000000000E+0003	 3.15715568627451E-0001	
 1.61450000000000E+0003	 3.24856853071895E-0001	
 1.61650000000000E+0003	 3.36171637516340E-0001	
 1.61850000000000E+0003	 3.46995921960784E-0001	
 1.62050000000000E+0003	 3.56605706405229E-0001	
 1.62250000000000E+0003	 3.68445990849673E-0001	
 1.62450000000000E+0003	 3.81711775294118E-0001	
 1.62650000000000E+0003	 3.93791559738562E-0001	
 1.62850000000000E+0003	 4.06461344183007E-0001	
 1.63050000000000E+0003	 4.18449628627451E-0001	
 1.63250000000000E+0003	 4.29328913071895E-0001	
 1.63450000000000E+0003	 4.40331197516340E-0001	
 1.63650000000000E+0003	 4.51418981960784E-0001	
 1.63850000000000E+0003	 4.58011766405229E-0001	
 1.64050000000000E+0003	 4.62901050849673E-0001	
 1.64250000000000E+0003	 4.67643835294118E-0001	
 1.64450000000000E+0003	 4.72162119738562E-0001	
 1.64650000000000E+0003	 4.77455404183007E-0001	
 1.64850000000000E+0003	 4.82449188627451E-0001	
 1.65050000000000E+0003	 4.85949473071895E-0001	
 1.65250000000000E+0003	 4.89801757516340E-0001	
 1.65450000000000E+0003	 4.92502541960784E-0001	
 1.65650000000000E+0003	 4.91254326405229E-0001	
 1.65850000000000E+0003	 4.90586110849673E-0001	
 1.66050000000000E+0003	 4.88260895294118E-0001	
 1.66250000000000E+0003	 4.84609679738562E-0001	
 1.66450000000000E+0003	 4.79311464183007E-0001	
 1.66650000000000E+0003	 4.73741248627451E-0001	
 1.66850000000000E+0003	 4.68521033071895E-0001	
 1.67050000000000E+0003	 4.63071817516340E-0001	
 1.67250000000000E+0003	 4.57298601960784E-0001	
 1.67450000000000E+0003	 4.51597386405229E-0001	
 1.67650000000000E+0003	 4.45198170849673E-0001	
 1.67850000000000E+0003	 4.39538455294118E-0001	
 1.68050000000000E+0003	 4.34583739738562E-0001	
 1.68250000000000E+0003	 4.30446524183007E-0001	
 1.68450000000000E+0003	 4.26035308627451E-0001	
 1.68650000000000E+0003	 4.19337593071895E-0001	
 1.68850000000000E+0003	 4.13698877516340E-0001	
 1.69050000000000E+0003	 4.08874661960784E-0001	
 1.69250000000000E+0003	 4.04358946405229E-0001	
 1.69450000000000E+0003	 4.00491230849673E-0001	
 1.69650000000000E+0003	 3.96914515294118E-0001	
 1.69850000000000E+0003	 3.95185799738562E-0001	
 1.70050000000000E+0003	 3.94595584183007E-0001	
 1.70250000000000E+0003	 3.95171868627451E-0001	
 1.70450000000000E+0003	 3.99294653071895E-0001	
 1.70650000000000E+0003	 4.05160437516340E-0001	
 1.70850000000000E+0003	 4.10206221960784E-0001	
 1.71050000000000E+0003	 4.14514506405229E-0001	
 1.71250000000000E+0003	 4.17166290849673E-0001	
 1.71450000000000E+0003	 4.15911075294118E-0001	
 1.71650000000000E+0003	 4.07773359738562E-0001	
 1.71850000000000E+0003	 3.89477644183007E-0001	
 1.72050000000000E+0003	 3.67329928627451E-0001	
 1.72250000000000E+0003	 3.46883213071895E-0001	
 1.72450000000000E+0003	 3.27948497516340E-0001	
 1.72650000000000E+0003	 3.13034281960784E-0001	
 1.72850000000000E+0003	 3.01841566405229E-0001	
 1.73050000000000E+0003	 2.93657350849673E-0001	
 1.73250000000000E+0003	 2.88004135294118E-0001	
 1.73450000000000E+0003	 2.82841419738562E-0001	
 1.73650000000000E+0003	 2.79205204183007E-0001	
 1.73850000000000E+0003	 2.78238988627451E-0001	
 1.74050000000000E+0003	 2.77215273071895E-0001	
 1.74250000000000E+0003	 2.75556557516340E-0001	
 1.74450000000000E+0003	 2.74136341960784E-0001	
 1.74650000000000E+0003	 2.73164126405229E-0001	
 1.74850000000000E+0003	 2.71650910849673E-0001	
 1.75050000000000E+0003	 2.68077695294118E-0001	
 1.75250000000000E+0003	 2.62842979738562E-0001	
 1.75450000000000E+0003	 2.58231764183007E-0001	
 1.75650000000000E+0003	 2.52594048627451E-0001	
 1.75850000000000E+0003	 2.46102333071895E-0001	
 1.76050000000000E+0003	 2.40039117516340E-0001	
 1.76250000000000E+0003	 2.33498401960784E-0001	
 1.76450000000000E+0003	 2.27329686405229E-0001	
 1.76650000000000E+0003	 2.21810970849673E-0001	
 1.76850000000000E+0003	 2.16053755294118E-0001	
 1.77050000000000E+0003	 2.12309539738562E-0001	
 1.77250000000000E+0003	 2.09202824183007E-0001	
 1.77450000000000E+0003	 2.04477608627451E-0001	
 1.77650000000000E+0003	 2.00372393071895E-0001	
 1.77850000000000E+0003	 1.97292177516340E-0001	
 1.78050000000000E+0003	 1.94530961960784E-0001	
 1.78250000000000E+0003	 1.91959246405229E-0001	
 1.78450000000000E+0003	 1.89189030849673E-0001	
 1.78650000000000E+0003	 1.86845315294118E-0001	
 1.78850000000000E+0003	 1.85277099738562E-0001	
 1.79050000000000E+0003	 1.83612384183007E-0001	
 1.79250000000000E+0003	 1.81820168627451E-0001	
 1.79450000000000E+0003	 1.79987953071895E-0001	
 1.79650000000000E+0003	 1.78339737516340E-0001	
 1.79850000000000E+0003	 1.77033021960784E-0001	
 1.80050000000000E+0003	 1.75353306405229E-0001	
 1.80250000000000E+0003	 1.73239090849673E-0001	
 1.80450000000000E+0003	 1.71962875294118E-0001	
 1.80650000000000E+0003	 1.71054659738562E-0001	
 1.80850000000000E+0003	 1.69820944183007E-0001	
 1.81050000000000E+0003	 1.68694728627451E-0001	
 1.81250000000000E+0003	 1.67421013071895E-0001	
 1.81450000000000E+0003	 1.66165797516340E-0001	
 1.81650000000000E+0003	 1.64944081960784E-0001	
 1.81850000000000E+0003	 1.63772866405229E-0001	
 1.82050000000000E+0003	 1.62893650849673E-0001	
 1.82250000000000E+0003	 1.61991935294118E-0001	
 1.82450000000000E+0003	 1.60819219738562E-0001	
 1.82650000000000E+0003	 1.59846504183007E-0001	
 1.82850000000000E+0003	 1.59538788627451E-0001	
 1.83050000000000E+0003	 1.59023573071895E-0001	
 1.83250000000000E+0003	 1.57657357516340E-0001	
 1.83450000000000E+0003	 1.56648641960784E-0001	
 1.83650000000000E+0003	 1.56007426405229E-0001	
 1.83850000000000E+0003	 1.55331710849673E-0001	
 1.84050000000000E+0003	 1.54615495294118E-0001	
 1.84250000000000E+0003	 1.53895279738562E-0001	
 1.84450000000000E+0003	 1.52972564183007E-0001	
 1.84650000000000E+0003	 1.52053348627451E-0001	
 1.84850000000000E+0003	 1.51567133071895E-0001	
 1.85050000000000E+0003	 1.51234417516340E-0001	
 1.85250000000000E+0003	 1.50854201960784E-0001	
 1.85450000000000E+0003	 1.50347986405229E-0001	
 1.85650000000000E+0003	 1.49785270849673E-0001	
 1.85850000000000E+0003	 1.49194555294118E-0001	
 1.86050000000000E+0003	 1.48595339738562E-0001	
 1.86250000000000E+0003	 1.48089624183007E-0001	
 1.86450000000000E+0003	 1.47740408627451E-0001	
 1.86650000000000E+0003	 1.47522693071895E-0001	
 1.86850000000000E+0003	 1.47168477516340E-0001	
 1.87050000000000E+0003	 1.46367261960784E-0001	
 1.87250000000000E+0003	 1.45802046405229E-0001	
 1.87450000000000E+0003	 1.45625330849673E-0001	
 1.87650000000000E+0003	 1.45312615294118E-0001	
 1.87850000000000E+0003	 1.44920899738562E-0001	
 1.88050000000000E+0003	 1.44548684183007E-0001	
 1.88250000000000E+0003	 1.44258468627451E-0001	
 1.88450000000000E+0003	 1.43984253071895E-0001	
 1.88650000000000E+0003	 1.43676037516340E-0001	
 1.88850000000000E+0003	 1.43329821960784E-0001	
 1.89050000000000E+0003	 1.42951106405229E-0001	
 1.89250000000000E+0003	 1.42642890849673E-0001	
 1.89450000000000E+0003	 1.42424675294118E-0001	
 1.89650000000000E+0003	 1.42165959738562E-0001	
 1.89850000000000E+0003	 1.41888744183007E-0001	
 1.90050000000000E+0003	 1.41642528627451E-0001	
 1.90250000000000E+0003	 1.41402813071895E-0001	
 1.90450000000000E+0003	 1.41198097516340E-0001	
 1.90650000000000E+0003	 1.40961381960784E-0001	
 1.90850000000000E+0003	 1.40697166405229E-0001	
 1.91050000000000E+0003	 1.40474450849673E-0001	
 1.91250000000000E+0003	 1.40263235294118E-0001	
 1.91450000000000E+0003	 1.40061019738562E-0001	
 1.91650000000000E+0003	 1.39821804183007E-0001	
 1.91850000000000E+0003	 1.39446588627451E-0001	
 1.92050000000000E+0003	 1.39196373071895E-0001	
 1.92250000000000E+0003	 1.39084157516340E-0001	
 1.92450000000000E+0003	 1.38963941960784E-0001	
 1.92650000000000E+0003	 1.38918726405229E-0001	
 1.92850000000000E+0003	 1.38847510849673E-0001	
 1.93050000000000E+0003	 1.38716295294118E-0001	
 1.93250000000000E+0003	 1.38568579738562E-0001	
 1.93450000000000E+0003	 1.38426864183007E-0001	
 1.93650000000000E+0003	 1.38315648627451E-0001	
 1.93850000000000E+0003	 1.38210933071895E-0001	
 1.94050000000000E+0003	 1.38049717516340E-0001	
 1.94250000000000E+0003	 1.37817001960784E-0001	
 1.94450000000000E+0003	 1.37749786405229E-0001	
 1.94650000000000E+0003	 1.37848070849673E-0001	
 1.94850000000000E+0003	 1.37827855294118E-0001	
 1.95050000000000E+0003	 1.37724139738562E-0001	
 1.95250000000000E+0003	 1.37652424183007E-0001	
 1.95450000000000E+0003	 1.37586708627451E-0001	
 1.95650000000000E+0003	 1.37530493071895E-0001	
 1.95850000000000E+0003	 1.37478777516340E-0001	
 1.96050000000000E+0003	 1.37424561960784E-0001	
 1.96250000000000E+0003	 1.37387846405229E-0001	
 1.96450000000000E+0003	 1.37329630849673E-0001	
 1.96650000000000E+0003	 1.37205915294118E-0001	
 1.96850000000000E+0003	 1.37110699738562E-0001	
 1.97050000000000E+0003	 1.37143984183007E-0001	
 1.97250000000000E+0003	 1.37186768627451E-0001	
 1.97450000000000E+0003	 1.37176553071895E-0001	
 1.97650000000000E+0003	 1.37154337516340E-0001	
 1.97850000000000E+0003	 1.37133621960784E-0001	
 1.98050000000000E+0003	 1.37115406405229E-0001	
 1.98250000000000E+0003	 1.37103190849673E-0001	
 1.98450000000000E+0003	 1.37098475294118E-0001	
 1.98650000000000E+0003	 1.37078759738562E-0001	
 1.98850000000000E+0003	 1.37017544183007E-0001	
 1.99050000000000E+0003	 1.36933328627451E-0001	
 1.99250000000000E+0003	 1.36827113071895E-0001	
 1.99450000000000E+0003	 1.36889897516340E-0001	
 1.99650000000000E+0003	 1.37054181960784E-0001	
 1.99850000000000E+0003	 1.37108966405229E-0001	
 2.00050000000000E+0003	 1.37105250849673E-0001	
 2.00250000000000E+0003	 1.37089535294118E-0001	
 2.00450000000000E+0003	 1.37081319738562E-0001	
 2.00650000000000E+0003	 1.37071604183007E-0001	
 2.00850000000000E+0003	 1.37066388627451E-0001	
 2.01050000000000E+0003	 1.37086673071895E-0001	
 2.01250000000000E+0003	 1.37120457516340E-0001	
 2.01450000000000E+0003	 1.37121741960784E-0001	
 2.01650000000000E+0003	 1.37052526405229E-0001	
 2.01850000000000E+0003	 1.37022810849673E-0001	
 2.02050000000000E+0003	 1.37148095294118E-0001	
 2.02250000000000E+0003	 1.37273379738562E-0001	
 2.02450000000000E+0003	 1.37342164183007E-0001	
 2.02650000000000E+0003	 1.37410448627451E-0001	
 2.02850000000000E+0003	 1.37473233071895E-0001	
 2.03050000000000E+0003	 1.37527517516340E-0001	
 2.03250000000000E+0003	 1.37580801960784E-0001	
 2.03450000000000E+0003	 1.37630086405229E-0001	
 2.03650000000000E+0003	 1.37685370849673E-0001	
 2.03850000000000E+0003	 1.37731655294118E-0001	
 2.04050000000000E+0003	 1.37734939738562E-0001	
 2.04250000000000E+0003	 1.37750724183007E-0001	
 2.04450000000000E+0003	 1.37851008627451E-0001	
 2.04650000000000E+0003	 1.37936293071895E-0001	
 2.04850000000000E+0003	 1.37988577516340E-0001	
 2.05050000000000E+0003	 1.38043861960784E-0001	
 2.05250000000000E+0003	 1.38098646405229E-0001	
 2.05450000000000E+0003	 1.38150930849673E-0001	
 2.05650000000000E+0003	 1.38193215294118E-0001	
 2.05850000000000E+0003	 1.38230999738562E-0001	
 2.06050000000000E+0003	 1.38270284183007E-0001	
 2.06250000000000E+0003	 1.38297068627451E-0001	
 2.06450000000000E+0003	 1.38263353071895E-0001	
 2.06650000000000E+0003	 1.38259137516340E-0001	
 2.06850000000000E+0003	 1.38361421960784E-0001	
 2.07050000000000E+0003	 1.38452206405229E-0001	
 2.07250000000000E+0003	 1.38496990849673E-0001	
 2.07450000000000E+0003	 1.38530775294118E-0001	
 2.07650000000000E+0003	 1.38558559738562E-0001	
 2.07850000000000E+0003	 1.38591844183007E-0001	
 2.08050000000000E+0003	 1.38631628627451E-0001	
 2.08250000000000E+0003	 1.38672413071895E-0001	
 2.08450000000000E+0003	 1.38712697516340E-0001	
 2.08650000000000E+0003	 1.38748481960784E-0001	
 2.08850000000000E+0003	 1.38765766405229E-0001	
 2.09050000000000E+0003	 1.38783550849673E-0001	
 2.09250000000000E+0003	 1.38853835294118E-0001	
 2.09450000000000E+0003	 1.38941119738562E-0001	
 2.09650000000000E+0003	 1.38999904183007E-0001	
 2.09850000000000E+0003	 1.39053688627451E-0001	
 2.10050000000000E+0003	 1.39097973071895E-0001	
 2.10250000000000E+0003	 1.39142257516340E-0001	
 2.10450000000000E+0003	 1.39181041960784E-0001	
 2.10650000000000E+0003	 1.39216326405229E-0001	
 2.10850000000000E+0003	 1.39245110849673E-0001	
 2.11050000000000E+0003	 1.39280395294118E-0001	
 2.11250000000000E+0003	 1.39304179738562E-0001	
 2.11450000000000E+0003	 1.39314464183007E-0001	
 2.11650000000000E+0003	 1.39333248627451E-0001	
 2.11850000000000E+0003	 1.39378533071895E-0001	
 2.12050000000000E+0003	 1.39406817516340E-0001	
 2.12250000000000E+0003	 1.39420601960784E-0001	
 2.12450000000000E+0003	 1.39428886405229E-0001	
 2.12650000000000E+0003	 1.39444170849673E-0001	
 2.12850000000000E+0003	 1.39450955294118E-0001	
 2.13050000000000E+0003	 1.39457239738562E-0001	
 2.13250000000000E+0003	 1.39469524183007E-0001	
 2.13450000000000E+0003	 1.39471808627451E-0001	
 2.13650000000000E+0003	 1.39456593071895E-0001	
 2.13850000000000E+0003	 1.39452377516340E-0001	
 2.14050000000000E+0003	 1.39462161960784E-0001	
 2.14250000000000E+0003	 1.39465946405229E-0001	
 2.14450000000000E+0003	 1.39454730849673E-0001	
 2.14650000000000E+0003	 1.39420515294118E-0001	
 2.14850000000000E+0003	 1.39376799738562E-0001	
 2.15050000000000E+0003	 1.39319084183007E-0001	
 2.15250000000000E+0003	 1.39251868627451E-0001	
 2.15450000000000E+0003	 1.39174653071895E-0001	
 2.15650000000000E+0003	 1.39093437516340E-0001	
 2.15850000000000E+0003	 1.39004721960784E-0001	
 2.16050000000000E+0003	 1.38913006405229E-0001	
 2.16250000000000E+0003	 1.38814290849673E-0001	
 2.16450000000000E+0003	 1.38731075294118E-0001	
 2.16650000000000E+0003	 1.38657359738562E-0001	
 2.16850000000000E+0003	 1.38590144183007E-0001	
 2.17050000000000E+0003	 1.38504428627451E-0001	
 2.17250000000000E+0003	 1.38404713071895E-0001	
 2.17450000000000E+0003	 1.38305997516340E-0001	
 2.17650000000000E+0003	 1.38223781960784E-0001	
 2.17850000000000E+0003	 1.38148066405229E-0001	
 2.18050000000000E+0003	 1.38079350849673E-0001	
 2.18250000000000E+0003	 1.38005635294118E-0001	
 2.18450000000000E+0003	 1.37933419738562E-0001	
 2.18650000000000E+0003	 1.37856704183007E-0001	
 2.18850000000000E+0003	 1.37787988627451E-0001	
 2.19050000000000E+0003	 1.37720273071895E-0001	
 2.19250000000000E+0003	 1.37661057516340E-0001	
 2.19450000000000E+0003	 1.37599841960784E-0001	
 2.19650000000000E+0003	 1.37541626405229E-0001	
 2.19850000000000E+0003	 1.37477910849673E-0001	
 2.20050000000000E+0003	 1.37419195294118E-0001	
 2.20250000000000E+0003	 1.37361979738562E-0001	
 2.20450000000000E+0003	 1.37311264183007E-0001	
 2.20650000000000E+0003	 1.37258548627451E-0001	
 2.20850000000000E+0003	 1.37213833071895E-0001	
 2.21050000000000E+0003	 1.37172617516340E-0001	
 2.21250000000000E+0003	 1.37134401960784E-0001	
 2.21450000000000E+0003	 1.37098686405229E-0001	
 2.21650000000000E+0003	 1.37065470849673E-0001	
 2.21850000000000E+0003	 1.37030755294118E-0001	
 2.22050000000000E+0003	 1.37007039738562E-0001	
 2.22250000000000E+0003	 1.36986824183007E-0001	
 2.22450000000000E+0003	 1.36968108627451E-0001	
 2.22650000000000E+0003	 1.36942893071895E-0001	
 2.22850000000000E+0003	 1.36907677516340E-0001	
 2.23050000000000E+0003	 1.36856961960784E-0001	
 2.23250000000000E+0003	 1.36788746405229E-0001	
 2.23450000000000E+0003	 1.36709030849673E-0001	
 2.23650000000000E+0003	 1.36625815294118E-0001	
 2.23850000000000E+0003	 1.36544099738562E-0001	
 2.24050000000000E+0003	 1.36463384183007E-0001	
 2.24250000000000E+0003	 1.36383668627451E-0001	
 2.24450000000000E+0003	 1.36307453071895E-0001	
 2.24650000000000E+0003	 1.36230237516340E-0001	
 2.24850000000000E+0003	 1.36154521960784E-0001	
 2.25050000000000E+0003	 1.36083306405229E-0001	
 2.25250000000000E+0003	 1.36016090849673E-0001	
 2.25450000000000E+0003	 1.35954875294118E-0001	
 2.25650000000000E+0003	 1.35888159738562E-0001	
 2.25850000000000E+0003	 1.35822444183007E-0001	
 2.26050000000000E+0003	 1.35758228627451E-0001	
 2.26250000000000E+0003	 1.35697513071895E-0001	
 2.26450000000000E+0003	 1.35634297516340E-0001	
 2.26650000000000E+0003	 1.35570081960784E-0001	
 2.26850000000000E+0003	 1.35511866405229E-0001	
 2.27050000000000E+0003	 1.35461150849673E-0001	
 2.27250000000000E+0003	 1.35400935294118E-0001	
 2.27450000000000E+0003	 1.35345219738562E-0001	
 2.27650000000000E+0003	 1.35300504183007E-0001	
 2.27850000000000E+0003	 1.35261788627451E-0001	
 2.28050000000000E+0003	 1.35218573071895E-0001	
 2.28250000000000E+0003	 1.35175857516340E-0001	
 2.28450000000000E+0003	 1.35134141960784E-0001	
 2.28650000000000E+0003	 1.35113926405229E-0001	
 2.28850000000000E+0003	 1.35109710849673E-0001	
 2.29050000000000E+0003	 1.35116495294118E-0001	
 2.29250000000000E+0003	 1.35132279738562E-0001	
 2.29450000000000E+0003	 1.35166564183007E-0001	
 2.29650000000000E+0003	 1.35195848627451E-0001	
 2.29850000000000E+0003	 1.35219633071895E-0001	
 2.30050000000000E+0003	 1.35225917516340E-0001	
 2.30250000000000E+0003	 1.35208701960784E-0001	
 2.30450000000000E+0003	 1.35193986405229E-0001	
 2.30650000000000E+0003	 1.35216270849673E-0001	
 2.30850000000000E+0003	 1.35244055294118E-0001	
 2.31050000000000E+0003	 1.35256839738562E-0001	
 2.31250000000000E+0003	 1.35242624183007E-0001	
 2.31450000000000E+0003	 1.35228408627451E-0001	
 2.31650000000000E+0003	 1.35236193071895E-0001	
 2.31850000000000E+0003	 1.35265477516340E-0001	
 2.32050000000000E+0003	 1.35349261960784E-0001	
 2.32250000000000E+0003	 1.35435046405229E-0001	
 2.32450000000000E+0003	 1.35413830849673E-0001	
 2.32650000000000E+0003	 1.35333115294118E-0001	
 2.32850000000000E+0003	 1.35271899738562E-0001	
 2.33050000000000E+0003	 1.35234684183007E-0001	
 2.33250000000000E+0003	 1.35192468627451E-0001	
 2.33450000000000E+0003	 1.35159753071895E-0001	
 2.33650000000000E+0003	 1.35250537516340E-0001	
 2.33850000000000E+0003	 1.35366321960784E-0001	
 2.34050000000000E+0003	 1.35436106405229E-0001	
 2.34250000000000E+0003	 1.35424390849673E-0001	
 2.34450000000000E+0003	 1.35318675294118E-0001	
 2.34650000000000E+0003	 1.35249959738562E-0001	
 2.34850000000000E+0003	 1.35341244183007E-0001	
 2.35050000000000E+0003	 1.35352528627451E-0001	
 2.35250000000000E+0003	 1.35292813071895E-0001	
 2.35450000000000E+0003	 1.35323097516340E-0001	
 2.35650000000000E+0003	 1.35397881960784E-0001	
 2.35850000000000E+0003	 1.35431666405229E-0001	
 2.36050000000000E+0003	 1.35425450849673E-0001	
 2.36250000000000E+0003	 1.35456735294118E-0001	
 2.36450000000000E+0003	 1.35540019738562E-0001	
 2.36650000000000E+0003	 1.35607804183007E-0001	
 2.36850000000000E+0003	 1.35654588627451E-0001	
 2.37050000000000E+0003	 1.35621873071895E-0001	
 2.37250000000000E+0003	 1.35482657516340E-0001	
 2.37450000000000E+0003	 1.35361441960784E-0001	
 2.37650000000000E+0003	 1.35467726405229E-0001	
 2.37850000000000E+0003	 1.35787510849673E-0001	
 2.38050000000000E+0003	 1.36107295294118E-0001	
 2.38250000000000E+0003	 1.36257079738562E-0001	
 2.38450000000000E+0003	 1.36269364183007E-0001	
 2.38650000000000E+0003	 1.36244648627451E-0001	
 2.38850000000000E+0003	 1.36262933071895E-0001	
 2.39050000000000E+0003	 1.36324717516340E-0001	
 2.39250000000000E+0003	 1.36414501960784E-0001	
 2.39450000000000E+0003	 1.36512286405229E-0001	
 2.39650000000000E+0003	 1.36624070849673E-0001	
 2.39850000000000E+0003	 1.36735855294118E-0001	
 2.40050000000000E+0003	 1.36839139738562E-0001	
 2.40250000000000E+0003	 1.36918924183007E-0001	
 2.40450000000000E+0003	 1.36986208627451E-0001	
 2.40650000000000E+0003	 1.37049993071895E-0001	
 2.40850000000000E+0003	 1.37119777516340E-0001	
 2.41050000000000E+0003	 1.37188561960784E-0001	
 2.41250000000000E+0003	 1.37264346405229E-0001	
 2.41450000000000E+0003	 1.37344130849673E-0001	
 2.41650000000000E+0003	 1.37432415294118E-0001	
 2.41850000000000E+0003	 1.37524199738562E-0001	
 2.42050000000000E+0003	 1.37617484183007E-0001	
 2.42250000000000E+0003	 1.37714768627451E-0001	
 2.42450000000000E+0003	 1.37828553071895E-0001	
 2.42650000000000E+0003	 1.37943837516340E-0001	
 2.42850000000000E+0003	 1.38061121960784E-0001	
 2.43050000000000E+0003	 1.38177906405229E-0001	
 2.43250000000000E+0003	 1.38300690849673E-0001	
 2.43450000000000E+0003	 1.38429975294118E-0001	
 2.43650000000000E+0003	 1.38568759738562E-0001	
 2.43850000000000E+0003	 1.38712044183007E-0001	
 2.44050000000000E+0003	 1.38850828627451E-0001	
 2.44250000000000E+0003	 1.38980613071895E-0001	
 2.44450000000000E+0003	 1.39109897516340E-0001	
 2.44650000000000E+0003	 1.39235681960784E-0001	
 2.44850000000000E+0003	 1.39354966405229E-0001	
 2.45050000000000E+0003	 1.39475750849673E-0001	
 2.45250000000000E+0003	 1.39593035294118E-0001	
 2.45450000000000E+0003	 1.39711319738562E-0001	
 2.45650000000000E+0003	 1.39837604183007E-0001	
 2.45850000000000E+0003	 1.39968888627451E-0001	
 2.46050000000000E+0003	 1.40102173071895E-0001	
 2.46250000000000E+0003	 1.40247957516340E-0001	
 2.46450000000000E+0003	 1.40404241960784E-0001	
 2.46650000000000E+0003	 1.40564526405229E-0001	
 2.46850000000000E+0003	 1.40728310849673E-0001	
 2.47050000000000E+0003	 1.40904095294118E-0001	
 2.47250000000000E+0003	 1.41078879738562E-0001	
 2.47450000000000E+0003	 1.41259664183007E-0001	
 2.47650000000000E+0003	 1.41446948627451E-0001	
 2.47850000000000E+0003	 1.41642733071895E-0001	
 2.48050000000000E+0003	 1.41834517516340E-0001	
 2.48250000000000E+0003	 1.42027301960784E-0001	
 2.48450000000000E+0003	 1.42218586405229E-0001	
 2.48650000000000E+0003	 1.42420370849673E-0001	
 2.48850000000000E+0003	 1.42625655294118E-0001	
 2.49050000000000E+0003	 1.42831439738562E-0001	
 2.49250000000000E+0003	 1.43034224183007E-0001	
 2.49450000000000E+0003	 1.43244508627451E-0001	
 2.49650000000000E+0003	 1.43457793071895E-0001	
 2.49850000000000E+0003	 1.43679077516340E-0001	
 2.50050000000000E+0003	 1.43899361960784E-0001	
 2.50250000000000E+0003	 1.44121646405229E-0001	
 2.50450000000000E+0003	 1.44340930849673E-0001	
 2.50650000000000E+0003	 1.44567715294118E-0001	
 2.50850000000000E+0003	 1.44792999738562E-0001	
 2.51050000000000E+0003	 1.45014784183007E-0001	
 2.51250000000000E+0003	 1.45231068627451E-0001	
 2.51450000000000E+0003	 1.45449353071895E-0001	
 2.51650000000000E+0003	 1.45659637516340E-0001	
 2.51850000000000E+0003	 1.45868421960784E-0001	
 2.52050000000000E+0003	 1.46068206405229E-0001	
 2.52250000000000E+0003	 1.46268490849673E-0001	
 2.52450000000000E+0003	 1.46465275294118E-0001	
 2.52650000000000E+0003	 1.46663559738562E-0001	
 2.52850000000000E+0003	 1.46854844183007E-0001	
 2.53050000000000E+0003	 1.47041628627451E-0001	
 2.53250000000000E+0003	 1.47222913071895E-0001	
 2.53450000000000E+0003	 1.47399197516340E-0001	
 2.53650000000000E+0003	 1.47566481960784E-0001	
 2.53850000000000E+0003	 1.47731766405229E-0001	
 2.54050000000000E+0003	 1.47890550849673E-0001	
 2.54250000000000E+0003	 1.48045335294118E-0001	
 2.54450000000000E+0003	 1.48188619738562E-0001	
 2.54650000000000E+0003	 1.48324904183007E-0001	
 2.54850000000000E+0003	 1.48457188627451E-0001	
 2.55050000000000E+0003	 1.48586973071895E-0001	
 2.55250000000000E+0003	 1.48714257516340E-0001	
 2.55450000000000E+0003	 1.48835541960784E-0001	
 2.55650000000000E+0003	 1.48951826405229E-0001	
 2.55850000000000E+0003	 1.49067610849673E-0001	
 2.56050000000000E+0003	 1.49183895294118E-0001	
 2.56250000000000E+0003	 1.49299679738562E-0001	
 2.56450000000000E+0003	 1.49411464183007E-0001	
 2.56650000000000E+0003	 1.49521748627451E-0001	
 2.56850000000000E+0003	 1.49640533071895E-0001	
 2.57050000000000E+0003	 1.49776817516340E-0001	
 2.57250000000000E+0003	 1.49924101960784E-0001	
 2.57450000000000E+0003	 1.50073386405229E-0001	
 2.57650000000000E+0003	 1.50223170849673E-0001	
 2.57850000000000E+0003	 1.50376455294118E-0001	
 2.58050000000000E+0003	 1.50536739738562E-0001	
 2.58250000000000E+0003	 1.50702024183007E-0001	
 2.58450000000000E+0003	 1.50874808627451E-0001	
 2.58650000000000E+0003	 1.51051093071895E-0001	
 2.58850000000000E+0003	 1.51230377516340E-0001	
 2.59050000000000E+0003	 1.51424161960784E-0001	
 2.59250000000000E+0003	 1.51634446405229E-0001	
 2.59450000000000E+0003	 1.51856230849673E-0001	
 2.59650000000000E+0003	 1.52091515294118E-0001	
 2.59850000000000E+0003	 1.52341299738562E-0001	
 2.60050000000000E+0003	 1.52600084183007E-0001	
 2.60250000000000E+0003	 1.52864368627451E-0001	
 2.60450000000000E+0003	 1.53135653071895E-0001	
 2.60650000000000E+0003	 1.53413937516340E-0001	
 2.60850000000000E+0003	 1.53691721960784E-0001	
 2.61050000000000E+0003	 1.53970506405229E-0001	
 2.61250000000000E+0003	 1.54250290849673E-0001	
 2.61450000000000E+0003	 1.54532075294118E-0001	
 2.61650000000000E+0003	 1.54816859738562E-0001	
 2.61850000000000E+0003	 1.55099144183007E-0001	
 2.62050000000000E+0003	 1.55383428627451E-0001	
 2.62250000000000E+0003	 1.55672713071895E-0001	
 2.62450000000000E+0003	 1.55958497516340E-0001	
 2.62650000000000E+0003	 1.56241281960784E-0001	
 2.62850000000000E+0003	 1.56530066405229E-0001	
 2.63050000000000E+0003	 1.56819350849673E-0001	
 2.63250000000000E+0003	 1.57102635294118E-0001	
 2.63450000000000E+0003	 1.57383419738562E-0001	
 2.63650000000000E+0003	 1.57665204183007E-0001	
 2.63850000000000E+0003	 1.57946988627451E-0001	
 2.64050000000000E+0003	 1.58226773071895E-0001	
 2.64250000000000E+0003	 1.58505557516340E-0001	
 2.64450000000000E+0003	 1.58785841960784E-0001	
 2.64650000000000E+0003	 1.59068626405229E-0001	
 2.64850000000000E+0003	 1.59351410849673E-0001	
 2.65050000000000E+0003	 1.59634195294118E-0001	
 2.65250000000000E+0003	 1.59921979738562E-0001	
 2.65450000000000E+0003	 1.60212764183007E-0001	
 2.65650000000000E+0003	 1.60499048627451E-0001	
 2.65850000000000E+0003	 1.60786833071895E-0001	
 2.66050000000000E+0003	 1.61081117516340E-0001	
 2.66250000000000E+0003	 1.61384901960784E-0001	
 2.66450000000000E+0003	 1.61691186405229E-0001	
 2.66650000000000E+0003	 1.61996970849673E-0001	
 2.66850000000000E+0003	 1.62303755294118E-0001	
 2.67050000000000E+0003	 1.62621539738562E-0001	
 2.67250000000000E+0003	 1.62950824183007E-0001	
 2.67450000000000E+0003	 1.63279608627451E-0001	
 2.67650000000000E+0003	 1.63603893071895E-0001	
 2.67850000000000E+0003	 1.63937677516340E-0001	
 2.68050000000000E+0003	 1.64281461960784E-0001	
 2.68250000000000E+0003	 1.64623246405229E-0001	
 2.68450000000000E+0003	 1.64960530849673E-0001	
 2.68650000000000E+0003	 1.65302815294118E-0001	
 2.68850000000000E+0003	 1.65645099738562E-0001	
 2.69050000000000E+0003	 1.65985884183007E-0001	
 2.69250000000000E+0003	 1.66333668627451E-0001	
 2.69450000000000E+0003	 1.66689453071895E-0001	
 2.69650000000000E+0003	 1.67044737516340E-0001	
 2.69850000000000E+0003	 1.67401521960784E-0001	
 2.70050000000000E+0003	 1.67774306405229E-0001	
 2.70250000000000E+0003	 1.68160590849673E-0001	
 2.70450000000000E+0003	 1.68552875294118E-0001	
 2.70650000000000E+0003	 1.68962159738562E-0001	
 2.70850000000000E+0003	 1.69392444183007E-0001	
 2.71050000000000E+0003	 1.69836228627451E-0001	
 2.71250000000000E+0003	 1.70294013071895E-0001	
 2.71450000000000E+0003	 1.70765797516340E-0001	
 2.71650000000000E+0003	 1.71252581960784E-0001	
 2.71850000000000E+0003	 1.71744866405229E-0001	
 2.72050000000000E+0003	 1.72237150849673E-0001	
 2.72250000000000E+0003	 1.72725935294118E-0001	
 2.72450000000000E+0003	 1.73214219738562E-0001	
 2.72650000000000E+0003	 1.73708004183007E-0001	
 2.72850000000000E+0003	 1.74195788627451E-0001	
 2.73050000000000E+0003	 1.74658073071895E-0001	
 2.73250000000000E+0003	 1.75100857516340E-0001	
 2.73450000000000E+0003	 1.75528641960784E-0001	
 2.73650000000000E+0003	 1.75948426405229E-0001	
 2.73850000000000E+0003	 1.76356210849673E-0001	
 2.74050000000000E+0003	 1.76748495294118E-0001	
 2.74250000000000E+0003	 1.77120779738562E-0001	
 2.74450000000000E+0003	 1.77480064183007E-0001	
 2.74650000000000E+0003	 1.77840848627451E-0001	
 2.74850000000000E+0003	 1.78208133071895E-0001	
 2.75050000000000E+0003	 1.78571417516340E-0001	
 2.75250000000000E+0003	 1.78935701960784E-0001	
 2.75450000000000E+0003	 1.79307986405229E-0001	
 2.75650000000000E+0003	 1.79693270849673E-0001	
 2.75850000000000E+0003	 1.80090055294118E-0001	
 2.76050000000000E+0003	 1.80499839738562E-0001	
 2.76250000000000E+0003	 1.80918624183007E-0001	
 2.76450000000000E+0003	 1.81349408627451E-0001	
 2.76650000000000E+0003	 1.81793193071895E-0001	
 2.76850000000000E+0003	 1.82247477516340E-0001	
 2.77050000000000E+0003	 1.82707261960784E-0001	
 2.77250000000000E+0003	 1.83179046405229E-0001	
 2.77450000000000E+0003	 1.83668330849673E-0001	
 2.77650000000000E+0003	 1.84164615294118E-0001	
 2.77850000000000E+0003	 1.84655399738562E-0001	
 2.78050000000000E+0003	 1.85154684183007E-0001	
 2.78250000000000E+0003	 1.85663468627451E-0001	
 2.78450000000000E+0003	 1.86182253071895E-0001	
 2.78650000000000E+0003	 1.86716037516340E-0001	
 2.78850000000000E+0003	 1.87271321960784E-0001	
 2.79050000000000E+0003	 1.87836606405229E-0001	
 2.79250000000000E+0003	 1.88405890849673E-0001	
 2.79450000000000E+0003	 1.88988675294118E-0001	
 2.79650000000000E+0003	 1.89596459738562E-0001	
 2.79850000000000E+0003	 1.90233744183007E-0001	
 2.80050000000000E+0003	 1.90875528627451E-0001	
 2.80250000000000E+0003	 1.91526813071895E-0001	
 2.80450000000000E+0003	 1.92198097516340E-0001	
 2.80650000000000E+0003	 1.92886881960784E-0001	
 2.80850000000000E+0003	 1.93597166405229E-0001	
 2.81050000000000E+0003	 1.94333450849673E-0001	
 2.81250000000000E+0003	 1.95087235294118E-0001	
 2.81450000000000E+0003	 1.95856519738562E-0001	
 2.81650000000000E+0003	 1.96639804183007E-0001	
 2.81850000000000E+0003	 1.97445088627451E-0001	
 2.82050000000000E+0003	 1.98273873071895E-0001	
 2.82250000000000E+0003	 1.99133657516340E-0001	
 2.82450000000000E+0003	 2.00017941960784E-0001	
 2.82650000000000E+0003	 2.00936726405229E-0001	
 2.82850000000000E+0003	 2.01898010849673E-0001	
 2.83050000000000E+0003	 2.02911795294118E-0001	
 2.83250000000000E+0003	 2.03989579738562E-0001	
 2.83450000000000E+0003	 2.05169364183007E-0001	
 2.83650000000000E+0003	 2.06479148627451E-0001	
 2.83850000000000E+0003	 2.07983933071895E-0001	
 2.84050000000000E+0003	 2.09730217516340E-0001	
 2.84250000000000E+0003	 2.11831501960784E-0001	
 2.84450000000000E+0003	 2.14423786405229E-0001	
 2.84650000000000E+0003	 2.17524070849673E-0001	
 2.84850000000000E+0003	 2.20931355294118E-0001	
 2.85050000000000E+0003	 2.24238139738562E-0001	
 2.85250000000000E+0003	 2.26954424183007E-0001	
 2.85450000000000E+0003	 2.28776208627451E-0001	
 2.85650000000000E+0003	 2.29767493071895E-0001	
 2.85850000000000E+0003	 2.30310277516340E-0001	
 2.86050000000000E+0003	 2.30806061960784E-0001	
 2.86250000000000E+0003	 2.31548846405229E-0001	
 2.86450000000000E+0003	 2.32714130849673E-0001	
 2.86650000000000E+0003	 2.34313415294118E-0001	
 2.86850000000000E+0003	 2.36180199738562E-0001	
 2.87050000000000E+0003	 2.38091484183007E-0001	
 2.87250000000000E+0003	 2.39787768627451E-0001	
 2.87450000000000E+0003	 2.41005053071895E-0001	
 2.87650000000000E+0003	 2.41676837516340E-0001	
 2.87850000000000E+0003	 2.42001621960784E-0001	
 2.88050000000000E+0003	 2.42179906405229E-0001	
 2.88250000000000E+0003	 2.42380690849673E-0001	
 2.88450000000000E+0003	 2.42722475294118E-0001	
 2.88650000000000E+0003	 2.43267259738562E-0001	
 2.88850000000000E+0003	 2.44014544183007E-0001	
 2.89050000000000E+0003	 2.44943828627451E-0001	
 2.89250000000000E+0003	 2.46018113071895E-0001	
 2.89450000000000E+0003	 2.47229397516340E-0001	
 2.89650000000000E+0003	 2.48532681960784E-0001	
 2.89850000000000E+0003	 2.49890466405229E-0001	
 2.90050000000000E+0003	 2.51315750849673E-0001	
 2.90250000000000E+0003	 2.52853535294118E-0001	
 2.90450000000000E+0003	 2.54542319738562E-0001	
 2.90650000000000E+0003	 2.56449604183007E-0001	
 2.90850000000000E+0003	 2.58660888627451E-0001	
 2.91050000000000E+0003	 2.61234173071895E-0001	
 2.91250000000000E+0003	 2.64180957516340E-0001	
 2.91450000000000E+0003	 2.67415241960784E-0001	
 2.91650000000000E+0003	 2.70773026405229E-0001	
 2.91850000000000E+0003	 2.74086810849673E-0001	
 2.92050000000000E+0003	 2.77109595294118E-0001	
 2.92250000000000E+0003	 2.79630879738562E-0001	
 2.92450000000000E+0003	 2.81529664183007E-0001	
 2.92650000000000E+0003	 2.82809448627451E-0001	
 2.92850000000000E+0003	 2.83578233071895E-0001	
 2.93050000000000E+0003	 2.83873517516340E-0001	
 2.93250000000000E+0003	 2.83706801960784E-0001	
 2.93450000000000E+0003	 2.83172586405229E-0001	
 2.93650000000000E+0003	 2.82273870849673E-0001	
 2.93850000000000E+0003	 2.81014655294118E-0001	
 2.94050000000000E+0003	 2.79508439738562E-0001	
 2.94250000000000E+0003	 2.77942224183007E-0001	
 2.94450000000000E+0003	 2.76449508627451E-0001	
 2.94650000000000E+0003	 2.75162293071895E-0001	
 2.94850000000000E+0003	 2.74243577516340E-0001	
 2.95050000000000E+0003	 2.73859361960784E-0001	
 2.95250000000000E+0003	 2.74009646405229E-0001	
 2.95450000000000E+0003	 2.74453430849673E-0001	
 2.95650000000000E+0003	 2.74969215294118E-0001	
 2.95850000000000E+0003	 2.75333999738562E-0001	
 2.96050000000000E+0003	 2.75338284183007E-0001	
 2.96250000000000E+0003	 2.74842068627451E-0001	
 2.96450000000000E+0003	 2.73780353071895E-0001	
 2.96650000000000E+0003	 2.72203137516340E-0001	
 2.96850000000000E+0003	 2.70202421960784E-0001	
 2.97050000000000E+0003	 2.67896206405229E-0001	
 2.97250000000000E+0003	 2.65463990849673E-0001	
 2.97450000000000E+0003	 2.63067775294118E-0001	
 2.97650000000000E+0003	 2.60800559738562E-0001	
 2.97850000000000E+0003	 2.58723344183007E-0001	
 2.98050000000000E+0003	 2.56814628627451E-0001	
 2.98250000000000E+0003	 2.55006913071895E-0001	
 2.98450000000000E+0003	 2.53325197516340E-0001	
 2.98650000000000E+0003	 2.51827481960784E-0001	
 2.98850000000000E+0003	 2.50533766405229E-0001	
 2.99050000000000E+0003	 2.49464050849673E-0001	
 2.99250000000000E+0003	 2.48617835294118E-0001	
 2.99450000000000E+0003	 2.47971119738562E-0001	
 2.99650000000000E+0003	 2.47593904183007E-0001	
 2.99850000000000E+0003	 2.47475688627451E-0001	
 3.00050000000000E+0003	 2.47530473071895E-0001	
 3.00250000000000E+0003	 2.47720757516340E-0001	
 3.00450000000000E+0003	 2.47968041960784E-0001	
 3.00650000000000E+0003	 2.48181826405229E-0001	
 3.00850000000000E+0003	 2.48364610849673E-0001	
 3.01050000000000E+0003	 2.48581395294118E-0001	
 3.01250000000000E+0003	 2.48836679738562E-0001	
 3.01450000000000E+0003	 2.49110964183007E-0001	
 3.01650000000000E+0003	 2.49439748627451E-0001	
 3.01850000000000E+0003	 2.49896533071895E-0001	
 3.02050000000000E+0003	 2.50537817516340E-0001	
 3.02250000000000E+0003	 2.51358101960784E-0001	
 3.02450000000000E+0003	 2.52326386405229E-0001	
 3.02650000000000E+0003	 2.53369170849673E-0001	
 3.02850000000000E+0003	 2.54456455294118E-0001	
 3.03050000000000E+0003	 2.55590239738562E-0001	
 3.03250000000000E+0003	 2.56762024183007E-0001	
 3.03450000000000E+0003	 2.57959308627451E-0001	
 3.03650000000000E+0003	 2.59156093071895E-0001	
 3.03850000000000E+0003	 2.60388877516340E-0001	
 3.04050000000000E+0003	 2.61713661960784E-0001	
 3.04250000000000E+0003	 2.63083946405229E-0001	
 3.04450000000000E+0003	 2.64441230849673E-0001	
 3.04650000000000E+0003	 2.65796515294118E-0001	
 3.04850000000000E+0003	 2.67185299738562E-0001	
 3.05050000000000E+0003	 2.68624584183007E-0001	
 3.05250000000000E+0003	 2.70047368627451E-0001	
 3.05450000000000E+0003	 2.71439153071895E-0001	
 3.05650000000000E+0003	 2.72815437516340E-0001	
 3.05850000000000E+0003	 2.74133721960784E-0001	
 3.06050000000000E+0003	 2.75371006405229E-0001	
 3.06250000000000E+0003	 2.76533290849673E-0001	
 3.06450000000000E+0003	 2.77614075294118E-0001	
 3.06650000000000E+0003	 2.78629859738562E-0001	
 3.06850000000000E+0003	 2.79557644183007E-0001	
 3.07050000000000E+0003	 2.80394428627451E-0001	
 3.07250000000000E+0003	 2.81182213071895E-0001	
 3.07450000000000E+0003	 2.81931997516340E-0001	
 3.07650000000000E+0003	 2.82652781960784E-0001	
 3.07850000000000E+0003	 2.83358066405229E-0001	
 3.08050000000000E+0003	 2.84010350849673E-0001	
 3.08250000000000E+0003	 2.84612635294118E-0001	
 3.08450000000000E+0003	 2.85185419738562E-0001	
 3.08650000000000E+0003	 2.85712204183007E-0001	
 3.08850000000000E+0003	 2.86210488627451E-0001	
 3.09050000000000E+0003	 2.86707273071895E-0001	
 3.09250000000000E+0003	 2.87167557516340E-0001	
 3.09450000000000E+0003	 2.87611341960784E-0001	
 3.09650000000000E+0003	 2.88075126405229E-0001	
 3.09850000000000E+0003	 2.88568910849673E-0001	
 3.10050000000000E+0003	 2.89098695294118E-0001	
 3.10250000000000E+0003	 2.89660979738562E-0001	
 3.10450000000000E+0003	 2.90241764183007E-0001	
 3.10650000000000E+0003	 2.90879548627451E-0001	
 3.10850000000000E+0003	 2.91594833071895E-0001	
 3.11050000000000E+0003	 2.92340617516340E-0001	
 3.11250000000000E+0003	 2.93112901960784E-0001	
 3.11450000000000E+0003	 2.93987686405229E-0001	
 3.11650000000000E+0003	 2.94960970849673E-0001	
 3.11850000000000E+0003	 2.95979255294118E-0001	
 3.12050000000000E+0003	 2.97017539738562E-0001	
 3.12250000000000E+0003	 2.98066324183007E-0001	
 3.12450000000000E+0003	 2.99171108627451E-0001	
 3.12650000000000E+0003	 3.00378893071895E-0001	
 3.12850000000000E+0003	 3.01668177516340E-0001	
 3.13050000000000E+0003	 3.02994461960784E-0001	
 3.13250000000000E+0003	 3.04347246405229E-0001	
 3.13450000000000E+0003	 3.05756030849673E-0001	
 3.13650000000000E+0003	 3.07233815294118E-0001	
 3.13850000000000E+0003	 3.08793099738562E-0001	
 3.14050000000000E+0003	 3.10344384183007E-0001	
 3.14250000000000E+0003	 3.11876168627451E-0001	
 3.14450000000000E+0003	 3.13473953071895E-0001	
 3.14650000000000E+0003	 3.15143737516340E-0001	
 3.14850000000000E+0003	 3.16872521960784E-0001	
 3.15050000000000E+0003	 3.18703306405229E-0001	
 3.15250000000000E+0003	 3.20555090849673E-0001	
 3.15450000000000E+0003	 3.22315875294118E-0001	
 3.15650000000000E+0003	 3.24077659738562E-0001	
 3.15850000000000E+0003	 3.25931444183007E-0001	
 3.16050000000000E+0003	 3.27845228627451E-0001	
 3.16250000000000E+0003	 3.29790513071895E-0001	
 3.16450000000000E+0003	 3.31753297516340E-0001	
 3.16650000000000E+0003	 3.33732081960784E-0001	
 3.16850000000000E+0003	 3.35719866405229E-0001	
 3.17050000000000E+0003	 3.37718150849673E-0001	
 3.17250000000000E+0003	 3.39720935294118E-0001	
 3.17450000000000E+0003	 3.41721719738562E-0001	
 3.17650000000000E+0003	 3.43714004183007E-0001	
 3.17850000000000E+0003	 3.45715788627451E-0001	
 3.18050000000000E+0003	 3.47705073071895E-0001	
 3.18250000000000E+0003	 3.49658357516340E-0001	
 3.18450000000000E+0003	 3.51588141960784E-0001	
 3.18650000000000E+0003	 3.53506926405229E-0001	
 3.18850000000000E+0003	 3.55396210849673E-0001	
 3.19050000000000E+0003	 3.57241995294118E-0001	
 3.19250000000000E+0003	 3.59044279738562E-0001	
 3.19450000000000E+0003	 3.60812564183007E-0001	
 3.19650000000000E+0003	 3.62552848627451E-0001	
 3.19850000000000E+0003	 3.64264133071895E-0001	
 3.20050000000000E+0003	 3.65933417516340E-0001	
 3.20250000000000E+0003	 3.67555201960784E-0001	
 3.20450000000000E+0003	 3.69143986405229E-0001	
 3.20650000000000E+0003	 3.70705270849673E-0001	
 3.20850000000000E+0003	 3.72232555294118E-0001	
 3.21050000000000E+0003	 3.73748339738562E-0001	
 3.21250000000000E+0003	 3.75255624183007E-0001	
 3.21450000000000E+0003	 3.76762908627451E-0001	
 3.21650000000000E+0003	 3.78268193071895E-0001	
 3.21850000000000E+0003	 3.79777977516340E-0001	
 3.22050000000000E+0003	 3.81291761960784E-0001	
 3.22250000000000E+0003	 3.82803046405229E-0001	
 3.22450000000000E+0003	 3.84326830849673E-0001	
 3.22650000000000E+0003	 3.85885615294118E-0001	
 3.22850000000000E+0003	 3.87489899738562E-0001	
 3.23050000000000E+0003	 3.89173684183007E-0001	
 3.23250000000000E+0003	 3.90938468627451E-0001	
 3.23450000000000E+0003	 3.92655753071895E-0001	
 3.23650000000000E+0003	 3.94322537516340E-0001	
 3.23850000000000E+0003	 3.96073821960784E-0001	
 3.24050000000000E+0003	 3.97911106405229E-0001	
 3.24250000000000E+0003	 3.99808890849673E-0001	
 3.24450000000000E+0003	 4.01793175294118E-0001	
 3.24650000000000E+0003	 4.03850459738562E-0001	
 3.24850000000000E+0003	 4.05890744183007E-0001	
 3.25050000000000E+0003	 4.07938528627451E-0001	
 3.25250000000000E+0003	 4.10060813071895E-0001	
 3.25450000000000E+0003	 4.12264097516340E-0001	
 3.25650000000000E+0003	 4.14494381960784E-0001	
 3.25850000000000E+0003	 4.16716666405229E-0001	
 3.26050000000000E+0003	 4.18947950849673E-0001	
 3.26250000000000E+0003	 4.21188735294118E-0001	
 3.26450000000000E+0003	 4.23417019738562E-0001	
 3.26650000000000E+0003	 4.25624804183007E-0001	
 3.26850000000000E+0003	 4.27807088627451E-0001	
 3.27050000000000E+0003	 4.29930873071895E-0001	
 3.27250000000000E+0003	 4.31923657516340E-0001	
 3.27450000000000E+0003	 4.33819441960784E-0001	
 3.27650000000000E+0003	 4.35646726405229E-0001	
 3.27850000000000E+0003	 4.37369010849673E-0001	
 3.28050000000000E+0003	 4.38989795294118E-0001	
 3.28250000000000E+0003	 4.40515079738562E-0001	
 3.28450000000000E+0003	 4.41936364183007E-0001	
 3.28650000000000E+0003	 4.43251148627451E-0001	
 3.28850000000000E+0003	 4.44472933071895E-0001	
 3.29050000000000E+0003	 4.45620717516340E-0001	
 3.29250000000000E+0003	 4.46671501960784E-0001	
 3.29450000000000E+0003	 4.47585786405229E-0001	
 3.29650000000000E+0003	 4.48382570849673E-0001	
 3.29850000000000E+0003	 4.49105855294118E-0001	
 3.30050000000000E+0003	 4.49770139738562E-0001	
 3.30250000000000E+0003	 4.50393424183007E-0001	
 3.30450000000000E+0003	 4.50989208627451E-0001	
 3.30650000000000E+0003	 4.51499993071895E-0001	
 3.30850000000000E+0003	 4.51897277516340E-0001	
 3.31050000000000E+0003	 4.52236061960784E-0001	
 3.31250000000000E+0003	 4.52568346405229E-0001	
 3.31450000000000E+0003	 4.52914630849673E-0001	
 3.31650000000000E+0003	 4.53243415294118E-0001	
 3.31850000000000E+0003	 4.53562699738562E-0001	
 3.32050000000000E+0003	 4.53888484183007E-0001	
 3.32250000000000E+0003	 4.54223268627451E-0001	
 3.32450000000000E+0003	 4.54582053071895E-0001	
 3.32650000000000E+0003	 4.54949837516340E-0001	
 3.32850000000000E+0003	 4.55295121960784E-0001	
 3.33050000000000E+0003	 4.55654406405229E-0001	
 3.33250000000000E+0003	 4.56048190849673E-0001	
 3.33450000000000E+0003	 4.56466475294118E-0001	
 3.33650000000000E+0003	 4.56930759738562E-0001	
 3.33850000000000E+0003	 4.57416044183007E-0001	
 3.34050000000000E+0003	 4.57865328627451E-0001	
 3.34250000000000E+0003	 4.58314113071895E-0001	
 3.34450000000000E+0003	 4.58780397516340E-0001	
 3.34650000000000E+0003	 4.59259181960784E-0001	
 3.34850000000000E+0003	 4.59799466405229E-0001	
 3.35050000000000E+0003	 4.60370250849673E-0001	
 3.35250000000000E+0003	 4.60870535294118E-0001	
 3.35450000000000E+0003	 4.61344319738562E-0001	
 3.35650000000000E+0003	 4.61871604183007E-0001	
 3.35850000000000E+0003	 4.62433388627451E-0001	
 3.36050000000000E+0003	 4.63000673071895E-0001	
 3.36250000000000E+0003	 4.63564457516340E-0001	
 3.36450000000000E+0003	 4.64159241960784E-0001	
 3.36650000000000E+0003	 4.64817026405229E-0001	
 3.36850000000000E+0003	 4.65473810849673E-0001	
 3.37050000000000E+0003	 4.66009095294118E-0001	
 3.37250000000000E+0003	 4.66459379738562E-0001	
 3.37450000000000E+0003	 4.66970664183007E-0001	
 3.37650000000000E+0003	 4.67539448627451E-0001	
 3.37850000000000E+0003	 4.68101233071895E-0001	
 3.38050000000000E+0003	 4.68649017516340E-0001	
 3.38250000000000E+0003	 4.69186801960784E-0001	
 3.38450000000000E+0003	 4.69726586405229E-0001	
 3.38650000000000E+0003	 4.70276370849673E-0001	
 3.38850000000000E+0003	 4.70878655294118E-0001	
 3.39050000000000E+0003	 4.71541439738562E-0001	
 3.39250000000000E+0003	 4.72113224183007E-0001	
 3.39450000000000E+0003	 4.72543008627451E-0001	
 3.39650000000000E+0003	 4.73024793071895E-0001	
 3.39850000000000E+0003	 4.73669577516340E-0001	
 3.40050000000000E+0003	 4.74281861960784E-0001	
 3.40250000000000E+0003	 4.74661646405229E-0001	
 3.40450000000000E+0003	 4.74956430849673E-0001	
 3.40650000000000E+0003	 4.75340715294118E-0001	
 3.40850000000000E+0003	 4.75768999738562E-0001	
 3.41050000000000E+0003	 4.76138784183007E-0001	
 3.41250000000000E+0003	 4.76424068627451E-0001	
 3.41450000000000E+0003	 4.76585353071895E-0001	
 3.41650000000000E+0003	 4.76648137516340E-0001	
 3.41850000000000E+0003	 4.76667421960784E-0001	
 3.42050000000000E+0003	 4.76663706405229E-0001	
 3.42250000000000E+0003	 4.76595490849673E-0001	
 3.42450000000000E+0003	 4.76459275294118E-0001	
 3.42650000000000E+0003	 4.76305559738562E-0001	
 3.42850000000000E+0003	 4.76140344183007E-0001	
 3.43050000000000E+0003	 4.75914628627451E-0001	
 3.43250000000000E+0003	 4.75650913071895E-0001	
 3.43450000000000E+0003	 4.75369197516340E-0001	
 3.43650000000000E+0003	 4.74967981960784E-0001	
 3.43850000000000E+0003	 4.74404766405229E-0001	
 3.44050000000000E+0003	 4.73791050849673E-0001	
 3.44250000000000E+0003	 4.73205335294118E-0001	
 3.44450000000000E+0003	 4.72603119738562E-0001	
 3.44650000000000E+0003	 4.71986404183007E-0001	
 3.44850000000000E+0003	 4.71331688627451E-0001	
 3.45050000000000E+0003	 4.70589473071895E-0001	
 3.45250000000000E+0003	 4.69816757516340E-0001	
 3.45450000000000E+0003	 4.69023041960784E-0001	
 3.45650000000000E+0003	 4.68217326405229E-0001	
 3.45850000000000E+0003	 4.67393610849673E-0001	
 3.46050000000000E+0003	 4.66480895294118E-0001	
 3.46250000000000E+0003	 4.65484179738562E-0001	
 3.46450000000000E+0003	 4.64560464183007E-0001	
 3.46650000000000E+0003	 4.63735248627451E-0001	
 3.46850000000000E+0003	 4.62744033071895E-0001	
 3.47050000000000E+0003	 4.61415817516340E-0001	
 3.47250000000000E+0003	 4.59999601960784E-0001	
 3.47450000000000E+0003	 4.58716386405229E-0001	
 3.47650000000000E+0003	 4.57538670849673E-0001	
 3.47850000000000E+0003	 4.56374955294118E-0001	
 3.48050000000000E+0003	 4.55063239738562E-0001	
 3.48250000000000E+0003	 4.53624524183007E-0001	
 3.48450000000000E+0003	 4.52243308627451E-0001	
 3.48650000000000E+0003	 4.50888593071895E-0001	
 3.48850000000000E+0003	 4.49451377516340E-0001	
 3.49050000000000E+0003	 4.47973661960784E-0001	
 3.49250000000000E+0003	 4.46523446405229E-0001	
 3.49450000000000E+0003	 4.45083730849673E-0001	
 3.49650000000000E+0003	 4.43615015294118E-0001	
 3.49850000000000E+0003	 4.42070799738562E-0001	
 3.50050000000000E+0003	 4.40514084183007E-0001	
 3.50250000000000E+0003	 4.38935368627451E-0001	
 3.50450000000000E+0003	 4.37207153071895E-0001	
 3.50650000000000E+0003	 4.35400937516340E-0001	
 3.50850000000000E+0003	 4.33651721960784E-0001	
 3.51050000000000E+0003	 4.31992506405229E-0001	
 3.51250000000000E+0003	 4.30371290849673E-0001	
 3.51450000000000E+0003	 4.28636575294118E-0001	
 3.51650000000000E+0003	 4.26763359738562E-0001	
 3.51850000000000E+0003	 4.24895144183007E-0001	
 3.52050000000000E+0003	 4.23100928627451E-0001	
 3.52250000000000E+0003	 4.21359713071895E-0001	
 3.52450000000000E+0003	 4.19450497516340E-0001	
 3.52650000000000E+0003	 4.17373281960784E-0001	
 3.52850000000000E+0003	 4.15384066405229E-0001	
 3.53050000000000E+0003	 4.13445350849673E-0001	
 3.53250000000000E+0003	 4.11496635294118E-0001	
 3.53450000000000E+0003	 4.09590919738562E-0001	
 3.53650000000000E+0003	 4.07609704183007E-0001	
 3.53850000000000E+0003	 4.05448488627451E-0001	
 3.54050000000000E+0003	 4.03335273071895E-0001	
 3.54250000000000E+0003	 4.01343057516340E-0001	
 3.54450000000000E+0003	 3.99243841960784E-0001	
 3.54650000000000E+0003	 3.96862126405229E-0001	
 3.54850000000000E+0003	 3.94393910849673E-0001	
 3.55050000000000E+0003	 3.92051195294118E-0001	
 3.55250000000000E+0003	 3.89734479738562E-0001	
 3.55450000000000E+0003	 3.87342264183007E-0001	
 3.55650000000000E+0003	 3.84946048627451E-0001	
 3.55850000000000E+0003	 3.82566833071895E-0001	
 3.56050000000000E+0003	 3.80140117516340E-0001	
 3.56250000000000E+0003	 3.77592401960784E-0001	
 3.56450000000000E+0003	 3.74927186405229E-0001	
 3.56650000000000E+0003	 3.72283970849673E-0001	
 3.56850000000000E+0003	 3.69780755294118E-0001	
 3.57050000000000E+0003	 3.67237539738562E-0001	
 3.57250000000000E+0003	 3.64570824183007E-0001	
 3.57450000000000E+0003	 3.61850608627451E-0001	
 3.57650000000000E+0003	 3.59136893071895E-0001	
 3.57850000000000E+0003	 3.56436677516340E-0001	
 3.58050000000000E+0003	 3.53741461960784E-0001	
 3.58250000000000E+0003	 3.51036746405229E-0001	
 3.58450000000000E+0003	 3.48236030849673E-0001	
 3.58650000000000E+0003	 3.45205815294118E-0001	
 3.58850000000000E+0003	 3.42067099738562E-0001	
 3.59050000000000E+0003	 3.39034884183007E-0001	
 3.59250000000000E+0003	 3.36097668627451E-0001	
 3.59450000000000E+0003	 3.33097453071895E-0001	
 3.59650000000000E+0003	 3.30079737516340E-0001	
 3.59850000000000E+0003	 3.27092021960784E-0001	
 3.60050000000000E+0003	 3.24054806405229E-0001	
 3.60250000000000E+0003	 3.20958590849673E-0001	
 3.60450000000000E+0003	 3.17801375294118E-0001	
 3.60650000000000E+0003	 3.14549159738562E-0001	
 3.60850000000000E+0003	 3.11241444183007E-0001	
 3.61050000000000E+0003	 3.07956228627451E-0001	
 3.61250000000000E+0003	 3.04781013071895E-0001	
 3.61450000000000E+0003	 3.01643297516340E-0001	
 3.61650000000000E+0003	 2.98420081960784E-0001	
 3.61850000000000E+0003	 2.95280366405229E-0001	
 3.62050000000000E+0003	 2.92150650849673E-0001	
 3.62250000000000E+0003	 2.88820435294118E-0001	
 3.62450000000000E+0003	 2.85514219738562E-0001	
 3.62650000000000E+0003	 2.82191504183007E-0001	
 3.62850000000000E+0003	 2.78833788627451E-0001	
 3.63050000000000E+0003	 2.75515073071895E-0001	
 3.63250000000000E+0003	 2.72267857516340E-0001	
 3.63450000000000E+0003	 2.69161141960784E-0001	
 3.63650000000000E+0003	 2.65938426405229E-0001	
 3.63850000000000E+0003	 2.62762210849673E-0001	
 3.64050000000000E+0003	 2.59583495294118E-0001	
 3.64250000000000E+0003	 2.56413779738562E-0001	
 3.64450000000000E+0003	 2.53241064183007E-0001	
 3.64650000000000E+0003	 2.50096848627451E-0001	
 3.64850000000000E+0003	 2.47008633071895E-0001	
 3.65050000000000E+0003	 2.44079917516340E-0001	
 3.65250000000000E+0003	 2.41098701960784E-0001	
 3.65450000000000E+0003	 2.38103986405229E-0001	
 3.65650000000000E+0003	 2.35307770849673E-0001	
 3.65850000000000E+0003	 2.32570055294118E-0001	
 3.66050000000000E+0003	 2.29862839738562E-0001	
 3.66250000000000E+0003	 2.27101624183007E-0001	
 3.66450000000000E+0003	 2.24400908627451E-0001	
 3.66650000000000E+0003	 2.21872693071895E-0001	
 3.66850000000000E+0003	 2.19377477516340E-0001	
 3.67050000000000E+0003	 2.17034261960784E-0001	
 3.67250000000000E+0003	 2.14683046405229E-0001	
 3.67450000000000E+0003	 2.12435330849673E-0001	
 3.67650000000000E+0003	 2.10361115294118E-0001	
 3.67850000000000E+0003	 2.08259399738562E-0001	
 3.68050000000000E+0003	 2.06376184183007E-0001	
 3.68250000000000E+0003	 2.04463468627451E-0001	
 3.68450000000000E+0003	 2.02695253071895E-0001	
 3.68650000000000E+0003	 2.00973037516340E-0001	
 3.68850000000000E+0003	 1.99309321960784E-0001	
 3.69050000000000E+0003	 1.97682606405229E-0001	
 3.69250000000000E+0003	 1.96040390849673E-0001	
 3.69450000000000E+0003	 1.94452175294118E-0001	
 3.69650000000000E+0003	 1.92989459738562E-0001	
 3.69850000000000E+0003	 1.91568744183007E-0001	
 3.70050000000000E+0003	 1.90231028627451E-0001	
 3.70250000000000E+0003	 1.89044813071895E-0001	
 3.70450000000000E+0003	 1.87833597516340E-0001	
 3.70650000000000E+0003	 1.86632881960784E-0001	
 3.70850000000000E+0003	 1.85488166405229E-0001	
 3.71050000000000E+0003	 1.84399450849673E-0001	
 3.71250000000000E+0003	 1.83450735294118E-0001	
 3.71450000000000E+0003	 1.82522019738562E-0001	
 3.71650000000000E+0003	 1.81597304183007E-0001	
 3.71850000000000E+0003	 1.80701588627451E-0001	
 3.72050000000000E+0003	 1.79785873071895E-0001	
 3.72250000000000E+0003	 1.78953657516340E-0001	
 3.72450000000000E+0003	 1.78104941960784E-0001	
 3.72650000000000E+0003	 1.77276726405229E-0001	
 3.72850000000000E+0003	 1.76466510849673E-0001	
 3.73050000000000E+0003	 1.75655295294118E-0001	
 3.73250000000000E+0003	 1.75007079738562E-0001	
 3.73450000000000E+0003	 1.74354864183007E-0001	
 3.73650000000000E+0003	 1.73698648627451E-0001	
 3.73850000000000E+0003	 1.72946933071895E-0001	
 3.74050000000000E+0003	 1.72392217516340E-0001	
 3.74250000000000E+0003	 1.71630501960784E-0001	
 3.74450000000000E+0003	 1.70878786405229E-0001	
 3.74650000000000E+0003	 1.70199070849673E-0001	
 3.74850000000000E+0003	 1.69512855294118E-0001	
 3.75050000000000E+0003	 1.68890639738562E-0001	
 3.75250000000000E+0003	 1.68386424183007E-0001	
 3.75450000000000E+0003	 1.67902708627451E-0001	
 3.75650000000000E+0003	 1.67393993071895E-0001	
 3.75850000000000E+0003	 1.66869277516340E-0001	
 3.76050000000000E+0003	 1.66393061960784E-0001	
 3.76250000000000E+0003	 1.65849346405229E-0001	
 3.76450000000000E+0003	 1.65308130849673E-0001	
 3.76650000000000E+0003	 1.64821415294118E-0001	
 3.76850000000000E+0003	 1.64256699738562E-0001	
 3.77050000000000E+0003	 1.63832484183007E-0001	
 3.77250000000000E+0003	 1.63348268627451E-0001	
 3.77450000000000E+0003	 1.62878053071895E-0001	
 3.77650000000000E+0003	 1.62398337516340E-0001	
 3.77850000000000E+0003	 1.61946621960784E-0001	
 3.78050000000000E+0003	 1.61555406405229E-0001	
 3.78250000000000E+0003	 1.61026190849673E-0001	
 3.78450000000000E+0003	 1.60561475294118E-0001	
 3.78650000000000E+0003	 1.60153259738562E-0001	
 3.78850000000000E+0003	 1.59746044183007E-0001	
 3.79050000000000E+0003	 1.59338828627451E-0001	
 3.79250000000000E+0003	 1.58910613071895E-0001	
 3.79450000000000E+0003	 1.58405397516340E-0001	
 3.79650000000000E+0003	 1.58042181960784E-0001	
 3.79850000000000E+0003	 1.57670966405229E-0001	
 3.80050000000000E+0003	 1.57173750849673E-0001	
 3.80250000000000E+0003	 1.56876535294118E-0001	
 3.80450000000000E+0003	 1.56406819738562E-0001	
 3.80650000000000E+0003	 1.56072604183007E-0001	
 3.80850000000000E+0003	 1.55755888627451E-0001	
 3.81050000000000E+0003	 1.55388173071895E-0001	
 3.81250000000000E+0003	 1.55108957516340E-0001	
 3.81450000000000E+0003	 1.54631241960784E-0001	
 3.81650000000000E+0003	 1.54302026405229E-0001	
 3.81850000000000E+0003	 1.53909310849673E-0001	
 3.82050000000000E+0003	 1.53631095294118E-0001	
 3.82250000000000E+0003	 1.53410379738562E-0001	
 3.82450000000000E+0003	 1.52935664183007E-0001	
 3.82650000000000E+0003	 1.52671448627451E-0001	
 3.82850000000000E+0003	 1.52362233071895E-0001	
 3.83050000000000E+0003	 1.52023517516340E-0001	
 3.83250000000000E+0003	 1.51808801960784E-0001	
 3.83450000000000E+0003	 1.51623086405229E-0001	
 3.83650000000000E+0003	 1.51306370849673E-0001	
 3.83850000000000E+0003	 1.50882655294118E-0001	
 3.84050000000000E+0003	 1.50508939738562E-0001	
 3.84250000000000E+0003	 1.50243724183007E-0001	
 3.84450000000000E+0003	 1.50036008627451E-0001	
 3.84650000000000E+0003	 1.49752293071895E-0001	
 3.84850000000000E+0003	 1.49517577516340E-0001	
 3.85050000000000E+0003	 1.49298361960784E-0001	
 3.85250000000000E+0003	 1.48931646405229E-0001	
 3.85450000000000E+0003	 1.48695430849673E-0001	
 3.85650000000000E+0003	 1.48323715294118E-0001	
 3.85850000000000E+0003	 1.48105999738562E-0001	
 3.86050000000000E+0003	 1.47879284183007E-0001	
 3.86250000000000E+0003	 1.47631068627451E-0001	
 3.86450000000000E+0003	 1.47457353071895E-0001	
 3.86650000000000E+0003	 1.47274637516340E-0001	
 3.86850000000000E+0003	 1.46925421960784E-0001	
 3.87050000000000E+0003	 1.46718706405229E-0001	
 3.87250000000000E+0003	 1.46395490849673E-0001	
 3.87450000000000E+0003	 1.46284775294118E-0001	
 3.87650000000000E+0003	 1.46099059738562E-0001	
 3.87850000000000E+0003	 1.45801344183007E-0001	
 3.88050000000000E+0003	 1.45661128627451E-0001	
 3.88250000000000E+0003	 1.45507413071895E-0001	
 3.88450000000000E+0003	 1.45254197516340E-0001	
 3.88650000000000E+0003	 1.45050981960784E-0001	
 3.88850000000000E+0003	 1.44762766405229E-0001	
 3.89050000000000E+0003	 1.44656550849673E-0001	
 3.89250000000000E+0003	 1.44530335294118E-0001	
 3.89450000000000E+0003	 1.44291119738562E-0001	
 3.89650000000000E+0003	 1.44116904183007E-0001	
 3.89850000000000E+0003	 1.43955688627451E-0001	
 3.90050000000000E+0003	 1.43705973071895E-0001	
 3.90250000000000E+0003	 1.43380757516340E-0001	
 3.90450000000000E+0003	 1.43279541960784E-0001	
 3.90650000000000E+0003	 1.43190326405229E-0001	
 3.90850000000000E+0003	 1.43033610849673E-0001	
 3.91050000000000E+0003	 1.42883395294118E-0001	
 3.91250000000000E+0003	 1.42749179738562E-0001	
 3.91450000000000E+0003	 1.42587964183007E-0001	
 3.91650000000000E+0003	 1.42394248627451E-0001	
 3.91850000000000E+0003	 1.42178533071895E-0001	
 3.92050000000000E+0003	 1.42042317516340E-0001	
 3.92250000000000E+0003	 1.41916601960784E-0001	
 3.92450000000000E+0003	 1.41803886405229E-0001	
 3.92650000000000E+0003	 1.41675170849673E-0001	
 3.92850000000000E+0003	 1.41518955294118E-0001	
 3.93050000000000E+0003	 1.41361739738562E-0001	
 3.93250000000000E+0003	 1.41165524183007E-0001	
 3.93450000000000E+0003	 1.41007308627451E-0001	
 3.93650000000000E+0003	 1.40886593071895E-0001	
 3.93850000000000E+0003	 1.40783377516340E-0001	
 3.94050000000000E+0003	 1.40627661960784E-0001	
 3.94250000000000E+0003	 1.40490446405229E-0001	
 3.94450000000000E+0003	 1.40327730849673E-0001	
 3.94650000000000E+0003	 1.40138515294118E-0001	
 3.94850000000000E+0003	 1.39985299738562E-0001	
 3.95050000000000E+0003	 1.39859584183007E-0001	
 3.95250000000000E+0003	 1.39740868627451E-0001	
 3.95450000000000E+0003	 1.39611153071895E-0001	
 3.95650000000000E+0003	 1.39473937516340E-0001	
 3.95850000000000E+0003	 1.39337221960784E-0001	
 3.96050000000000E+0003	 1.39187006405229E-0001	
 3.96250000000000E+0003	 1.39041790849673E-0001	
 3.96450000000000E+0003	 1.38915575294118E-0001	
 3.96650000000000E+0003	 1.38807859738562E-0001	
 3.96850000000000E+0003	 1.38686144183007E-0001	
 3.97050000000000E+0003	 1.38558428627451E-0001	
 3.97250000000000E+0003	 1.38432713071895E-0001	
 3.97450000000000E+0003	 1.38307497516340E-0001	
 3.97650000000000E+0003	 1.38175281960784E-0001	
 3.97850000000000E+0003	 1.38052066405229E-0001	
 3.98050000000000E+0003	 1.37945350849673E-0001	
 3.98250000000000E+0003	 1.37853635294118E-0001	
 3.98450000000000E+0003	 1.37742419738562E-0001	
 3.98650000000000E+0003	 1.37608204183007E-0001	
 3.98850000000000E+0003	 1.37464988627451E-0001	
 3.99050000000000E+0003	 1.37339273071895E-0001	
 3.99250000000000E+0003	 1.37214057516340E-0001	
 3.99450000000000E+0003	 1.37098841960784E-0001	
 3.99650000000000E+0003	 1.36931126405229E-0001	
 3.99850000000000E+0003	 1.36805566176471E-0001	

>1	DATALINE
