*CPCWIN*

>1	DATALINE
DATALINE
1
Operator:

Description:

Remarks:





15.9.2008
11:32


_x	_y
	
	
UNIT	UNIT
 4.50500000000000E+0002	 3.51490200111524E-0001	
 4.52500000000000E+0002	 3.53366500557621E-0001	
 4.54500000000000E+0002	 3.55627801003717E-0001	
 4.56500000000000E+0002	 3.56828601449814E-0001	
 4.58500000000000E+0002	 3.59144401895911E-0001	
 4.60500000000000E+0002	 3.64685202342007E-0001	
 4.62500000000000E+0002	 3.67600502788104E-0001	
 4.64500000000000E+0002	 3.70556803234201E-0001	
 4.66500000000000E+0002	 3.73094103680297E-0001	
 4.68500000000000E+0002	 3.75692404126394E-0001	
 4.70500000000000E+0002	 3.78338704572491E-0001	
 4.72500000000000E+0002	 3.81082505018587E-0001	
 4.74500000000000E+0002	 3.83618805464684E-0001	
 4.76500000000000E+0002	 3.86294105910781E-0001	
 4.78500000000000E+0002	 3.89444906356877E-0001	
 4.80500000000000E+0002	 3.92435706802974E-0001	
 4.82500000000000E+0002	 3.95369507249071E-0001	
 4.84500000000000E+0002	 3.98485307695167E-0001	
 4.86500000000000E+0002	 4.01960108141264E-0001	
 4.88500000000000E+0002	 4.05843408587361E-0001	
 4.90500000000000E+0002	 4.09411209033457E-0001	
 4.92500000000000E+0002	 4.13126509479554E-0001	
 4.94500000000000E+0002	 4.17304809925651E-0001	
 4.96500000000000E+0002	 4.21508110371747E-0001	
 4.98500000000000E+0002	 4.25428910817844E-0001	
 5.00500000000000E+0002	 4.28430711263941E-0001	
 5.02500000000000E+0002	 4.31726511710037E-0001	
 5.04500000000000E+0002	 4.35817812156134E-0001	
 5.06500000000000E+0002	 4.39373112602230E-0001	
 5.08500000000000E+0002	 4.42477913048327E-0001	
 5.10500000000000E+0002	 4.45439713494424E-0001	
 5.12500000000000E+0002	 4.48443513940520E-0001	
 5.14500000000000E+0002	 4.51201814386617E-0001	
 5.16500000000000E+0002	 4.53675614832714E-0001	
 5.18500000000000E+0002	 4.56634415278810E-0001	
 5.20500000000000E+0002	 4.59941715724907E-0001	
 5.22500000000000E+0002	 4.62905516171004E-0001	
 5.24500000000000E+0002	 4.64991316617100E-0001	
 5.26500000000000E+0002	 4.67688117063197E-0001	
 5.28500000000000E+0002	 4.71119417509294E-0001	
 5.30500000000000E+0002	 4.73520717955390E-0001	
 5.32500000000000E+0002	 4.74250018401487E-0001	
 5.34500000000000E+0002	 4.73868818847584E-0001	
 5.36500000000000E+0002	 4.72764619293680E-0001	
 5.38500000000000E+0002	 4.71257919739777E-0001	
 5.40500000000000E+0002	 4.69378720185874E-0001	
 5.42500000000000E+0002	 4.67178020631970E-0001	
 5.44500000000000E+0002	 4.64770821078067E-0001	
 5.46500000000000E+0002	 4.62586621524164E-0001	
 5.48500000000000E+0002	 4.60702421970260E-0001	
 5.50500000000000E+0002	 4.59169722416357E-0001	
 5.52500000000000E+0002	 4.57856522862454E-0001	
 5.54500000000000E+0002	 4.56686823308550E-0001	
 5.56500000000000E+0002	 4.55680623754647E-0001	
 5.58500000000000E+0002	 4.55008924200743E-0001	
 5.60500000000000E+0002	 4.54571724646840E-0001	
 5.62500000000000E+0002	 4.54331525092937E-0001	
 5.64500000000000E+0002	 4.54202325539033E-0001	
 5.66500000000000E+0002	 4.54252625985130E-0001	
 5.68500000000000E+0002	 4.54371926431227E-0001	
 5.70500000000000E+0002	 4.54458726877323E-0001	
 5.72500000000000E+0002	 4.54402527323420E-0001	
 5.74500000000000E+0002	 4.53912827769517E-0001	
 5.76500000000000E+0002	 4.53055128215613E-0001	
 5.78500000000000E+0002	 4.51717928661710E-0001	
 5.80500000000000E+0002	 4.49371729107807E-0001	
 5.82500000000000E+0002	 4.46774029553903E-0001	
 5.84500000000000E+0002	 4.44406330000000E-0001	
 5.86500000000000E+0002	 4.42727130446097E-0001	
 5.88500000000000E+0002	 4.41717930892193E-0001	
 5.90500000000000E+0002	 4.41187731338290E-0001	
 5.92500000000000E+0002	 4.41391531784387E-0001	
 5.94500000000000E+0002	 4.42117832230483E-0001	
 5.96500000000000E+0002	 4.42739132676580E-0001	
 5.98500000000000E+0002	 4.43134933122677E-0001	
 6.00500000000000E+0002	 4.43603233568773E-0001	
 6.02500000000000E+0002	 4.44309534014870E-0001	
 6.04500000000000E+0002	 4.44958334460967E-0001	
 6.06500000000000E+0002	 4.45593134907063E-0001	
 6.08500000000000E+0002	 4.46135435353160E-0001	
 6.10500000000000E+0002	 4.46526235799257E-0001	
 6.12500000000000E+0002	 4.46532036245353E-0001	
 6.14500000000000E+0002	 4.45937836691450E-0001	
 6.16500000000000E+0002	 4.44698637137546E-0001	
 6.18500000000000E+0002	 4.43009937583643E-0001	
 6.20500000000000E+0002	 4.41101238029740E-0001	
 6.22500000000000E+0002	 4.39224038475836E-0001	
 6.24500000000000E+0002	 4.37429338921933E-0001	
 6.26500000000000E+0002	 4.35982139368030E-0001	
 6.28500000000000E+0002	 4.34819439814126E-0001	
 6.30500000000000E+0002	 4.33713240260223E-0001	
 6.32500000000000E+0002	 4.32637540706320E-0001	
 6.34500000000000E+0002	 4.31734341152416E-0001	
 6.36500000000000E+0002	 4.31164641598513E-0001	
 6.38500000000000E+0002	 4.30729442044610E-0001	
 6.40500000000000E+0002	 4.30129742490706E-0001	
 6.42500000000000E+0002	 4.29311042936803E-0001	
 6.44500000000000E+0002	 4.28089843382900E-0001	
 6.46500000000000E+0002	 4.26638143828996E-0001	
 6.48500000000000E+0002	 4.25124944275093E-0001	
 6.50500000000000E+0002	 4.23648244721190E-0001	
 6.52500000000000E+0002	 4.22313045167286E-0001	
 6.54500000000000E+0002	 4.21251345613383E-0001	
 6.56500000000000E+0002	 4.20408646059480E-0001	
 6.58500000000000E+0002	 4.19692946505576E-0001	
 6.60500000000000E+0002	 4.19122746951673E-0001	
 6.62500000000000E+0002	 4.18550547397770E-0001	
 6.64500000000000E+0002	 4.17854347843866E-0001	
 6.66500000000000E+0002	 4.17094148289963E-0001	
 6.68500000000000E+0002	 4.15629448736059E-0001	
 6.70500000000000E+0002	 4.13726249182156E-0001	
 6.72500000000000E+0002	 4.12186049628253E-0001	
 6.74500000000000E+0002	 4.10407850074349E-0001	
 6.76500000000000E+0002	 4.08560650520446E-0001	
 6.78500000000000E+0002	 4.06761950966543E-0001	
 6.80500000000000E+0002	 4.05125251412639E-0001	
 6.82500000000000E+0002	 4.03655051858736E-0001	
 6.84500000000000E+0002	 4.02324352304833E-0001	
 6.86500000000000E+0002	 4.01111152750929E-0001	
 6.88500000000000E+0002	 4.00081953197026E-0001	
 6.90500000000000E+0002	 3.99440253643123E-0001	
 6.92500000000000E+0002	 3.99181554089219E-0001	
 6.94500000000000E+0002	 3.99245354535316E-0001	
 6.96500000000000E+0002	 3.99569154981413E-0001	
 6.98500000000000E+0002	 3.99844955427509E-0001	
 7.00500000000000E+0002	 3.99633255873606E-0001	
 7.02500000000000E+0002	 3.98598556319703E-0001	
 7.04500000000000E+0002	 3.96788356765799E-0001	
 7.06500000000000E+0002	 3.94386157211896E-0001	
 7.08500000000000E+0002	 3.91479457657993E-0001	
 7.10500000000000E+0002	 3.88269758104089E-0001	
 7.12500000000000E+0002	 3.85019558550186E-0001	
 7.14500000000000E+0002	 3.81920858996283E-0001	
 7.16500000000000E+0002	 3.79140659442379E-0001	
 7.18500000000000E+0002	 3.76734959888476E-0001	
 7.20500000000000E+0002	 3.74479260334572E-0001	
 7.22500000000000E+0002	 3.72039560780669E-0001	
 7.24500000000000E+0002	 3.69185361226766E-0001	
 7.26500000000000E+0002	 3.65977661672862E-0001	
 7.28500000000000E+0002	 3.62675962118959E-0001	
 7.30500000000000E+0002	 3.59511262565056E-0001	
 7.32500000000000E+0002	 3.56696063011152E-0001	
 7.34500000000000E+0002	 3.54281863457249E-0001	
 7.36500000000000E+0002	 3.52208663903346E-0001	
 7.38500000000000E+0002	 3.50375464349442E-0001	
 7.40500000000000E+0002	 3.48754764795539E-0001	
 7.42500000000000E+0002	 3.47332065241636E-0001	
 7.44500000000000E+0002	 3.46067865687732E-0001	
 7.46500000000000E+0002	 3.44905666133829E-0001	
 7.48500000000000E+0002	 3.43734966579926E-0001	
 7.50500000000000E+0002	 3.42336767026022E-0001	
 7.52500000000000E+0002	 3.40621067472119E-0001	
 7.54500000000000E+0002	 3.38642867918216E-0001	
 7.56500000000000E+0002	 3.36464168364312E-0001	
 7.58500000000000E+0002	 3.34163968810409E-0001	
 7.60500000000000E+0002	 3.31989769256506E-0001	
 7.62500000000000E+0002	 3.30128069702602E-0001	
 7.64500000000000E+0002	 3.28405870148699E-0001	
 7.66500000000000E+0002	 3.26353170594796E-0001	
 7.68500000000000E+0002	 3.23851471040892E-0001	
 7.70500000000000E+0002	 3.21344271486989E-0001	
 7.72500000000000E+0002	 3.19406071933086E-0001	
 7.74500000000000E+0002	 3.18500372379182E-0001	
 7.76500000000000E+0002	 3.19030172825279E-0001	
 7.78500000000000E+0002	 3.20292973271375E-0001	
 7.80500000000000E+0002	 3.20284273717472E-0001	
 7.82500000000000E+0002	 3.18303074163569E-0001	
 7.84500000000000E+0002	 3.15789374609665E-0001	
 7.86500000000000E+0002	 3.13774175055762E-0001	
 7.88500000000000E+0002	 3.12312975501859E-0001	
 7.90500000000000E+0002	 3.11474275947955E-0001	
 7.92500000000000E+0002	 3.11755076394052E-0001	
 7.94500000000000E+0002	 3.13296876840149E-0001	
 7.96500000000000E+0002	 3.15428177286245E-0001	
 7.98500000000000E+0002	 3.17441977732342E-0001	
 8.00500000000000E+0002	 3.19223778178439E-0001	
 8.02500000000000E+0002	 3.20482078624535E-0001	
 8.04500000000000E+0002	 3.20522879070632E-0001	
 8.06500000000000E+0002	 3.18775179516729E-0001	
 8.08500000000000E+0002	 3.15617479962825E-0001	
 8.10500000000000E+0002	 3.12007280408922E-0001	
 8.12500000000000E+0002	 3.08835580855019E-0001	
 8.14500000000000E+0002	 3.06399381301115E-0001	
 8.16500000000000E+0002	 3.04646181747212E-0001	
 8.18500000000000E+0002	 3.03434482193309E-0001	
 8.20500000000000E+0002	 3.02722282639405E-0001	
 8.22500000000000E+0002	 3.02373583085502E-0001	
 8.24500000000000E+0002	 3.02349883531599E-0001	
 8.26500000000000E+0002	 3.02572183977695E-0001	
 8.28500000000000E+0002	 3.03006484423792E-0001	
 8.30500000000000E+0002	 3.03601284869888E-0001	
 8.32500000000000E+0002	 3.04410085315985E-0001	
 8.34500000000000E+0002	 3.05311885762082E-0001	
 8.36500000000000E+0002	 3.06200686208178E-0001	
 8.38500000000000E+0002	 3.06929986654275E-0001	
 8.40500000000000E+0002	 3.07533287100372E-0001	
 8.42500000000000E+0002	 3.08068587546468E-0001	
 8.44500000000000E+0002	 3.08702887992565E-0001	
 8.46500000000000E+0002	 3.09564688438662E-0001	
 8.48500000000000E+0002	 3.10783988884758E-0001	
 8.50500000000000E+0002	 3.12340789330855E-0001	
 8.52500000000000E+0002	 3.14181589776952E-0001	
 8.54500000000000E+0002	 3.16120390223048E-0001	
 8.56500000000000E+0002	 3.17969190669145E-0001	
 8.58500000000000E+0002	 3.19443491115242E-0001	
 8.60500000000000E+0002	 3.20285291561338E-0001	
 8.62500000000000E+0002	 3.20302092007435E-0001	
 8.64500000000000E+0002	 3.19509892453532E-0001	
 8.66500000000000E+0002	 3.18047192899628E-0001	
 8.68500000000000E+0002	 3.16316493345725E-0001	
 8.70500000000000E+0002	 3.14766793791822E-0001	
 8.72500000000000E+0002	 3.13182094237918E-0001	
 8.74500000000000E+0002	 3.10878394684015E-0001	
 8.76500000000000E+0002	 3.08277195130112E-0001	
 8.78500000000000E+0002	 3.05882995576208E-0001	
 8.80500000000000E+0002	 3.03690796022305E-0001	
 8.82500000000000E+0002	 3.01564096468401E-0001	
 8.84500000000000E+0002	 2.99497896914498E-0001	
 8.86500000000000E+0002	 2.97519697360595E-0001	
 8.88500000000000E+0002	 2.95831497806691E-0001	
 8.90500000000000E+0002	 2.94623798252788E-0001	
 8.92500000000000E+0002	 2.94021598698885E-0001	
 8.94500000000000E+0002	 2.93974399144981E-0001	
 8.96500000000000E+0002	 2.94445199591078E-0001	
 8.98500000000000E+0002	 2.95339500037175E-0001	
 9.00500000000000E+0002	 2.96728300483271E-0001	
 9.02500000000000E+0002	 2.98662600929368E-0001	
 9.04500000000000E+0002	 3.01203901375465E-0001	
 9.06500000000000E+0002	 3.04203701821561E-0001	
 9.08500000000000E+0002	 3.07462002267658E-0001	
 9.10500000000000E+0002	 3.10618302713755E-0001	
 9.12500000000000E+0002	 3.13354103159851E-0001	
 9.14500000000000E+0002	 3.15344903605948E-0001	
 9.16500000000000E+0002	 3.16549204052045E-0001	
 9.18500000000000E+0002	 3.17070004498141E-0001	
 9.20500000000000E+0002	 3.17308804944238E-0001	
 9.22500000000000E+0002	 3.17722605390335E-0001	
 9.24500000000000E+0002	 3.18750905836431E-0001	
 9.26500000000000E+0002	 3.20568706282528E-0001	
 9.28500000000000E+0002	 3.23182006728625E-0001	
 9.30500000000000E+0002	 3.26370307174721E-0001	
 9.32500000000000E+0002	 3.29912607620818E-0001	
 9.34500000000000E+0002	 3.33527908066914E-0001	
 9.36500000000000E+0002	 3.37031208513011E-0001	
 9.38500000000000E+0002	 3.40217508959108E-0001	
 9.40500000000000E+0002	 3.42928809405204E-0001	
 9.42500000000000E+0002	 3.44960609851301E-0001	
 9.44500000000000E+0002	 3.46181410297398E-0001	
 9.46500000000000E+0002	 3.46558210743494E-0001	
 9.48500000000000E+0002	 3.46280011189591E-0001	
 9.50500000000000E+0002	 3.45762311635688E-0001	
 9.52500000000000E+0002	 3.45636112081784E-0001	
 9.54500000000000E+0002	 3.46452912527881E-0001	
 9.56500000000000E+0002	 3.48542712973978E-0001	
 9.58500000000000E+0002	 3.51904513420074E-0001	
 9.60500000000000E+0002	 3.56373313866171E-0001	
 9.62500000000000E+0002	 3.61623614312268E-0001	
 9.64500000000000E+0002	 3.67371414758364E-0001	
 9.66500000000000E+0002	 3.73429215204461E-0001	
 9.68500000000000E+0002	 3.79898015650558E-0001	
 9.70500000000000E+0002	 3.87182816096654E-0001	
 9.72500000000000E+0002	 3.96070116542751E-0001	
 9.74500000000000E+0002	 4.07451916988848E-0001	
 9.76500000000000E+0002	 4.22143717434944E-0001	
 9.78500000000000E+0002	 4.40562517881041E-0001	
 9.80500000000000E+0002	 4.62373318327138E-0001	
 9.82500000000000E+0002	 4.86244618773234E-0001	
 9.84500000000000E+0002	 5.10145419219331E-0001	
 9.86500000000000E+0002	 5.31721719665428E-0001	
 9.88500000000000E+0002	 5.48991520111524E-0001	
 9.90500000000000E+0002	 5.60712320557621E-0001	
 9.92500000000000E+0002	 5.66538621003717E-0001	
 9.94500000000000E+0002	 5.66939421449814E-0001	
 9.96500000000000E+0002	 5.63192221895911E-0001	
 9.98500000000000E+0002	 5.57288522342007E-0001	
 1.00050000000000E+0003	 5.51733322788104E-0001	
 1.00250000000000E+0003	 5.48829123234201E-0001	
 1.00450000000000E+0003	 5.50089923680297E-0001	
 1.00650000000000E+0003	 5.55809224126394E-0001	
 1.00850000000000E+0003	 5.65214024572491E-0001	
 1.01050000000000E+0003	 5.76680825018587E-0001	
 1.01250000000000E+0003	 5.88646125464684E-0001	
 1.01450000000000E+0003	 6.00130925910781E-0001	
 1.01650000000000E+0003	 6.11000726356877E-0001	
 1.01850000000000E+0003	 6.21777526802974E-0001	
 1.02050000000000E+0003	 6.33348327249071E-0001	
 1.02250000000000E+0003	 6.46372627695167E-0001	
 1.02450000000000E+0003	 6.60711428141264E-0001	
 1.02650000000000E+0003	 6.75270228587361E-0001	
 1.02850000000000E+0003	 6.88554029033457E-0001	
 1.03050000000000E+0003	 6.99207329479554E-0001	
 1.03250000000000E+0003	 7.06696629925651E-0001	
 1.03450000000000E+0003	 7.11482430371747E-0001	
 1.03650000000000E+0003	 7.14652230817844E-0001	
 1.03850000000000E+0003	 7.17285031263941E-0001	
 1.04050000000000E+0003	 7.20230331710037E-0001	
 1.04250000000000E+0003	 7.24078132156134E-0001	
 1.04450000000000E+0003	 7.28985432602230E-0001	
 1.04650000000000E+0003	 7.34334233048327E-0001	
 1.04850000000000E+0003	 7.39039033494424E-0001	
 1.05050000000000E+0003	 7.41995833940520E-0001	
 1.05250000000000E+0003	 7.42654634386617E-0001	
 1.05450000000000E+0003	 7.41409934832714E-0001	
 1.05650000000000E+0003	 7.39240235278810E-0001	
 1.05850000000000E+0003	 7.36787535724907E-0001	
 1.06050000000000E+0003	 7.34242836171004E-0001	
 1.06250000000000E+0003	 7.31631636617100E-0001	
 1.06450000000000E+0003	 7.29296437063197E-0001	
 1.06650000000000E+0003	 7.27965737509294E-0001	
 1.06850000000000E+0003	 7.28311037955390E-0001	
 1.07050000000000E+0003	 7.30414338401487E-0001	
 1.07250000000000E+0003	 7.33737638847584E-0001	
 1.07450000000000E+0003	 7.37191439293680E-0001	
 1.07650000000000E+0003	 7.39538739739777E-0001	
 1.07850000000000E+0003	 7.39564540185874E-0001	
 1.08050000000000E+0003	 7.36514840631970E-0001	
 1.08250000000000E+0003	 7.30171641078067E-0001	
 1.08450000000000E+0003	 7.21014941524164E-0001	
 1.08650000000000E+0003	 7.09984241970260E-0001	
 1.08850000000000E+0003	 6.98376542416357E-0001	
 1.09050000000000E+0003	 6.87402842862454E-0001	
 1.09250000000000E+0003	 6.78069143308550E-0001	
 1.09450000000000E+0003	 6.70799943754647E-0001	
 1.09650000000000E+0003	 6.65501744200743E-0001	
 1.09850000000000E+0003	 6.61638544646840E-0001	
 1.10050000000000E+0003	 6.58601345092937E-0001	
 1.10250000000000E+0003	 6.55705645539033E-0001	
 1.10450000000000E+0003	 6.52473945985130E-0001	
 1.10650000000000E+0003	 6.48651246431227E-0001	
 1.10850000000000E+0003	 6.44223546877323E-0001	
 1.11050000000000E+0003	 6.39229847323420E-0001	
 1.11250000000000E+0003	 6.33655147769517E-0001	
 1.11450000000000E+0003	 6.27173448215613E-0001	
 1.11650000000000E+0003	 6.19439248661710E-0001	
 1.11850000000000E+0003	 6.10254549107807E-0001	
 1.12050000000000E+0003	 5.99785349553903E-0001	
 1.12250000000000E+0003	 5.88344150000000E-0001	
 1.12450000000000E+0003	 5.76361450446097E-0001	
 1.12650000000000E+0003	 5.64191750892193E-0001	
 1.12850000000000E+0003	 5.52199551338290E-0001	
 1.13050000000000E+0003	 5.40651851784387E-0001	
 1.13250000000000E+0003	 5.30056652230483E-0001	
 1.13450000000000E+0003	 5.21001952676580E-0001	
 1.13650000000000E+0003	 5.14098753122677E-0001	
 1.13850000000000E+0003	 5.09803053568773E-0001	
 1.14050000000000E+0003	 5.08410354014870E-0001	
 1.14250000000000E+0003	 5.09684154460967E-0001	
 1.14450000000000E+0003	 5.12741454907063E-0001	
 1.14650000000000E+0003	 5.16013255353160E-0001	
 1.14850000000000E+0003	 5.17727555799257E-0001	
 1.15050000000000E+0003	 5.16350856245353E-0001	
 1.15250000000000E+0003	 5.11181156691450E-0001	
 1.15450000000000E+0003	 5.02342957137546E-0001	
 1.15650000000000E+0003	 4.90763257583643E-0001	
 1.15850000000000E+0003	 4.77653058029740E-0001	
 1.16050000000000E+0003	 4.64323358475836E-0001	
 1.16250000000000E+0003	 4.51737158921933E-0001	
 1.16450000000000E+0003	 4.40552959368030E-0001	
 1.16650000000000E+0003	 4.31061259814126E-0001	
 1.16850000000000E+0003	 4.23370060260223E-0001	
 1.17050000000000E+0003	 4.17220360706320E-0001	
 1.17250000000000E+0003	 4.12151661152416E-0001	
 1.17450000000000E+0003	 4.07748461598513E-0001	
 1.17650000000000E+0003	 4.04062262044610E-0001	
 1.17850000000000E+0003	 4.01406062490706E-0001	
 1.18050000000000E+0003	 4.00249862936803E-0001	
 1.18250000000000E+0003	 4.00869163382900E-0001	
 1.18450000000000E+0003	 4.03480463828996E-0001	
 1.18650000000000E+0003	 4.08134764275093E-0001	
 1.18850000000000E+0003	 4.14799064721190E-0001	
 1.19050000000000E+0003	 4.23241365167286E-0001	
 1.19250000000000E+0003	 4.33257665613383E-0001	
 1.19450000000000E+0003	 4.44503466059480E-0001	
 1.19650000000000E+0003	 4.56567766505576E-0001	
 1.19850000000000E+0003	 4.68942566951673E-0001	
 1.20050000000000E+0003	 4.81154867397770E-0001	
 1.20250000000000E+0003	 4.92760667843866E-0001	
 1.20450000000000E+0003	 5.03517468289963E-0001	
 1.20650000000000E+0003	 5.13299268736059E-0001	
 1.20850000000000E+0003	 5.22154569182156E-0001	
 1.21050000000000E+0003	 5.30247369628253E-0001	
 1.21250000000000E+0003	 5.37924670074349E-0001	
 1.21450000000000E+0003	 5.45375970520446E-0001	
 1.21650000000000E+0003	 5.52650270966543E-0001	
 1.21850000000000E+0003	 5.59592071412639E-0001	
 1.22050000000000E+0003	 5.65569871858736E-0001	
 1.22250000000000E+0003	 5.69593172304833E-0001	
 1.22450000000000E+0003	 5.71424472750929E-0001	
 1.22650000000000E+0003	 5.71889773197026E-0001	
 1.22850000000000E+0003	 5.71848573643123E-0001	
 1.23050000000000E+0003	 5.71433874089219E-0001	
 1.23250000000000E+0003	 5.70510674535316E-0001	
 1.23450000000000E+0003	 5.68978474981413E-0001	
 1.23650000000000E+0003	 5.66775775427509E-0001	
 1.23850000000000E+0003	 5.63764075873606E-0001	
 1.24050000000000E+0003	 5.59853876319703E-0001	
 1.24250000000000E+0003	 5.55032676765799E-0001	
 1.24450000000000E+0003	 5.49432977211896E-0001	
 1.24650000000000E+0003	 5.43177277657993E-0001	
 1.24850000000000E+0003	 5.36463078104089E-0001	
 1.25050000000000E+0003	 5.29439378550186E-0001	
 1.25250000000000E+0003	 5.22231678996283E-0001	
 1.25450000000000E+0003	 5.14875979442379E-0001	
 1.25650000000000E+0003	 5.07396279888476E-0001	
 1.25850000000000E+0003	 4.99815580334572E-0001	
 1.26050000000000E+0003	 4.92259380780669E-0001	
 1.26250000000000E+0003	 4.84831681226766E-0001	
 1.26450000000000E+0003	 4.77676981672862E-0001	
 1.26650000000000E+0003	 4.70914782118959E-0001	
 1.26850000000000E+0003	 4.64672082565056E-0001	
 1.27050000000000E+0003	 4.59008383011152E-0001	
 1.27250000000000E+0003	 4.53962183457249E-0001	
 1.27450000000000E+0003	 4.49443983903346E-0001	
 1.27650000000000E+0003	 4.45389284349442E-0001	
 1.27850000000000E+0003	 4.41697584795539E-0001	
 1.28050000000000E+0003	 4.38295385241636E-0001	
 1.28250000000000E+0003	 4.34996185687732E-0001	
 1.28450000000000E+0003	 4.31630986133829E-0001	
 1.28650000000000E+0003	 4.28209786579926E-0001	
 1.28850000000000E+0003	 4.25072087026022E-0001	
 1.29050000000000E+0003	 4.22431387472119E-0001	
 1.29250000000000E+0003	 4.20265687918216E-0001	
 1.29450000000000E+0003	 4.18495488364312E-0001	
 1.29650000000000E+0003	 4.17269788810409E-0001	
 1.29850000000000E+0003	 4.16680589256506E-0001	
 1.30050000000000E+0003	 4.16608389702602E-0001	
 1.30250000000000E+0003	 4.16803690148699E-0001	
 1.30450000000000E+0003	 4.17140990594796E-0001	
 1.30650000000000E+0003	 4.17553291040892E-0001	
 1.30850000000000E+0003	 4.18095591486989E-0001	
 1.31050000000000E+0003	 4.18549391933086E-0001	
 1.31250000000000E+0003	 4.18922692379182E-0001	
 1.31450000000000E+0003	 4.19244492825279E-0001	
 1.31650000000000E+0003	 4.19333293271375E-0001	
 1.31850000000000E+0003	 4.19238093717472E-0001	
 1.32050000000000E+0003	 4.19003394163569E-0001	
 1.32250000000000E+0003	 4.18564694609665E-0001	
 1.32450000000000E+0003	 4.18029495055762E-0001	
 1.32650000000000E+0003	 4.17440295501859E-0001	
 1.32850000000000E+0003	 4.16877595947955E-0001	
 1.33050000000000E+0003	 4.16333896394052E-0001	
 1.33250000000000E+0003	 4.15717696840149E-0001	
 1.33450000000000E+0003	 4.14575997286245E-0001	
 1.33650000000000E+0003	 4.12687797732342E-0001	
 1.33850000000000E+0003	 4.10816598178439E-0001	
 1.34050000000000E+0003	 4.09812898624535E-0001	
 1.34250000000000E+0003	 4.08903199070632E-0001	
 1.34450000000000E+0003	 4.07279499516729E-0001	
 1.34650000000000E+0003	 4.05386799962825E-0001	
 1.34850000000000E+0003	 4.04043600408922E-0001	
 1.35050000000000E+0003	 4.03459900855019E-0001	
 1.35250000000000E+0003	 4.03757201301115E-0001	
 1.35450000000000E+0003	 4.05001001747212E-0001	
 1.35650000000000E+0003	 4.06986802193309E-0001	
 1.35850000000000E+0003	 4.09080602639405E-0001	
 1.36050000000000E+0003	 4.11466403085502E-0001	
 1.36250000000000E+0003	 4.16328703531599E-0001	
 1.36450000000000E+0003	 4.24048503977695E-0001	
 1.36650000000000E+0003	 4.32152304423792E-0001	
 1.36850000000000E+0003	 4.39426604869888E-0001	
 1.37050000000000E+0003	 4.44918405315985E-0001	
 1.37250000000000E+0003	 4.48749705762082E-0001	
 1.37450000000000E+0003	 4.52701006208178E-0001	
 1.37650000000000E+0003	 4.55941806654275E-0001	
 1.37850000000000E+0003	 4.57908607100372E-0001	
 1.38050000000000E+0003	 4.59334407546468E-0001	
 1.38250000000000E+0003	 4.60549707992565E-0001	
 1.38450000000000E+0003	 4.61057008438662E-0001	
 1.38650000000000E+0003	 4.61440808884758E-0001	
 1.38850000000000E+0003	 4.62896109330855E-0001	
 1.39050000000000E+0003	 4.64903409776952E-0001	
 1.39250000000000E+0003	 4.63896210223048E-0001	
 1.39450000000000E+0003	 4.64182510669145E-0001	
 1.39650000000000E+0003	 4.65186811115242E-0001	
 1.39850000000000E+0003	 4.66430611561338E-0001	
 1.40050000000000E+0003	 4.67611912007435E-0001	
 1.40250000000000E+0003	 4.67143212453532E-0001	
 1.40450000000000E+0003	 4.65591012899628E-0001	
 1.40650000000000E+0003	 4.63981813345725E-0001	
 1.40850000000000E+0003	 4.62142613791822E-0001	
 1.41050000000000E+0003	 4.60025914237918E-0001	
 1.41250000000000E+0003	 4.57976214684015E-0001	
 1.41450000000000E+0003	 4.55217515130112E-0001	
 1.41650000000000E+0003	 4.50928815576208E-0001	
 1.41850000000000E+0003	 4.47839616022305E-0001	
 1.42050000000000E+0003	 4.45982416468401E-0001	
 1.42250000000000E+0003	 4.43372716914498E-0001	
 1.42450000000000E+0003	 4.39900517360595E-0001	
 1.42650000000000E+0003	 4.36022817806691E-0001	
 1.42850000000000E+0003	 4.32915618252788E-0001	
 1.43050000000000E+0003	 4.31367418698885E-0001	
 1.43250000000000E+0003	 4.30732219144981E-0001	
 1.43450000000000E+0003	 4.29953019591078E-0001	
 1.43650000000000E+0003	 4.32176820037175E-0001	
 1.43850000000000E+0003	 4.37928620483271E-0001	
 1.44050000000000E+0003	 4.42733920929368E-0001	
 1.44250000000000E+0003	 4.46375721375465E-0001	
 1.44450000000000E+0003	 4.49103021821561E-0001	
 1.44650000000000E+0003	 4.51564322267658E-0001	
 1.44850000000000E+0003	 4.54776122713755E-0001	
 1.45050000000000E+0003	 4.57840423159851E-0001	
 1.45250000000000E+0003	 4.59105723605948E-0001	
 1.45450000000000E+0003	 4.57468524052045E-0001	
 1.45650000000000E+0003	 4.55626324498141E-0001	
 1.45850000000000E+0003	 4.52888624944238E-0001	
 1.46050000000000E+0003	 4.48224425390335E-0001	
 1.46250000000000E+0003	 4.42023725836431E-0001	
 1.46450000000000E+0003	 4.34934026282528E-0001	
 1.46650000000000E+0003	 4.27582826728625E-0001	
 1.46850000000000E+0003	 4.19100627174721E-0001	
 1.47050000000000E+0003	 4.08477427620818E-0001	
 1.47250000000000E+0003	 3.97140228066914E-0001	
 1.47450000000000E+0003	 3.86401528513011E-0001	
 1.47650000000000E+0003	 3.79056828959108E-0001	
 1.47850000000000E+0003	 3.74615629405204E-0001	
 1.48050000000000E+0003	 3.72095429851301E-0001	
 1.48250000000000E+0003	 3.71249230297398E-0001	
 1.48450000000000E+0003	 3.71710530743494E-0001	
 1.48650000000000E+0003	 3.73801831189591E-0001	
 1.48850000000000E+0003	 3.78136131635688E-0001	
 1.49050000000000E+0003	 3.86563432081784E-0001	
 1.49250000000000E+0003	 3.96590232527881E-0001	
 1.49450000000000E+0003	 4.06666032973978E-0001	
 1.49650000000000E+0003	 4.18632833420074E-0001	
 1.49850000000000E+0003	 4.31207633866171E-0001	
 1.50050000000000E+0003	 4.43615434312268E-0001	
 1.50250000000000E+0003	 4.55229734758364E-0001	
 1.50450000000000E+0003	 4.66275535204461E-0001	
 1.50650000000000E+0003	 4.84072335650558E-0001	
 1.50850000000000E+0003	 5.02378636096654E-0001	
 1.51050000000000E+0003	 5.19132936542751E-0001	
 1.51250000000000E+0003	 5.37413736988848E-0001	
 1.51450000000000E+0003	 5.54192037434944E-0001	
 1.51650000000000E+0003	 5.69978837881041E-0001	
 1.51850000000000E+0003	 5.82273138327138E-0001	
 1.52050000000000E+0003	 5.94244938773234E-0001	
 1.52250000000000E+0003	 6.07867739219331E-0001	
 1.52450000000000E+0003	 6.18771039665428E-0001	
 1.52650000000000E+0003	 6.31315840111524E-0001	
 1.52850000000000E+0003	 6.44290140557621E-0001	
 1.53050000000000E+0003	 6.54488941003717E-0001	
 1.53250000000000E+0003	 6.64682741449814E-0001	
 1.53450000000000E+0003	 6.76136041895911E-0001	
 1.53650000000000E+0003	 6.83768342342007E-0001	
 1.53850000000000E+0003	 6.92001142788104E-0001	
 1.54050000000000E+0003	 7.00924943234201E-0001	
 1.54250000000000E+0003	 7.04023243680297E-0001	
 1.54450000000000E+0003	 7.06175544126394E-0001	
 1.54650000000000E+0003	 7.06674344572491E-0001	
 1.54850000000000E+0003	 7.03485145018587E-0001	
 1.55050000000000E+0003	 6.96466945464684E-0001	
 1.55250000000000E+0003	 6.86766745910781E-0001	
 1.55450000000000E+0003	 6.73657046356877E-0001	
 1.55650000000000E+0003	 6.58325846802974E-0001	
 1.55850000000000E+0003	 6.45760147249071E-0001	
 1.56050000000000E+0003	 6.29760447695167E-0001	
 1.56250000000000E+0003	 6.16909748141264E-0001	
 1.56450000000000E+0003	 6.05133048587361E-0001	
 1.56650000000000E+0003	 5.91748849033457E-0001	
 1.56850000000000E+0003	 5.80513149479554E-0001	
 1.57050000000000E+0003	 5.69760949925651E-0001	
 1.57250000000000E+0003	 5.59298250371747E-0001	
 1.57450000000000E+0003	 5.51928550817844E-0001	
 1.57650000000000E+0003	 5.44686851263941E-0001	
 1.57850000000000E+0003	 5.34305651710037E-0001	
 1.58050000000000E+0003	 5.26918952156134E-0001	
 1.58250000000000E+0003	 5.21020252602230E-0001	
 1.58450000000000E+0003	 5.16701053048327E-0001	
 1.58650000000000E+0003	 5.13881853494424E-0001	
 1.58850000000000E+0003	 5.13056653940520E-0001	
 1.59050000000000E+0003	 5.13835954386617E-0001	
 1.59250000000000E+0003	 5.16452754832714E-0001	
 1.59450000000000E+0003	 5.20347055278810E-0001	
 1.59650000000000E+0003	 5.25294355724907E-0001	
 1.59850000000000E+0003	 5.30841156171004E-0001	
 1.60050000000000E+0003	 5.37718956617100E-0001	
 1.60250000000000E+0003	 5.45731257063197E-0001	
 1.60450000000000E+0003	 5.55123557509294E-0001	
 1.60650000000000E+0003	 5.65868357955390E-0001	
 1.60850000000000E+0003	 5.79020658401487E-0001	
 1.61050000000000E+0003	 5.94011458847584E-0001	
 1.61250000000000E+0003	 6.10242759293680E-0001	
 1.61450000000000E+0003	 6.27942059739777E-0001	
 1.61650000000000E+0003	 6.51936360185874E-0001	
 1.61850000000000E+0003	 6.74919660631970E-0001	
 1.62050000000000E+0003	 6.94796461078067E-0001	
 1.62250000000000E+0003	 7.19381761524164E-0001	
 1.62450000000000E+0003	 7.47584061970260E-0001	
 1.62650000000000E+0003	 7.74696362416357E-0001	
 1.62850000000000E+0003	 8.03317662862454E-0001	
 1.63050000000000E+0003	 8.30621463308550E-0001	
 1.63250000000000E+0003	 8.53453763754647E-0001	
 1.63450000000000E+0003	 8.77434564200743E-0001	
 1.63650000000000E+0003	 9.04015364646840E-0001	
 1.63850000000000E+0003	 9.21759165092937E-0001	
 1.64050000000000E+0003	 9.35012965539033E-0001	
 1.64250000000000E+0003	 9.45388765985130E-0001	
 1.64450000000000E+0003	 9.53923066431227E-0001	
 1.64650000000000E+0003	 9.65686866877323E-0001	
 1.64850000000000E+0003	 9.74667667323420E-0001	
 1.65050000000000E+0003	 9.79692967769517E-0001	
 1.65250000000000E+0003	 9.89701768215613E-0001	
 1.65450000000000E+0003	 9.97960568661710E-0001	
 1.65650000000000E+0003	 9.97782869107807E-0001	
 1.65850000000000E+0003	 9.94658169553903E-0001	
 1.66050000000000E+0003	 9.87295970000000E-0001	
 1.66250000000000E+0003	 9.77787270446097E-0001	
 1.66450000000000E+0003	 9.64722570892193E-0001	
 1.66650000000000E+0003	 9.50248371338290E-0001	
 1.66850000000000E+0003	 9.36326171784387E-0001	
 1.67050000000000E+0003	 9.21792472230483E-0001	
 1.67250000000000E+0003	 9.06399772676580E-0001	
 1.67450000000000E+0003	 8.92694573122677E-0001	
 1.67650000000000E+0003	 8.78602373568773E-0001	
 1.67850000000000E+0003	 8.64842674014870E-0001	
 1.68050000000000E+0003	 8.49788974460967E-0001	
 1.68250000000000E+0003	 8.35905274907063E-0001	
 1.68450000000000E+0003	 8.24262075353160E-0001	
 1.68650000000000E+0003	 8.07429375799257E-0001	
 1.68850000000000E+0003	 7.91598676245353E-0001	
 1.69050000000000E+0003	 7.75161976691450E-0001	
 1.69250000000000E+0003	 7.56754277137546E-0001	
 1.69450000000000E+0003	 7.39995577583643E-0001	
 1.69650000000000E+0003	 7.20088378029740E-0001	
 1.69850000000000E+0003	 6.99395678475836E-0001	
 1.70050000000000E+0003	 6.81383978921933E-0001	
 1.70250000000000E+0003	 6.64021779368030E-0001	
 1.70450000000000E+0003	 6.51525079814126E-0001	
 1.70650000000000E+0003	 6.38482380260223E-0001	
 1.70850000000000E+0003	 6.25630680706320E-0001	
 1.71050000000000E+0003	 6.13446481152416E-0001	
 1.71250000000000E+0003	 6.00287281598513E-0001	
 1.71450000000000E+0003	 5.86957082044610E-0001	
 1.71650000000000E+0003	 5.73850382490706E-0001	
 1.71850000000000E+0003	 5.57476682936803E-0001	
 1.72050000000000E+0003	 5.40437983382900E-0001	
 1.72250000000000E+0003	 5.26252783828996E-0001	
 1.72450000000000E+0003	 5.12500584275093E-0001	
 1.72650000000000E+0003	 5.00366884721190E-0001	
 1.72850000000000E+0003	 4.90241185167286E-0001	
 1.73050000000000E+0003	 4.81549985613383E-0001	
 1.73250000000000E+0003	 4.75854786059480E-0001	
 1.73450000000000E+0003	 4.73147586505576E-0001	
 1.73650000000000E+0003	 4.69672886951673E-0001	
 1.73850000000000E+0003	 4.68534687397770E-0001	
 1.74050000000000E+0003	 4.67728987843866E-0001	
 1.74250000000000E+0003	 4.66237288289963E-0001	
 1.74450000000000E+0003	 4.64584588736059E-0001	
 1.74650000000000E+0003	 4.61730889182156E-0001	
 1.74850000000000E+0003	 4.57172689628253E-0001	
 1.75050000000000E+0003	 4.51387990074349E-0001	
 1.75250000000000E+0003	 4.44165290520446E-0001	
 1.75450000000000E+0003	 4.35128090966543E-0001	
 1.75650000000000E+0003	 4.24841891412639E-0001	
 1.75850000000000E+0003	 4.12893691858736E-0001	
 1.76050000000000E+0003	 4.01431992304833E-0001	
 1.76250000000000E+0003	 3.90009292750929E-0001	
 1.76450000000000E+0003	 3.78412593197026E-0001	
 1.76650000000000E+0003	 3.67463393643123E-0001	
 1.76850000000000E+0003	 3.56659694089219E-0001	
 1.77050000000000E+0003	 3.48831494535316E-0001	
 1.77250000000000E+0003	 3.42727794981413E-0001	
 1.77450000000000E+0003	 3.34949595427509E-0001	
 1.77650000000000E+0003	 3.28624395873606E-0001	
 1.77850000000000E+0003	 3.23191696319703E-0001	
 1.78050000000000E+0003	 3.18293496765799E-0001	
 1.78250000000000E+0003	 3.13244797211896E-0001	
 1.78450000000000E+0003	 3.09013097657993E-0001	
 1.78650000000000E+0003	 3.05526898104089E-0001	
 1.78850000000000E+0003	 3.01344698550186E-0001	
 1.79050000000000E+0003	 2.97396998996283E-0001	
 1.79250000000000E+0003	 2.95051799442379E-0001	
 1.79450000000000E+0003	 2.92513599888476E-0001	
 1.79650000000000E+0003	 2.89874400334572E-0001	
 1.79850000000000E+0003	 2.87043200780669E-0001	
 1.80050000000000E+0003	 2.83987001226766E-0001	
 1.80250000000000E+0003	 2.81651801672862E-0001	
 1.80450000000000E+0003	 2.80162102118959E-0001	
 1.80650000000000E+0003	 2.78176902565056E-0001	
 1.80850000000000E+0003	 2.75886703011152E-0001	
 1.81050000000000E+0003	 2.74017503457249E-0001	
 1.81250000000000E+0003	 2.72039303903346E-0001	
 1.81450000000000E+0003	 2.70108604349442E-0001	
 1.81650000000000E+0003	 2.68194404795539E-0001	
 1.81850000000000E+0003	 2.66506705241636E-0001	
 1.82050000000000E+0003	 2.64750005687732E-0001	
 1.82250000000000E+0003	 2.62324806133829E-0001	
 1.82450000000000E+0003	 2.60279606579926E-0001	
 1.82650000000000E+0003	 2.58498907026022E-0001	
 1.82850000000000E+0003	 2.57547707472119E-0001	
 1.83050000000000E+0003	 2.56689007918216E-0001	
 1.83250000000000E+0003	 2.55233308364312E-0001	
 1.83450000000000E+0003	 2.54344108810409E-0001	
 1.83650000000000E+0003	 2.53301909256506E-0001	
 1.83850000000000E+0003	 2.52142709702602E-0001	
 1.84050000000000E+0003	 2.50148510148699E-0001	
 1.84250000000000E+0003	 2.47733310594796E-0001	
 1.84450000000000E+0003	 2.47081611040892E-0001	
 1.84650000000000E+0003	 2.46250411486989E-0001	
 1.84850000000000E+0003	 2.45900211933086E-0001	
 1.85050000000000E+0003	 2.45320512379182E-0001	
 1.85250000000000E+0003	 2.44523312825279E-0001	
 1.85450000000000E+0003	 2.43553113271375E-0001	
 1.85650000000000E+0003	 2.42554913717472E-0001	
 1.85850000000000E+0003	 2.41568214163569E-0001	
 1.86050000000000E+0003	 2.40630514609665E-0001	
 1.86250000000000E+0003	 2.39724315055762E-0001	
 1.86450000000000E+0003	 2.38532615501859E-0001	
 1.86650000000000E+0003	 2.37188915947955E-0001	
 1.86850000000000E+0003	 2.36440216394052E-0001	
 1.87050000000000E+0003	 2.35876016840149E-0001	
 1.87250000000000E+0003	 2.35705817286245E-0001	
 1.87450000000000E+0003	 2.35430117732342E-0001	
 1.87650000000000E+0003	 2.34766418178439E-0001	
 1.87850000000000E+0003	 2.34086218624535E-0001	
 1.88050000000000E+0003	 2.33457519070632E-0001	
 1.88250000000000E+0003	 2.32893319516729E-0001	
 1.88450000000000E+0003	 2.32269619962825E-0001	
 1.88650000000000E+0003	 2.31215420408922E-0001	
 1.88850000000000E+0003	 2.30498220855019E-0001	
 1.89050000000000E+0003	 2.30113521301115E-0001	
 1.89250000000000E+0003	 2.29677821747212E-0001	
 1.89450000000000E+0003	 2.29460622193309E-0001	
 1.89650000000000E+0003	 2.29015422639405E-0001	
 1.89850000000000E+0003	 2.28552723085502E-0001	
 1.90050000000000E+0003	 2.28118023531599E-0001	
 1.90250000000000E+0003	 2.27673823977695E-0001	
 1.90450000000000E+0003	 2.27186624423792E-0001	
 1.90650000000000E+0003	 2.26594924869888E-0001	
 1.90850000000000E+0003	 2.26181225315985E-0001	
 1.91050000000000E+0003	 2.25825525762082E-0001	
 1.91250000000000E+0003	 2.25376826208178E-0001	
 1.91450000000000E+0003	 2.24498626654275E-0001	
 1.91650000000000E+0003	 2.23707927100372E-0001	
 1.91850000000000E+0003	 2.23421727546468E-0001	
 1.92050000000000E+0003	 2.23031027992565E-0001	
 1.92250000000000E+0003	 2.23080828438662E-0001	
 1.92450000000000E+0003	 2.22946628884758E-0001	
 1.92650000000000E+0003	 2.22797929330855E-0001	
 1.92850000000000E+0003	 2.22584729776952E-0001	
 1.93050000000000E+0003	 2.22264030223048E-0001	
 1.93250000000000E+0003	 2.21962830669145E-0001	
 1.93450000000000E+0003	 2.21687131115242E-0001	
 1.93650000000000E+0003	 2.21426931561338E-0001	
 1.93850000000000E+0003	 2.20885732007435E-0001	
 1.94050000000000E+0003	 2.20204532453532E-0001	
 1.94250000000000E+0003	 2.20066832899628E-0001	
 1.94450000000000E+0003	 2.20149633345725E-0001	
 1.94650000000000E+0003	 2.20269933791822E-0001	
 1.94850000000000E+0003	 2.20124734237918E-0001	
 1.95050000000000E+0003	 2.19922534684015E-0001	
 1.95250000000000E+0003	 2.19724335130112E-0001	
 1.95450000000000E+0003	 2.19561635576208E-0001	
 1.95650000000000E+0003	 2.19392436022305E-0001	
 1.95850000000000E+0003	 2.19233236468401E-0001	
 1.96050000000000E+0003	 2.19103536914498E-0001	
 1.96250000000000E+0003	 2.18883837360595E-0001	
 1.96450000000000E+0003	 2.18538137806691E-0001	
 1.96650000000000E+0003	 2.18386438252788E-0001	
 1.96850000000000E+0003	 2.18332238698885E-0001	
 1.97050000000000E+0003	 2.18322539144981E-0001	
 1.97250000000000E+0003	 2.18290339591078E-0001	
 1.97450000000000E+0003	 2.18177140037175E-0001	
 1.97650000000000E+0003	 2.18060940483271E-0001	
 1.97850000000000E+0003	 2.17942240929368E-0001	
 1.98050000000000E+0003	 2.17831541375465E-0001	
 1.98250000000000E+0003	 2.17731341821561E-0001	
 1.98450000000000E+0003	 2.17582642267658E-0001	
 1.98650000000000E+0003	 2.17402442713755E-0001	
 1.98850000000000E+0003	 2.17070243159851E-0001	
 1.99050000000000E+0003	 2.16797543605948E-0001	
 1.99250000000000E+0003	 2.16883844052045E-0001	
 1.99450000000000E+0003	 2.17035144498141E-0001	
 1.99650000000000E+0003	 2.17177944944238E-0001	
 1.99850000000000E+0003	 2.17189745390335E-0001	
 2.00050000000000E+0003	 2.17151545836431E-0001	
 2.00250000000000E+0003	 2.17115346282528E-0001	
 2.00450000000000E+0003	 2.17090646728625E-0001	
 2.00650000000000E+0003	 2.17074947174721E-0001	
 2.00850000000000E+0003	 2.17091247620818E-0001	
 2.01050000000000E+0003	 2.17125548066914E-0001	
 2.01250000000000E+0003	 2.17101848513011E-0001	
 2.01450000000000E+0003	 2.16978648959108E-0001	
 2.01650000000000E+0003	 2.16976949405204E-0001	
 2.01850000000000E+0003	 2.17106749851301E-0001	
 2.02050000000000E+0003	 2.17282050297398E-0001	
 2.02250000000000E+0003	 2.17423850743494E-0001	
 2.02450000000000E+0003	 2.17527151189591E-0001	
 2.02650000000000E+0003	 2.17630451635688E-0001	
 2.02850000000000E+0003	 2.17720752081784E-0001	
 2.03050000000000E+0003	 2.17809552527881E-0001	
 2.03250000000000E+0003	 2.17894852973978E-0001	
 2.03450000000000E+0003	 2.17975153420074E-0001	
 2.03650000000000E+0003	 2.18046453866171E-0001	
 2.03850000000000E+0003	 2.18066754312268E-0001	
 2.04050000000000E+0003	 2.18116054758364E-0001	
 2.04250000000000E+0003	 2.18236855204461E-0001	
 2.04450000000000E+0003	 2.18377655650558E-0001	
 2.04650000000000E+0003	 2.18489956096654E-0001	
 2.04850000000000E+0003	 2.18585256542751E-0001	
 2.05050000000000E+0003	 2.18674556988848E-0001	
 2.05250000000000E+0003	 2.18761857434944E-0001	
 2.05450000000000E+0003	 2.18844157881041E-0001	
 2.05650000000000E+0003	 2.18910458327138E-0001	
 2.05850000000000E+0003	 2.18973258773234E-0001	
 2.06050000000000E+0003	 2.19012559219331E-0001	
 2.06250000000000E+0003	 2.18977359665428E-0001	
 2.06450000000000E+0003	 2.19004660111524E-0001	
 2.06650000000000E+0003	 2.19103960557621E-0001	
 2.06850000000000E+0003	 2.19223261003717E-0001	
 2.07050000000000E+0003	 2.19302061449814E-0001	
 2.07250000000000E+0003	 2.19355361895911E-0001	
 2.07450000000000E+0003	 2.19402662342007E-0001	
 2.07650000000000E+0003	 2.19440962788104E-0001	
 2.07850000000000E+0003	 2.19488263234201E-0001	
 2.08050000000000E+0003	 2.19546563680297E-0001	
 2.08250000000000E+0003	 2.19595364126394E-0001	
 2.08450000000000E+0003	 2.19638664572491E-0001	
 2.08650000000000E+0003	 2.19653465018587E-0001	
 2.08850000000000E+0003	 2.19675265464684E-0001	
 2.09050000000000E+0003	 2.19738065910781E-0001	
 2.09250000000000E+0003	 2.19827866356877E-0001	
 2.09450000000000E+0003	 2.19899666802974E-0001	
 2.09650000000000E+0003	 2.19952967249071E-0001	
 2.09850000000000E+0003	 2.19997767695167E-0001	
 2.10050000000000E+0003	 2.20038068141264E-0001	
 2.10250000000000E+0003	 2.20068868587361E-0001	
 2.10450000000000E+0003	 2.20097169033457E-0001	
 2.10650000000000E+0003	 2.20118969479554E-0001	
 2.10850000000000E+0003	 2.20143769925651E-0001	
 2.11050000000000E+0003	 2.20159570371747E-0001	
 2.11250000000000E+0003	 2.20156370817844E-0001	
 2.11450000000000E+0003	 2.20159171263941E-0001	
 2.11650000000000E+0003	 2.20182471710037E-0001	
 2.11850000000000E+0003	 2.20204272156134E-0001	
 2.12050000000000E+0003	 2.20210072602230E-0001	
 2.12250000000000E+0003	 2.20205873048327E-0001	
 2.12450000000000E+0003	 2.20200173494424E-0001	
 2.12650000000000E+0003	 2.20189973940520E-0001	
 2.12850000000000E+0003	 2.20167774386617E-0001	
 2.13050000000000E+0003	 2.20138574832714E-0001	
 2.13250000000000E+0003	 2.20103375278810E-0001	
 2.13450000000000E+0003	 2.20053175724907E-0001	
 2.13650000000000E+0003	 2.20009976171004E-0001	
 2.13850000000000E+0003	 2.19971776617100E-0001	
 2.14050000000000E+0003	 2.19938077063197E-0001	
 2.14250000000000E+0003	 2.19891377509294E-0001	
 2.14450000000000E+0003	 2.19831177955390E-0001	
 2.14650000000000E+0003	 2.19760978401487E-0001	
 2.14850000000000E+0003	 2.19691278847584E-0001	
 2.15050000000000E+0003	 2.19613579293680E-0001	
 2.15250000000000E+0003	 2.19527879739777E-0001	
 2.15450000000000E+0003	 2.19434180185874E-0001	
 2.15650000000000E+0003	 2.19339480631970E-0001	
 2.15850000000000E+0003	 2.19233781078067E-0001	
 2.16050000000000E+0003	 2.19123081524164E-0001	
 2.16250000000000E+0003	 2.19012881970260E-0001	
 2.16450000000000E+0003	 2.18908682416357E-0001	
 2.16650000000000E+0003	 2.18808482862454E-0001	
 2.16850000000000E+0003	 2.18712783308550E-0001	
 2.17050000000000E+0003	 2.18597083754647E-0001	
 2.17250000000000E+0003	 2.18462884200743E-0001	
 2.17450000000000E+0003	 2.18333184646840E-0001	
 2.17650000000000E+0003	 2.18214985092937E-0001	
 2.17850000000000E+0003	 2.18098285539033E-0001	
 2.18050000000000E+0003	 2.17983085985130E-0001	
 2.18250000000000E+0003	 2.17859886431227E-0001	
 2.18450000000000E+0003	 2.17737686877323E-0001	
 2.18650000000000E+0003	 2.17616487323420E-0001	
 2.18850000000000E+0003	 2.17504787769517E-0001	
 2.19050000000000E+0003	 2.17385588215613E-0001	
 2.19250000000000E+0003	 2.17266388661710E-0001	
 2.19450000000000E+0003	 2.17145189107807E-0001	
 2.19650000000000E+0003	 2.17025489553903E-0001	
 2.19850000000000E+0003	 2.16905290000000E-0001	
 2.20050000000000E+0003	 2.16792090446097E-0001	
 2.20250000000000E+0003	 2.16675390892193E-0001	
 2.20450000000000E+0003	 2.16565691338290E-0001	
 2.20650000000000E+0003	 2.16460991784387E-0001	
 2.20850000000000E+0003	 2.16359292230483E-0001	
 2.21050000000000E+0003	 2.16262092676580E-0001	
 2.21250000000000E+0003	 2.16169893122677E-0001	
 2.21450000000000E+0003	 2.16076693568773E-0001	
 2.21650000000000E+0003	 2.15985994014870E-0001	
 2.21850000000000E+0003	 2.15897794460967E-0001	
 2.22050000000000E+0003	 2.15821094907063E-0001	
 2.22250000000000E+0003	 2.15749395353160E-0001	
 2.22450000000000E+0003	 2.15684695799257E-0001	
 2.22650000000000E+0003	 2.15620996245353E-0001	
 2.22850000000000E+0003	 2.15568796691450E-0001	
 2.23050000000000E+0003	 2.15528097137546E-0001	
 2.23250000000000E+0003	 2.15506897583643E-0001	
 2.23450000000000E+0003	 2.15495198029740E-0001	
 2.23650000000000E+0003	 2.15494498475836E-0001	
 2.23850000000000E+0003	 2.15495298921933E-0001	
 2.24050000000000E+0003	 2.15503599368030E-0001	
 2.24250000000000E+0003	 2.15511899814126E-0001	
 2.24450000000000E+0003	 2.15527700260223E-0001	
 2.24650000000000E+0003	 2.15540500706320E-0001	
 2.24850000000000E+0003	 2.15561801152416E-0001	
 2.25050000000000E+0003	 2.15583101598513E-0001	
 2.25250000000000E+0003	 2.15610402044610E-0001	
 2.25450000000000E+0003	 2.15641202490706E-0001	
 2.25650000000000E+0003	 2.15674502936803E-0001	
 2.25850000000000E+0003	 2.15713303382900E-0001	
 2.26050000000000E+0003	 2.15766603828996E-0001	
 2.26250000000000E+0003	 2.15822904275093E-0001	
 2.26450000000000E+0003	 2.15880704721190E-0001	
 2.26650000000000E+0003	 2.15939005167286E-0001	
 2.26850000000000E+0003	 2.16008805613383E-0001	
 2.27050000000000E+0003	 2.16083106059480E-0001	
 2.27250000000000E+0003	 2.16151406505576E-0001	
 2.27450000000000E+0003	 2.16215206951673E-0001	
 2.27650000000000E+0003	 2.16295007397770E-0001	
 2.27850000000000E+0003	 2.16375807843866E-0001	
 2.28050000000000E+0003	 2.16456608289963E-0001	
 2.28250000000000E+0003	 2.16539408736059E-0001	
 2.28450000000000E+0003	 2.16627209182156E-0001	
 2.28650000000000E+0003	 2.16711509628253E-0001	
 2.28850000000000E+0003	 2.16806310074349E-0001	
 2.29050000000000E+0003	 2.16897110520446E-0001	
 2.29250000000000E+0003	 2.16982910966543E-0001	
 2.29450000000000E+0003	 2.17069711412639E-0001	
 2.29650000000000E+0003	 2.17169011858736E-0001	
 2.29850000000000E+0003	 2.17275312304833E-0001	
 2.30050000000000E+0003	 2.17396112750929E-0001	
 2.30250000000000E+0003	 2.17532413197026E-0001	
 2.30450000000000E+0003	 2.17674713643123E-0001	
 2.30650000000000E+0003	 2.17810514089219E-0001	
 2.30850000000000E+0003	 2.17973314535316E-0001	
 2.31050000000000E+0003	 2.18163114981413E-0001	
 2.31250000000000E+0003	 2.18405915427509E-0001	
 2.31450000000000E+0003	 2.18658215873606E-0001	
 2.31650000000000E+0003	 2.18830516319703E-0001	
 2.31850000000000E+0003	 2.18923316765799E-0001	
 2.32050000000000E+0003	 2.19039617211896E-0001	
 2.32250000000000E+0003	 2.19196417657993E-0001	
 2.32450000000000E+0003	 2.19395718104089E-0001	
 2.32650000000000E+0003	 2.19555518550186E-0001	
 2.32850000000000E+0003	 2.19699818996283E-0001	
 2.33050000000000E+0003	 2.19875119442379E-0001	
 2.33250000000000E+0003	 2.20135419888476E-0001	
 2.33450000000000E+0003	 2.20421720334572E-0001	
 2.33650000000000E+0003	 2.20700520780669E-0001	
 2.33850000000000E+0003	 2.20916821226766E-0001	
 2.34050000000000E+0003	 2.21047621672862E-0001	
 2.34250000000000E+0003	 2.21126922118959E-0001	
 2.34450000000000E+0003	 2.21259722565056E-0001	
 2.34650000000000E+0003	 2.21556523011152E-0001	
 2.34850000000000E+0003	 2.21749823457249E-0001	
 2.35050000000000E+0003	 2.21935123903346E-0001	
 2.35250000000000E+0003	 2.22303924349442E-0001	
 2.35450000000000E+0003	 2.22574724795539E-0001	
 2.35650000000000E+0003	 2.22751025241636E-0001	
 2.35850000000000E+0003	 2.22969825687732E-0001	
 2.36050000000000E+0003	 2.23246626133829E-0001	
 2.36250000000000E+0003	 2.23501926579926E-0001	
 2.36450000000000E+0003	 2.23738727026022E-0001	
 2.36650000000000E+0003	 2.23977027472119E-0001	
 2.36850000000000E+0003	 2.24240327918216E-0001	
 2.37050000000000E+0003	 2.24540628364312E-0001	
 2.37250000000000E+0003	 2.24898428810409E-0001	
 2.37450000000000E+0003	 2.25270729256506E-0001	
 2.37650000000000E+0003	 2.25591529702602E-0001	
 2.37850000000000E+0003	 2.25820330148699E-0001	
 2.38050000000000E+0003	 2.26039130594796E-0001	
 2.38250000000000E+0003	 2.26318431040892E-0001	
 2.38450000000000E+0003	 2.26672731486989E-0001	
 2.38650000000000E+0003	 2.27053031933086E-0001	
 2.38850000000000E+0003	 2.27434832379182E-0001	
 2.39050000000000E+0003	 2.27796132825279E-0001	
 2.39250000000000E+0003	 2.28150433271375E-0001	
 2.39450000000000E+0003	 2.28502733717472E-0001	
 2.39650000000000E+0003	 2.28863034163569E-0001	
 2.39850000000000E+0003	 2.29230334609665E-0001	
 2.40050000000000E+0003	 2.29611635055762E-0001	
 2.40250000000000E+0003	 2.29995935501859E-0001	
 2.40450000000000E+0003	 2.30388235947955E-0001	
 2.40650000000000E+0003	 2.30784536394052E-0001	
 2.40850000000000E+0003	 2.31189836840149E-0001	
 2.41050000000000E+0003	 2.31603137286245E-0001	
 2.41250000000000E+0003	 2.32024937732342E-0001	
 2.41450000000000E+0003	 2.32457738178439E-0001	
 2.41650000000000E+0003	 2.32902038624535E-0001	
 2.41850000000000E+0003	 2.33348839070632E-0001	
 2.42050000000000E+0003	 2.33802139516729E-0001	
 2.42250000000000E+0003	 2.34266439962825E-0001	
 2.42450000000000E+0003	 2.34745240408922E-0001	
 2.42650000000000E+0003	 2.35234040855019E-0001	
 2.42850000000000E+0003	 2.35734341301115E-0001	
 2.43050000000000E+0003	 2.36237141747212E-0001	
 2.43250000000000E+0003	 2.36750942193309E-0001	
 2.43450000000000E+0003	 2.37270742639405E-0001	
 2.43650000000000E+0003	 2.37804043085502E-0001	
 2.43850000000000E+0003	 2.38339343531599E-0001	
 2.44050000000000E+0003	 2.38875643977695E-0001	
 2.44250000000000E+0003	 2.39408444423792E-0001	
 2.44450000000000E+0003	 2.39950244869888E-0001	
 2.44650000000000E+0003	 2.40492545315985E-0001	
 2.44850000000000E+0003	 2.41040345762082E-0001	
 2.45050000000000E+0003	 2.41593146208178E-0001	
 2.45250000000000E+0003	 2.42154446654275E-0001	
 2.45450000000000E+0003	 2.42718247100372E-0001	
 2.45650000000000E+0003	 2.43297047546468E-0001	
 2.45850000000000E+0003	 2.43882347992565E-0001	
 2.46050000000000E+0003	 2.44479148438662E-0001	
 2.46250000000000E+0003	 2.45082448884758E-0001	
 2.46450000000000E+0003	 2.45699749330855E-0001	
 2.46650000000000E+0003	 2.46317549776952E-0001	
 2.46850000000000E+0003	 2.46946350223048E-0001	
 2.47050000000000E+0003	 2.47584150669145E-0001	
 2.47250000000000E+0003	 2.48226951115242E-0001	
 2.47450000000000E+0003	 2.48866251561338E-0001	
 2.47650000000000E+0003	 2.49519052007435E-0001	
 2.47850000000000E+0003	 2.50176352453532E-0001	
 2.48050000000000E+0003	 2.50837652899628E-0001	
 2.48250000000000E+0003	 2.51497453345725E-0001	
 2.48450000000000E+0003	 2.52161753791822E-0001	
 2.48650000000000E+0003	 2.52826554237918E-0001	
 2.48850000000000E+0003	 2.53499854684015E-0001	
 2.49050000000000E+0003	 2.54169655130112E-0001	
 2.49250000000000E+0003	 2.54846955576208E-0001	
 2.49450000000000E+0003	 2.55525256022305E-0001	
 2.49650000000000E+0003	 2.56211056468401E-0001	
 2.49850000000000E+0003	 2.56901856914498E-0001	
 2.50050000000000E+0003	 2.57602157360595E-0001	
 2.50250000000000E+0003	 2.58301957806691E-0001	
 2.50450000000000E+0003	 2.59004258252788E-0001	
 2.50650000000000E+0003	 2.59710558698885E-0001	
 2.50850000000000E+0003	 2.60423359144981E-0001	
 2.51050000000000E+0003	 2.61131159591078E-0001	
 2.51250000000000E+0003	 2.61838960037175E-0001	
 2.51450000000000E+0003	 2.62542760483271E-0001	
 2.51650000000000E+0003	 2.63246560929368E-0001	
 2.51850000000000E+0003	 2.63944861375465E-0001	
 2.52050000000000E+0003	 2.64640161821561E-0001	
 2.52250000000000E+0003	 2.65330462267658E-0001	
 2.52450000000000E+0003	 2.66018762713755E-0001	
 2.52650000000000E+0003	 2.66697063159851E-0001	
 2.52850000000000E+0003	 2.67375863605948E-0001	
 2.53050000000000E+0003	 2.68046164052045E-0001	
 2.53250000000000E+0003	 2.68703964498141E-0001	
 2.53450000000000E+0003	 2.69348264944238E-0001	
 2.53650000000000E+0003	 2.69988065390335E-0001	
 2.53850000000000E+0003	 2.70613865836431E-0001	
 2.54050000000000E+0003	 2.71231666282528E-0001	
 2.54250000000000E+0003	 2.71834466728625E-0001	
 2.54450000000000E+0003	 2.72425767174721E-0001	
 2.54650000000000E+0003	 2.72999067620818E-0001	
 2.54850000000000E+0003	 2.73566868066914E-0001	
 2.55050000000000E+0003	 2.74121168513011E-0001	
 2.55250000000000E+0003	 2.74671468959108E-0001	
 2.55450000000000E+0003	 2.75203769405204E-0001	
 2.55650000000000E+0003	 2.75725069851301E-0001	
 2.55850000000000E+0003	 2.76230370297398E-0001	
 2.56050000000000E+0003	 2.76724670743494E-0001	
 2.56250000000000E+0003	 2.77202971189591E-0001	
 2.56450000000000E+0003	 2.77671271635688E-0001	
 2.56650000000000E+0003	 2.78132072081784E-0001	
 2.56850000000000E+0003	 2.78601872527881E-0001	
 2.57050000000000E+0003	 2.79083672973978E-0001	
 2.57250000000000E+0003	 2.79584473420074E-0001	
 2.57450000000000E+0003	 2.80104273866171E-0001	
 2.57650000000000E+0003	 2.80647074312268E-0001	
 2.57850000000000E+0003	 2.81207874758364E-0001	
 2.58050000000000E+0003	 2.81796175204461E-0001	
 2.58250000000000E+0003	 2.82408475650558E-0001	
 2.58450000000000E+0003	 2.83051276096654E-0001	
 2.58650000000000E+0003	 2.83713576542751E-0001	
 2.58850000000000E+0003	 2.84397376988848E-0001	
 2.59050000000000E+0003	 2.85103177434944E-0001	
 2.59250000000000E+0003	 2.85840477881041E-0001	
 2.59450000000000E+0003	 2.86599778327138E-0001	
 2.59650000000000E+0003	 2.87386578773234E-0001	
 2.59850000000000E+0003	 2.88190379219331E-0001	
 2.60050000000000E+0003	 2.89015179665428E-0001	
 2.60250000000000E+0003	 2.89848980111524E-0001	
 2.60450000000000E+0003	 2.90699280557621E-0001	
 2.60650000000000E+0003	 2.91558081003717E-0001	
 2.60850000000000E+0003	 2.92425381449814E-0001	
 2.61050000000000E+0003	 2.93291181895911E-0001	
 2.61250000000000E+0003	 2.94160982342007E-0001	
 2.61450000000000E+0003	 2.95032782788104E-0001	
 2.61650000000000E+0003	 2.95911583234201E-0001	
 2.61850000000000E+0003	 2.96788383680297E-0001	
 2.62050000000000E+0003	 2.97670684126394E-0001	
 2.62250000000000E+0003	 2.98554484572491E-0001	
 2.62450000000000E+0003	 2.99439785018587E-0001	
 2.62650000000000E+0003	 3.00322585464684E-0001	
 2.62850000000000E+0003	 3.01215885910781E-0001	
 2.63050000000000E+0003	 3.02109686356877E-0001	
 2.63250000000000E+0003	 3.03001986802974E-0001	
 2.63450000000000E+0003	 3.03892787249071E-0001	
 2.63650000000000E+0003	 3.04785087695167E-0001	
 2.63850000000000E+0003	 3.05673388141264E-0001	
 2.64050000000000E+0003	 3.06567188587361E-0001	
 2.64250000000000E+0003	 3.07462489033457E-0001	
 2.64450000000000E+0003	 3.08362789479554E-0001	
 2.64650000000000E+0003	 3.09256089925651E-0001	
 2.64850000000000E+0003	 3.10152390371747E-0001	
 2.65050000000000E+0003	 3.11047690817844E-0001	
 2.65250000000000E+0003	 3.11948991263941E-0001	
 2.65450000000000E+0003	 3.12851291710037E-0001	
 2.65650000000000E+0003	 3.13759092156134E-0001	
 2.65850000000000E+0003	 3.14667892602230E-0001	
 2.66050000000000E+0003	 3.15589193048327E-0001	
 2.66250000000000E+0003	 3.16515993494424E-0001	
 2.66450000000000E+0003	 3.17452793940520E-0001	
 2.66650000000000E+0003	 3.18398594386617E-0001	
 2.66850000000000E+0003	 3.19351894832714E-0001	
 2.67050000000000E+0003	 3.20304695278810E-0001	
 2.67250000000000E+0003	 3.21265495724907E-0001	
 2.67450000000000E+0003	 3.22219796171004E-0001	
 2.67650000000000E+0003	 3.23172596617100E-0001	
 2.67850000000000E+0003	 3.24131897063197E-0001	
 2.68050000000000E+0003	 3.25102197509294E-0001	
 2.68250000000000E+0003	 3.26065997955390E-0001	
 2.68450000000000E+0003	 3.27021798401487E-0001	
 2.68650000000000E+0003	 3.27968098847584E-0001	
 2.68850000000000E+0003	 3.28912399293680E-0001	
 2.69050000000000E+0003	 3.29850199739777E-0001	
 2.69250000000000E+0003	 3.30793000185874E-0001	
 2.69450000000000E+0003	 3.31733800631970E-0001	
 2.69650000000000E+0003	 3.32685601078067E-0001	
 2.69850000000000E+0003	 3.33648401524164E-0001	
 2.70050000000000E+0003	 3.34636701970260E-0001	
 2.70250000000000E+0003	 3.35641002416357E-0001	
 2.70450000000000E+0003	 3.36666802862454E-0001	
 2.70650000000000E+0003	 3.37717603308550E-0001	
 2.70850000000000E+0003	 3.38808403754647E-0001	
 2.71050000000000E+0003	 3.39932204200743E-0001	
 2.71250000000000E+0003	 3.41094004646840E-0001	
 2.71450000000000E+0003	 3.42286805092937E-0001	
 2.71650000000000E+0003	 3.43504605539033E-0001	
 2.71850000000000E+0003	 3.44739405985130E-0001	
 2.72050000000000E+0003	 3.45983706431227E-0001	
 2.72250000000000E+0003	 3.47228006877323E-0001	
 2.72450000000000E+0003	 3.48465307323420E-0001	
 2.72650000000000E+0003	 3.49702107769517E-0001	
 2.72850000000000E+0003	 3.50939908215613E-0001	
 2.73050000000000E+0003	 3.52149208661710E-0001	
 2.73250000000000E+0003	 3.53330009107807E-0001	
 2.73450000000000E+0003	 3.54476309553903E-0001	
 2.73650000000000E+0003	 3.55597610000000E-0001	
 2.73850000000000E+0003	 3.56700410446097E-0001	
 2.74050000000000E+0003	 3.57784710892193E-0001	
 2.74250000000000E+0003	 3.58837511338290E-0001	
 2.74450000000000E+0003	 3.59861811784387E-0001	
 2.74650000000000E+0003	 3.60865612230483E-0001	
 2.74850000000000E+0003	 3.61878412676580E-0001	
 2.75050000000000E+0003	 3.62894713122677E-0001	
 2.75250000000000E+0003	 3.63909513568773E-0001	
 2.75450000000000E+0003	 3.64921314014870E-0001	
 2.75650000000000E+0003	 3.65955614460967E-0001	
 2.75850000000000E+0003	 3.67010414907063E-0001	
 2.76050000000000E+0003	 3.68088715353160E-0001	
 2.76250000000000E+0003	 3.69177515799257E-0001	
 2.76450000000000E+0003	 3.70283316245353E-0001	
 2.76650000000000E+0003	 3.71408616691450E-0001	
 2.76850000000000E+0003	 3.72556417137546E-0001	
 2.77050000000000E+0003	 3.73714717583643E-0001	
 2.77250000000000E+0003	 3.74890518029740E-0001	
 2.77450000000000E+0003	 3.76103818475836E-0001	
 2.77650000000000E+0003	 3.77367618921933E-0001	
 2.77850000000000E+0003	 3.78648919368030E-0001	
 2.78050000000000E+0003	 3.79944219814126E-0001	
 2.78250000000000E+0003	 3.81267520260223E-0001	
 2.78450000000000E+0003	 3.82620820706320E-0001	
 2.78650000000000E+0003	 3.83989621152416E-0001	
 2.78850000000000E+0003	 3.85390421598513E-0001	
 2.79050000000000E+0003	 3.86836222044610E-0001	
 2.79250000000000E+0003	 3.88312022490706E-0001	
 2.79450000000000E+0003	 3.89796322936803E-0001	
 2.79650000000000E+0003	 3.91302623382900E-0001	
 2.79850000000000E+0003	 3.92845423828996E-0001	
 2.80050000000000E+0003	 3.94429724275093E-0001	
 2.80250000000000E+0003	 3.96036524721190E-0001	
 2.80450000000000E+0003	 3.97673825167286E-0001	
 2.80650000000000E+0003	 3.99334625613383E-0001	
 2.80850000000000E+0003	 4.01026926059480E-0001	
 2.81050000000000E+0003	 4.02765726505576E-0001	
 2.81250000000000E+0003	 4.04549026951673E-0001	
 2.81450000000000E+0003	 4.06358327397770E-0001	
 2.81650000000000E+0003	 4.08206127843866E-0001	
 2.81850000000000E+0003	 4.10086428289963E-0001	
 2.82050000000000E+0003	 4.12019228736059E-0001	
 2.82250000000000E+0003	 4.14013529182156E-0001	
 2.82450000000000E+0003	 4.16080329628253E-0001	
 2.82650000000000E+0003	 4.18214130074349E-0001	
 2.82850000000000E+0003	 4.20428430520446E-0001	
 2.83050000000000E+0003	 4.22741230966543E-0001	
 2.83250000000000E+0003	 4.25199531412639E-0001	
 2.83450000000000E+0003	 4.27848331858736E-0001	
 2.83650000000000E+0003	 4.30757632304833E-0001	
 2.83850000000000E+0003	 4.34081432750929E-0001	
 2.84050000000000E+0003	 4.38030233197026E-0001	
 2.84250000000000E+0003	 4.42791033643123E-0001	
 2.84450000000000E+0003	 4.48585334089219E-0001	
 2.84650000000000E+0003	 4.55430634535316E-0001	
 2.84850000000000E+0003	 4.62914934981413E-0001	
 2.85050000000000E+0003	 4.70045235427509E-0001	
 2.85250000000000E+0003	 4.75657535873606E-0001	
 2.85450000000000E+0003	 4.79144836319703E-0001	
 2.85650000000000E+0003	 4.80862136765799E-0001	
 2.85850000000000E+0003	 4.81752937211896E-0001	
 2.86050000000000E+0003	 4.82748237657993E-0001	
 2.86250000000000E+0003	 4.84428038104089E-0001	
 2.86450000000000E+0003	 4.87066838550186E-0001	
 2.86650000000000E+0003	 4.90614638996283E-0001	
 2.86850000000000E+0003	 4.94739439442379E-0001	
 2.87050000000000E+0003	 4.98909239888476E-0001	
 2.87250000000000E+0003	 5.02548040334572E-0001	
 2.87450000000000E+0003	 5.05197340780669E-0001	
 2.87650000000000E+0003	 5.06781141226766E-0001	
 2.87850000000000E+0003	 5.07598941672862E-0001	
 2.88050000000000E+0003	 5.08078242118959E-0001	
 2.88250000000000E+0003	 5.08582042565056E-0001	
 2.88450000000000E+0003	 5.09369343011152E-0001	
 2.88650000000000E+0003	 5.10554643457249E-0001	
 2.88850000000000E+0003	 5.12162443903346E-0001	
 2.89050000000000E+0003	 5.14135244349442E-0001	
 2.89250000000000E+0003	 5.16419044795539E-0001	
 2.89450000000000E+0003	 5.18959345241636E-0001	
 2.89650000000000E+0003	 5.21709145687732E-0001	
 2.89850000000000E+0003	 5.24623946133829E-0001	
 2.90050000000000E+0003	 5.27749246579926E-0001	
 2.90250000000000E+0003	 5.31168047026022E-0001	
 2.90450000000000E+0003	 5.34988347472119E-0001	
 2.90650000000000E+0003	 5.39332647918216E-0001	
 2.90850000000000E+0003	 5.44338448364312E-0001	
 2.91050000000000E+0003	 5.50111748810409E-0001	
 2.91250000000000E+0003	 5.56722049256506E-0001	
 2.91450000000000E+0003	 5.64076349702602E-0001	
 2.91650000000000E+0003	 5.71842650148699E-0001	
 2.91850000000000E+0003	 5.79488450594796E-0001	
 2.92050000000000E+0003	 5.86411251040892E-0001	
 2.92250000000000E+0003	 5.92113551486989E-0001	
 2.92450000000000E+0003	 5.96366351933086E-0001	
 2.92650000000000E+0003	 5.99232152379182E-0001	
 2.92850000000000E+0003	 6.00952952825279E-0001	
 2.93050000000000E+0003	 6.01684753271375E-0001	
 2.93250000000000E+0003	 6.01500553717472E-0001	
 2.93450000000000E+0003	 6.00425854163569E-0001	
 2.93650000000000E+0003	 5.98466654609665E-0001	
 2.93850000000000E+0003	 5.95679455055762E-0001	
 2.94050000000000E+0003	 5.92294755501859E-0001	
 2.94250000000000E+0003	 5.88693555947955E-0001	
 2.94450000000000E+0003	 5.85300856394052E-0001	
 2.94650000000000E+0003	 5.82497156840149E-0001	
 2.94850000000000E+0003	 5.80614457286245E-0001	
 2.95050000000000E+0003	 5.79844757732342E-0001	
 2.95250000000000E+0003	 5.80099058178439E-0001	
 2.95450000000000E+0003	 5.80925858624535E-0001	
 2.95650000000000E+0003	 5.81778659070632E-0001	
 2.95850000000000E+0003	 5.82131459516729E-0001	
 2.96050000000000E+0003	 5.81587759962825E-0001	
 2.96250000000000E+0003	 5.79924560408922E-0001	
 2.96450000000000E+0003	 5.77116360855019E-0001	
 2.96650000000000E+0003	 5.73317161301115E-0001	
 2.96850000000000E+0003	 5.68819461747212E-0001	
 2.97050000000000E+0003	 5.63964262193309E-0001	
 2.97250000000000E+0003	 5.59083562639405E-0001	
 2.97450000000000E+0003	 5.54343863085502E-0001	
 2.97650000000000E+0003	 5.49826663531599E-0001	
 2.97850000000000E+0003	 5.45575963977695E-0001	
 2.98050000000000E+0003	 5.41581764423792E-0001	
 2.98250000000000E+0003	 5.37795564869888E-0001	
 2.98450000000000E+0003	 5.34246865315985E-0001	
 2.98650000000000E+0003	 5.30990665762082E-0001	
 2.98850000000000E+0003	 5.28070466208178E-0001	
 2.99050000000000E+0003	 5.25509266654275E-0001	
 2.99250000000000E+0003	 5.23354567100372E-0001	
 2.99450000000000E+0003	 5.21624367546468E-0001	
 2.99650000000000E+0003	 5.20372667992565E-0001	
 2.99850000000000E+0003	 5.19616468438662E-0001	
 3.00050000000000E+0003	 5.19304768884758E-0001	
 3.00250000000000E+0003	 5.19386069330855E-0001	
 3.00450000000000E+0003	 5.19797369776952E-0001	
 3.00650000000000E+0003	 5.20462170223048E-0001	
 3.00850000000000E+0003	 5.21349470669145E-0001	
 3.01050000000000E+0003	 5.22474271115242E-0001	
 3.01250000000000E+0003	 5.23864071561338E-0001	
 3.01450000000000E+0003	 5.25497372007435E-0001	
 3.01650000000000E+0003	 5.27367172453532E-0001	
 3.01850000000000E+0003	 5.29469472899628E-0001	
 3.02050000000000E+0003	 5.31801273345725E-0001	
 3.02250000000000E+0003	 5.34331073791822E-0001	
 3.02450000000000E+0003	 5.37050874237918E-0001	
 3.02650000000000E+0003	 5.39893674684015E-0001	
 3.02850000000000E+0003	 5.42764475130112E-0001	
 3.03050000000000E+0003	 5.45630275576208E-0001	
 3.03250000000000E+0003	 5.48504076022305E-0001	
 3.03450000000000E+0003	 5.51430376468401E-0001	
 3.03650000000000E+0003	 5.54426176914498E-0001	
 3.03850000000000E+0003	 5.57439477360595E-0001	
 3.04050000000000E+0003	 5.60510777806691E-0001	
 3.04250000000000E+0003	 5.63683578252788E-0001	
 3.04450000000000E+0003	 5.66935378698885E-0001	
 3.04650000000000E+0003	 5.70205679144981E-0001	
 3.04850000000000E+0003	 5.73471479591078E-0001	
 3.05050000000000E+0003	 5.76750780037175E-0001	
 3.05250000000000E+0003	 5.80052580483271E-0001	
 3.05450000000000E+0003	 5.83314380929368E-0001	
 3.05650000000000E+0003	 5.86526681375465E-0001	
 3.05850000000000E+0003	 5.89622981821561E-0001	
 3.06050000000000E+0003	 5.92538282267658E-0001	
 3.06250000000000E+0003	 5.95242082713755E-0001	
 3.06450000000000E+0003	 5.97738883159851E-0001	
 3.06650000000000E+0003	 6.00074683605948E-0001	
 3.06850000000000E+0003	 6.02319484052045E-0001	
 3.07050000000000E+0003	 6.04425784498141E-0001	
 3.07250000000000E+0003	 6.06386584944238E-0001	
 3.07450000000000E+0003	 6.08194885390335E-0001	
 3.07650000000000E+0003	 6.09888685836431E-0001	
 3.07850000000000E+0003	 6.11548986282528E-0001	
 3.08050000000000E+0003	 6.13191286728625E-0001	
 3.08250000000000E+0003	 6.14759587174721E-0001	
 3.08450000000000E+0003	 6.16274387620818E-0001	
 3.08650000000000E+0003	 6.17734688066914E-0001	
 3.08850000000000E+0003	 6.19103488513011E-0001	
 3.09050000000000E+0003	 6.20419288959108E-0001	
 3.09250000000000E+0003	 6.21714089405204E-0001	
 3.09450000000000E+0003	 6.22968389851301E-0001	
 3.09650000000000E+0003	 6.24219190297398E-0001	
 3.09850000000000E+0003	 6.25483990743494E-0001	
 3.10050000000000E+0003	 6.26838791189591E-0001	
 3.10250000000000E+0003	 6.28282591635688E-0001	
 3.10450000000000E+0003	 6.29770892081784E-0001	
 3.10650000000000E+0003	 6.31309192527881E-0001	
 3.10850000000000E+0003	 6.32980992973978E-0001	
 3.11050000000000E+0003	 6.34787793420074E-0001	
 3.11250000000000E+0003	 6.36652093866171E-0001	
 3.11450000000000E+0003	 6.38591394312268E-0001	
 3.11650000000000E+0003	 6.40706194758364E-0001	
 3.11850000000000E+0003	 6.42976995204461E-0001	
 3.12050000000000E+0003	 6.45389795650558E-0001	
 3.12250000000000E+0003	 6.47922096096654E-0001	
 3.12450000000000E+0003	 6.50545896542751E-0001	
 3.12650000000000E+0003	 6.53254196988848E-0001	
 3.12850000000000E+0003	 6.56072497434944E-0001	
 3.13050000000000E+0003	 6.58998797881041E-0001	
 3.13250000000000E+0003	 6.62032598327138E-0001	
 3.13450000000000E+0003	 6.65129898773234E-0001	
 3.13650000000000E+0003	 6.68301199219331E-0001	
 3.13850000000000E+0003	 6.71580999665428E-0001	
 3.14050000000000E+0003	 6.74960800111524E-0001	
 3.14250000000000E+0003	 6.78389600557621E-0001	
 3.14450000000000E+0003	 6.81889901003717E-0001	
 3.14650000000000E+0003	 6.85471701449814E-0001	
 3.14850000000000E+0003	 6.89147501895911E-0001	
 3.15050000000000E+0003	 6.92924302342007E-0001	
 3.15250000000000E+0003	 6.96776602788104E-0001	
 3.15450000000000E+0003	 7.00623903234201E-0001	
 3.15650000000000E+0003	 7.04520203680297E-0001	
 3.15850000000000E+0003	 7.08499504126394E-0001	
 3.16050000000000E+0003	 7.12540304572491E-0001	
 3.16250000000000E+0003	 7.16625105018587E-0001	
 3.16450000000000E+0003	 7.20755405464684E-0001	
 3.16650000000000E+0003	 7.24903205910781E-0001	
 3.16850000000000E+0003	 7.29072006356877E-0001	
 3.17050000000000E+0003	 7.33242806802974E-0001	
 3.17250000000000E+0003	 7.37418107249071E-0001	
 3.17450000000000E+0003	 7.41579907695167E-0001	
 3.17650000000000E+0003	 7.45730208141264E-0001	
 3.17850000000000E+0003	 7.49871008587361E-0001	
 3.18050000000000E+0003	 7.53984309033457E-0001	
 3.18250000000000E+0003	 7.58029609479554E-0001	
 3.18450000000000E+0003	 7.62029409925651E-0001	
 3.18650000000000E+0003	 7.65972710371747E-0001	
 3.18850000000000E+0003	 7.69861510817844E-0001	
 3.19050000000000E+0003	 7.73668311263941E-0001	
 3.19250000000000E+0003	 7.77398611710037E-0001	
 3.19450000000000E+0003	 7.81038412156134E-0001	
 3.19650000000000E+0003	 7.84603712602230E-0001	
 3.19850000000000E+0003	 7.88090513048327E-0001	
 3.20050000000000E+0003	 7.91499813494424E-0001	
 3.20250000000000E+0003	 7.94812613940520E-0001	
 3.20450000000000E+0003	 7.98053414386617E-0001	
 3.20650000000000E+0003	 8.01217714832714E-0001	
 3.20850000000000E+0003	 8.04318015278810E-0001	
 3.21050000000000E+0003	 8.07359315724907E-0001	
 3.21250000000000E+0003	 8.10376116171004E-0001	
 3.21450000000000E+0003	 8.13374416617100E-0001	
 3.21650000000000E+0003	 8.16354717063197E-0001	
 3.21850000000000E+0003	 8.19320017509294E-0001	
 3.22050000000000E+0003	 8.22314317955390E-0001	
 3.22250000000000E+0003	 8.25317618401487E-0001	
 3.22450000000000E+0003	 8.28354918847584E-0001	
 3.22650000000000E+0003	 8.31448719293680E-0001	
 3.22850000000000E+0003	 8.34640019739777E-0001	
 3.23050000000000E+0003	 8.37917820185874E-0001	
 3.23250000000000E+0003	 8.41310620631970E-0001	
 3.23450000000000E+0003	 8.44763921078067E-0001	
 3.23650000000000E+0003	 8.48287721524164E-0001	
 3.23850000000000E+0003	 8.51944021970260E-0001	
 3.24050000000000E+0003	 8.55764322416357E-0001	
 3.24250000000000E+0003	 8.59705122862454E-0001	
 3.24450000000000E+0003	 8.63799423308550E-0001	
 3.24650000000000E+0003	 8.68041223754647E-0001	
 3.24850000000000E+0003	 8.72400524200743E-0001	
 3.25050000000000E+0003	 8.76835824646840E-0001	
 3.25250000000000E+0003	 8.81374125092937E-0001	
 3.25450000000000E+0003	 8.86024425539033E-0001	
 3.25650000000000E+0003	 8.90773725985130E-0001	
 3.25850000000000E+0003	 8.95542026431227E-0001	
 3.26050000000000E+0003	 9.00337326877323E-0001	
 3.26250000000000E+0003	 9.05121127323420E-0001	
 3.26450000000000E+0003	 9.09870927769517E-0001	
 3.26650000000000E+0003	 9.14516728215613E-0001	
 3.26850000000000E+0003	 9.19030028661710E-0001	
 3.27050000000000E+0003	 9.23416329107807E-0001	
 3.27250000000000E+0003	 9.27698129553903E-0001	
 3.27450000000000E+0003	 9.31789430000000E-0001	
 3.27650000000000E+0003	 9.35665730446097E-0001	
 3.27850000000000E+0003	 9.39292030892193E-0001	
 3.28050000000000E+0003	 9.42697831338290E-0001	
 3.28250000000000E+0003	 9.45846631784387E-0001	
 3.28450000000000E+0003	 9.48759932230483E-0001	
 3.28650000000000E+0003	 9.51409732676580E-0001	
 3.28850000000000E+0003	 9.53806033122677E-0001	
 3.29050000000000E+0003	 9.55961833568773E-0001	
 3.29250000000000E+0003	 9.57927634014870E-0001	
 3.29450000000000E+0003	 9.59647934460967E-0001	
 3.29650000000000E+0003	 9.61167734907063E-0001	
 3.29850000000000E+0003	 9.62497535353160E-0001	
 3.30050000000000E+0003	 9.63618835799257E-0001	
 3.30250000000000E+0003	 9.64503636245353E-0001	
 3.30450000000000E+0003	 9.65246436691450E-0001	
 3.30650000000000E+0003	 9.65913737137546E-0001	
 3.30850000000000E+0003	 9.66534037583643E-0001	
 3.31050000000000E+0003	 9.67023338029740E-0001	
 3.31250000000000E+0003	 9.67400138475836E-0001	
 3.31450000000000E+0003	 9.67683438921933E-0001	
 3.31650000000000E+0003	 9.67916739368030E-0001	
 3.31850000000000E+0003	 9.68098539814126E-0001	
 3.32050000000000E+0003	 9.68257840260223E-0001	
 3.32250000000000E+0003	 9.68369640706320E-0001	
 3.32450000000000E+0003	 9.68480941152416E-0001	
 3.32650000000000E+0003	 9.68619741598513E-0001	
 3.32850000000000E+0003	 9.68802542044610E-0001	
 3.33050000000000E+0003	 9.68966842490706E-0001	
 3.33250000000000E+0003	 9.69152642936803E-0001	
 3.33450000000000E+0003	 9.69346943382900E-0001	
 3.33650000000000E+0003	 9.69568743828996E-0001	
 3.33850000000000E+0003	 9.69827044275093E-0001	
 3.34050000000000E+0003	 9.70141344721190E-0001	
 3.34250000000000E+0003	 9.70466645167286E-0001	
 3.34450000000000E+0003	 9.70834945613383E-0001	
 3.34650000000000E+0003	 9.71193246059480E-0001	
 3.34850000000000E+0003	 9.71579046505576E-0001	
 3.35050000000000E+0003	 9.72014846951673E-0001	
 3.35250000000000E+0003	 9.72486647397770E-0001	
 3.35450000000000E+0003	 9.72920447843866E-0001	
 3.35650000000000E+0003	 9.73359248289963E-0001	
 3.35850000000000E+0003	 9.73789548736059E-0001	
 3.36050000000000E+0003	 9.74247849182156E-0001	
 3.36250000000000E+0003	 9.74698649628253E-0001	
 3.36450000000000E+0003	 9.75158450074349E-0001	
 3.36650000000000E+0003	 9.75639750520446E-0001	
 3.36850000000000E+0003	 9.76128550966543E-0001	
 3.37050000000000E+0003	 9.76517851412639E-0001	
 3.37250000000000E+0003	 9.76857151858736E-0001	
 3.37450000000000E+0003	 9.77200952304833E-0001	
 3.37650000000000E+0003	 9.77574752750929E-0001	
 3.37850000000000E+0003	 9.77917553197026E-0001	
 3.38050000000000E+0003	 9.78239353643123E-0001	
 3.38250000000000E+0003	 9.78520654089219E-0001	
 3.38450000000000E+0003	 9.78809954535316E-0001	
 3.38650000000000E+0003	 9.79077754981413E-0001	
 3.38850000000000E+0003	 9.79354055427509E-0001	
 3.39050000000000E+0003	 9.79619355873606E-0001	
 3.39250000000000E+0003	 9.79831656319703E-0001	
 3.39450000000000E+0003	 9.79905456765799E-0001	
 3.39650000000000E+0003	 9.79989257211896E-0001	
 3.39850000000000E+0003	 9.80155557657993E-0001	
 3.40050000000000E+0003	 9.80269858104089E-0001	
 3.40250000000000E+0003	 9.80150658550186E-0001	
 3.40450000000000E+0003	 9.79950958996283E-0001	
 3.40650000000000E+0003	 9.79779759442379E-0001	
 3.40850000000000E+0003	 9.79618559888476E-0001	
 3.41050000000000E+0003	 9.79370360334572E-0001	
 3.41250000000000E+0003	 9.79040660780669E-0001	
 3.41450000000000E+0003	 9.78560961226766E-0001	
 3.41650000000000E+0003	 9.77970761672862E-0001	
 3.41850000000000E+0003	 9.77325062118959E-0001	
 3.42050000000000E+0003	 9.76655862565056E-0001	
 3.42250000000000E+0003	 9.75864663011152E-0001	
 3.42450000000000E+0003	 9.74970963457249E-0001	
 3.42650000000000E+0003	 9.74031263903346E-0001	
 3.42850000000000E+0003	 9.73056064349442E-0001	
 3.43050000000000E+0003	 9.71924864795539E-0001	
 3.43250000000000E+0003	 9.70730665241636E-0001	
 3.43450000000000E+0003	 9.69493465687732E-0001	
 3.43650000000000E+0003	 9.68050766133829E-0001	
 3.43850000000000E+0003	 9.66334066579926E-0001	
 3.44050000000000E+0003	 9.64557367026022E-0001	
 3.44250000000000E+0003	 9.62796167472119E-0001	
 3.44450000000000E+0003	 9.61007467918216E-0001	
 3.44650000000000E+0003	 9.59172768364312E-0001	
 3.44850000000000E+0003	 9.57255568810409E-0001	
 3.45050000000000E+0003	 9.55188869256506E-0001	
 3.45250000000000E+0003	 9.53070169702602E-0001	
 3.45450000000000E+0003	 9.50894970148699E-0001	
 3.45650000000000E+0003	 9.48696770594796E-0001	
 3.45850000000000E+0003	 9.46449071040892E-0001	
 3.46050000000000E+0003	 9.44083871486989E-0001	
 3.46250000000000E+0003	 9.41592671933086E-0001	
 3.46450000000000E+0003	 9.39193972379182E-0001	
 3.46650000000000E+0003	 9.36871772825279E-0001	
 3.46850000000000E+0003	 9.34304573271375E-0001	
 3.47050000000000E+0003	 9.31306873717472E-0001	
 3.47250000000000E+0003	 9.28211674163569E-0001	
 3.47450000000000E+0003	 9.25245474609665E-0001	
 3.47650000000000E+0003	 9.22389275055762E-0001	
 3.47850000000000E+0003	 9.19515075501859E-0001	
 3.48050000000000E+0003	 9.16468375947955E-0001	
 3.48250000000000E+0003	 9.13249176394052E-0001	
 3.48450000000000E+0003	 9.10069976840149E-0001	
 3.48650000000000E+0003	 9.06894277286245E-0001	
 3.48850000000000E+0003	 9.03624577732342E-0001	
 3.49050000000000E+0003	 9.00274878178439E-0001	
 3.49250000000000E+0003	 8.96930178624535E-0001	
 3.49450000000000E+0003	 8.93575479070632E-0001	
 3.49650000000000E+0003	 8.90191279516729E-0001	
 3.49850000000000E+0003	 8.86694079962825E-0001	
 3.50050000000000E+0003	 8.83203380408922E-0001	
 3.50250000000000E+0003	 8.79683180855019E-0001	
 3.50450000000000E+0003	 8.75939481301115E-0001	
 3.50650000000000E+0003	 8.72085781747212E-0001	
 3.50850000000000E+0003	 8.68347582193309E-0001	
 3.51050000000000E+0003	 8.64670382639405E-0001	
 3.51250000000000E+0003	 8.60986683085502E-0001	
 3.51450000000000E+0003	 8.57161483531599E-0001	
 3.51650000000000E+0003	 8.53221783977695E-0001	
 3.51850000000000E+0003	 8.49267084423792E-0001	
 3.52050000000000E+0003	 8.45380884869888E-0001	
 3.52250000000000E+0003	 8.41537685315985E-0001	
 3.52450000000000E+0003	 8.37478485762082E-0001	
 3.52650000000000E+0003	 8.33208786208178E-0001	
 3.52850000000000E+0003	 8.28997086654275E-0001	
 3.53050000000000E+0003	 8.24808887100372E-0001	
 3.53250000000000E+0003	 8.20620187546468E-0001	
 3.53450000000000E+0003	 8.16470487992565E-0001	
 3.53650000000000E+0003	 8.12203788438662E-0001	
 3.53850000000000E+0003	 8.07709088884758E-0001	
 3.54050000000000E+0003	 8.03277389330855E-0001	
 3.54250000000000E+0003	 7.98940189776952E-0001	
 3.54450000000000E+0003	 7.94472990223048E-0001	
 3.54650000000000E+0003	 7.89663290669145E-0001	
 3.54850000000000E+0003	 7.84693091115242E-0001	
 3.55050000000000E+0003	 7.79842391561338E-0001	
 3.55250000000000E+0003	 7.75013692007435E-0001	
 3.55450000000000E+0003	 7.70073492453532E-0001	
 3.55650000000000E+0003	 7.65127292899628E-0001	
 3.55850000000000E+0003	 7.60182093345725E-0001	
 3.56050000000000E+0003	 7.55174393791822E-0001	
 3.56250000000000E+0003	 7.49973194237918E-0001	
 3.56450000000000E+0003	 7.44667994684015E-0001	
 3.56650000000000E+0003	 7.39439795130112E-0001	
 3.56850000000000E+0003	 7.34190595576208E-0001	
 3.57050000000000E+0003	 7.28824396022305E-0001	
 3.57250000000000E+0003	 7.23399696468401E-0001	
 3.57450000000000E+0003	 7.17910996914498E-0001	
 3.57650000000000E+0003	 7.12384297360595E-0001	
 3.57850000000000E+0003	 7.06851597806691E-0001	
 3.58050000000000E+0003	 7.01334398252788E-0001	
 3.58250000000000E+0003	 6.95783698698885E-0001	
 3.58450000000000E+0003	 6.90140999144981E-0001	
 3.58650000000000E+0003	 6.84281799591078E-0001	
 3.58850000000000E+0003	 6.78188600037175E-0001	
 3.59050000000000E+0003	 6.72196900483271E-0001	
 3.59250000000000E+0003	 6.66404700929368E-0001	
 3.59450000000000E+0003	 6.60524001375465E-0001	
 3.59650000000000E+0003	 6.54576301821561E-0001	
 3.59850000000000E+0003	 6.48686602267658E-0001	
 3.60050000000000E+0003	 6.42762402713755E-0001	
 3.60250000000000E+0003	 6.36756203159851E-0001	
 3.60450000000000E+0003	 6.30754503605948E-0001	
 3.60650000000000E+0003	 6.24748304052045E-0001	
 3.60850000000000E+0003	 6.18658604498141E-0001	
 3.61050000000000E+0003	 6.12527904944238E-0001	
 3.61250000000000E+0003	 6.06530705390335E-0001	
 3.61450000000000E+0003	 6.00509005836431E-0001	
 3.61650000000000E+0003	 5.94551806282528E-0001	
 3.61850000000000E+0003	 5.88673606728625E-0001	
 3.62050000000000E+0003	 5.82621907174721E-0001	
 3.62250000000000E+0003	 5.76630207620818E-0001	
 3.62450000000000E+0003	 5.70812508066914E-0001	
 3.62650000000000E+0003	 5.65034308513011E-0001	
 3.62850000000000E+0003	 5.59133108959108E-0001	
 3.63050000000000E+0003	 5.52934909405204E-0001	
 3.63250000000000E+0003	 5.47181709851301E-0001	
 3.63450000000000E+0003	 5.41643510297398E-0001	
 3.63650000000000E+0003	 5.35996310743494E-0001	
 3.63850000000000E+0003	 5.30427111189591E-0001	
 3.64050000000000E+0003	 5.24918911635688E-0001	
 3.64250000000000E+0003	 5.19488212081784E-0001	
 3.64450000000000E+0003	 5.14176512527881E-0001	
 3.64650000000000E+0003	 5.08993812973978E-0001	
 3.64850000000000E+0003	 5.03709113420074E-0001	
 3.65050000000000E+0003	 4.98353413866171E-0001	
 3.65250000000000E+0003	 4.93201714312268E-0001	
 3.65450000000000E+0003	 4.88436014758364E-0001	
 3.65650000000000E+0003	 4.83726315204461E-0001	
 3.65850000000000E+0003	 4.78996615650558E-0001	
 3.66050000000000E+0003	 4.74510916096654E-0001	
 3.66250000000000E+0003	 4.70094716542751E-0001	
 3.66450000000000E+0003	 4.65818516988848E-0001	
 3.66650000000000E+0003	 4.61766817434944E-0001	
 3.66850000000000E+0003	 4.57846617881041E-0001	
 3.67050000000000E+0003	 4.53935418327138E-0001	
 3.67250000000000E+0003	 4.50160718773234E-0001	
 3.67450000000000E+0003	 4.46724019219331E-0001	
 3.67650000000000E+0003	 4.43178819665428E-0001	
 3.67850000000000E+0003	 4.39825620111524E-0001	
 3.68050000000000E+0003	 4.36811420557621E-0001	
 3.68250000000000E+0003	 4.33906221003717E-0001	
 3.68450000000000E+0003	 4.31155521449814E-0001	
 3.68650000000000E+0003	 4.28553321895911E-0001	
 3.68850000000000E+0003	 4.26005622342007E-0001	
 3.69050000000000E+0003	 4.23349922788104E-0001	
 3.69250000000000E+0003	 4.20869723234201E-0001	
 3.69450000000000E+0003	 4.18648523680297E-0001	
 3.69650000000000E+0003	 4.16593824126394E-0001	
 3.69850000000000E+0003	 4.14598124572491E-0001	
 3.70050000000000E+0003	 4.12702925018587E-0001	
 3.70250000000000E+0003	 4.10886725464684E-0001	
 3.70450000000000E+0003	 4.09160525910781E-0001	
 3.70650000000000E+0003	 4.07561826356877E-0001	
 3.70850000000000E+0003	 4.06009626802974E-0001	
 3.71050000000000E+0003	 4.04469927249071E-0001	
 3.71250000000000E+0003	 4.03011227695167E-0001	
 3.71450000000000E+0003	 4.01607028141264E-0001	
 3.71650000000000E+0003	 4.00264328587361E-0001	
 3.71850000000000E+0003	 3.98987129033457E-0001	
 3.72050000000000E+0003	 3.97748429479554E-0001	
 3.72250000000000E+0003	 3.96556729925651E-0001	
 3.72450000000000E+0003	 3.95382030371747E-0001	
 3.72650000000000E+0003	 3.94282830817844E-0001	
 3.72850000000000E+0003	 3.93211631263941E-0001	
 3.73050000000000E+0003	 3.92223431710037E-0001	
 3.73250000000000E+0003	 3.91269232156134E-0001	
 3.73450000000000E+0003	 3.90235032602230E-0001	
 3.73650000000000E+0003	 3.89238833048327E-0001	
 3.73850000000000E+0003	 3.88347133494424E-0001	
 3.74050000000000E+0003	 3.87486933940520E-0001	
 3.74250000000000E+0003	 3.86552734386617E-0001	
 3.74450000000000E+0003	 3.85736034832714E-0001	
 3.74650000000000E+0003	 3.84827835278810E-0001	
 3.74850000000000E+0003	 3.83956635724907E-0001	
 3.75050000000000E+0003	 3.83125436171004E-0001	
 3.75250000000000E+0003	 3.82345236617100E-0001	
 3.75450000000000E+0003	 3.81593037063197E-0001	
 3.75650000000000E+0003	 3.80840837509294E-0001	
 3.75850000000000E+0003	 3.80098137955390E-0001	
 3.76050000000000E+0003	 3.79395938401487E-0001	
 3.76250000000000E+0003	 3.78686238847584E-0001	
 3.76450000000000E+0003	 3.78029039293680E-0001	
 3.76650000000000E+0003	 3.77356339739777E-0001	
 3.76850000000000E+0003	 3.76670640185874E-0001	
 3.77050000000000E+0003	 3.76035440631970E-0001	
 3.77250000000000E+0003	 3.75391241078067E-0001	
 3.77450000000000E+0003	 3.74792541524164E-0001	
 3.77650000000000E+0003	 3.74194841970260E-0001	
 3.77850000000000E+0003	 3.73627142416357E-0001	
 3.78050000000000E+0003	 3.73055442862454E-0001	
 3.78250000000000E+0003	 3.72441243308550E-0001	
 3.78450000000000E+0003	 3.71870543754647E-0001	
 3.78650000000000E+0003	 3.71332844200743E-0001	
 3.78850000000000E+0003	 3.70816644646840E-0001	
 3.79050000000000E+0003	 3.70321445092937E-0001	
 3.79250000000000E+0003	 3.69821745539033E-0001	
 3.79450000000000E+0003	 3.69306045985130E-0001	
 3.79650000000000E+0003	 3.68856346431227E-0001	
 3.79850000000000E+0003	 3.68335146877323E-0001	
 3.80050000000000E+0003	 3.67848447323420E-0001	
 3.80250000000000E+0003	 3.67424747769517E-0001	
 3.80450000000000E+0003	 3.66919048215613E-0001	
 3.80650000000000E+0003	 3.66496848661710E-0001	
 3.80850000000000E+0003	 3.66073649107807E-0001	
 3.81050000000000E+0003	 3.65678449553903E-0001	
 3.81250000000000E+0003	 3.65272750000000E-0001	
 3.81450000000000E+0003	 3.64855550446097E-0001	
 3.81650000000000E+0003	 3.64519350892193E-0001	
 3.81850000000000E+0003	 3.64081651338290E-0001	
 3.82050000000000E+0003	 3.63704951784387E-0001	
 3.82250000000000E+0003	 3.63323252230483E-0001	
 3.82450000000000E+0003	 3.62915552676580E-0001	
 3.82650000000000E+0003	 3.62581853122677E-0001	
 3.82850000000000E+0003	 3.62237153568773E-0001	
 3.83050000000000E+0003	 3.61918454014870E-0001	
 3.83250000000000E+0003	 3.61641754460967E-0001	
 3.83450000000000E+0003	 3.61348554907063E-0001	
 3.83650000000000E+0003	 3.61025355353160E-0001	
 3.83850000000000E+0003	 3.60674155799257E-0001	
 3.84050000000000E+0003	 3.60307456245353E-0001	
 3.84250000000000E+0003	 3.59986756691450E-0001	
 3.84450000000000E+0003	 3.59722057137546E-0001	
 3.84650000000000E+0003	 3.59474357583643E-0001	
 3.84850000000000E+0003	 3.59264658029740E-0001	
 3.85050000000000E+0003	 3.58996458475836E-0001	
 3.85250000000000E+0003	 3.58718758921933E-0001	
 3.85450000000000E+0003	 3.58440559368030E-0001	
 3.85650000000000E+0003	 3.58155359814126E-0001	
 3.85850000000000E+0003	 3.57894660260223E-0001	
 3.86050000000000E+0003	 3.57671460706320E-0001	
 3.86250000000000E+0003	 3.57436261152416E-0001	
 3.86450000000000E+0003	 3.57252561598513E-0001	
 3.86650000000000E+0003	 3.57031862044610E-0001	
 3.86850000000000E+0003	 3.56802162490706E-0001	
 3.87050000000000E+0003	 3.56603962936803E-0001	
 3.87250000000000E+0003	 3.56334763382900E-0001	
 3.87450000000000E+0003	 3.56161563828996E-0001	
 3.87650000000000E+0003	 3.55976364275093E-0001	
 3.87850000000000E+0003	 3.55796164721190E-0001	
 3.88050000000000E+0003	 3.55669465167286E-0001	
 3.88250000000000E+0003	 3.55465265613383E-0001	
 3.88450000000000E+0003	 3.55297066059480E-0001	
 3.88650000000000E+0003	 3.55176366505576E-0001	
 3.88850000000000E+0003	 3.54976166951673E-0001	
 3.89050000000000E+0003	 3.54833967397770E-0001	
 3.89250000000000E+0003	 3.54689267843866E-0001	
 3.89450000000000E+0003	 3.54543068289963E-0001	
 3.89650000000000E+0003	 3.54425368736059E-0001	
 3.89850000000000E+0003	 3.54338669182156E-0001	
 3.90050000000000E+0003	 3.54210969628253E-0001	
 3.90250000000000E+0003	 3.54054270074349E-0001	
 3.90450000000000E+0003	 3.53931070520446E-0001	
 3.90650000000000E+0003	 3.53797870966543E-0001	
 3.90850000000000E+0003	 3.53678671412639E-0001	
 3.91050000000000E+0003	 3.53593471858736E-0001	
 3.91250000000000E+0003	 3.53521772304833E-0001	
 3.91450000000000E+0003	 3.53442072750929E-0001	
 3.91650000000000E+0003	 3.53364873197026E-0001	
 3.91850000000000E+0003	 3.53285173643123E-0001	
 3.92050000000000E+0003	 3.53208474089219E-0001	
 3.92250000000000E+0003	 3.53118774535316E-0001	
 3.92450000000000E+0003	 3.53049574981413E-0001	
 3.92650000000000E+0003	 3.52975875427509E-0001	
 3.92850000000000E+0003	 3.52900675873606E-0001	
 3.93050000000000E+0003	 3.52821976319703E-0001	
 3.93250000000000E+0003	 3.52744776765799E-0001	
 3.93450000000000E+0003	 3.52673577211896E-0001	
 3.93650000000000E+0003	 3.52612877657993E-0001	
 3.93850000000000E+0003	 3.52549178104089E-0001	
 3.94050000000000E+0003	 3.52471478550186E-0001	
 3.94250000000000E+0003	 3.52407278996283E-0001	
 3.94450000000000E+0003	 3.52322579442379E-0001	
 3.94650000000000E+0003	 3.52240879888476E-0001	
 3.94850000000000E+0003	 3.52173680334572E-0001	
 3.95050000000000E+0003	 3.52100980780669E-0001	
 3.95250000000000E+0003	 3.52029281226766E-0001	
 3.95450000000000E+0003	 3.51965581672862E-0001	
 3.95650000000000E+0003	 3.51908382118959E-0001	
 3.95850000000000E+0003	 3.51843182565056E-0001	
 3.96050000000000E+0003	 3.51775483011152E-0001	
 3.96250000000000E+0003	 3.51720783457249E-0001	
 3.96450000000000E+0003	 3.51670583903346E-0001	
 3.96650000000000E+0003	 3.51623384349442E-0001	
 3.96850000000000E+0003	 3.51573184795539E-0001	
 3.97050000000000E+0003	 3.51522985241636E-0001	
 3.97250000000000E+0003	 3.51471785687732E-0001	
 3.97450000000000E+0003	 3.51420086133829E-0001	
 3.97650000000000E+0003	 3.51368386579926E-0001	
 3.97850000000000E+0003	 3.51317187026022E-0001	
 3.98050000000000E+0003	 3.51271487472119E-0001	
 3.98250000000000E+0003	 3.51234287918216E-0001	
 3.98450000000000E+0003	 3.51193088364312E-0001	
 3.98650000000000E+0003	 3.51139888810409E-0001	
 3.98850000000000E+0003	 3.51080189256506E-0001	
 3.99050000000000E+0003	 3.51029489702602E-0001	
 3.99250000000000E+0003	 3.50981790148699E-0001	
 3.99450000000000E+0003	 3.50938090594796E-0001	
 3.99650000000000E+0003	 3.50870391040892E-0001	
 3.99850000000000E+0003	 3.50833691486989E-0001	

>1	DATALINE
