*CPCWIN*

>1	DATALINE
DATALINE
1
Operator:

Description:

Remarks:





15.9.2008
11:22


_x	_y
	
	
UNIT	UNIT
 4.50500000000000E+0002	 2.15435500000000E-0001	
 4.52500000000000E+0002	 2.16207500000000E-0001	
 4.54500000000000E+0002	 2.17167000000000E-0001	
 4.56500000000000E+0002	 2.18237000000000E-0001	
 4.58500000000000E+0002	 2.19315995497025E-0001	
 4.60500000000000E+0002	 2.20208865712613E-0001	
 4.62500000000000E+0002	 2.21203235928202E-0001	
 4.64500000000000E+0002	 2.22218106143791E-0001	
 4.66500000000000E+0002	 2.23277476359380E-0001	
 4.68500000000000E+0002	 2.24159846574968E-0001	
 4.70500000000000E+0002	 2.24129216790557E-0001	
 4.72500000000000E+0002	 2.24869087006146E-0001	
 4.74500000000000E+0002	 2.26267457221734E-0001	
 4.76500000000000E+0002	 2.27616827437323E-0001	
 4.78500000000000E+0002	 2.28974697652912E-0001	
 4.80500000000000E+0002	 2.30019067868501E-0001	
 4.82500000000000E+0002	 2.30916438084089E-0001	
 4.84500000000000E+0002	 2.31802308299678E-0001	
 4.86500000000000E+0002	 2.33165678515267E-0001	
 4.88500000000000E+0002	 2.34583048730856E-0001	
 4.90500000000000E+0002	 2.35771418946444E-0001	
 4.92500000000000E+0002	 2.36939289162033E-0001	
 4.94500000000000E+0002	 2.38508159377622E-0001	
 4.96500000000000E+0002	 2.39918529593210E-0001	
 4.98500000000000E+0002	 2.41085899808799E-0001	
 5.00500000000000E+0002	 2.41587270024388E-0001	
 5.02500000000000E+0002	 2.42423140239977E-0001	
 5.04500000000000E+0002	 2.43755510455565E-0001	
 5.06500000000000E+0002	 2.44835380671154E-0001	
 5.08500000000000E+0002	 2.45718750886743E-0001	
 5.10500000000000E+0002	 2.46779621102331E-0001	
 5.12500000000000E+0002	 2.47820491317920E-0001	
 5.14500000000000E+0002	 2.48694861533509E-0001	
 5.16500000000000E+0002	 2.49268731749098E-0001	
 5.18500000000000E+0002	 2.50252601964686E-0001	
 5.20500000000000E+0002	 2.51415472180275E-0001	
 5.22500000000000E+0002	 2.52382842395864E-0001	
 5.24500000000000E+0002	 2.52536212611453E-0001	
 5.26500000000000E+0002	 2.52995582827041E-0001	
 5.28500000000000E+0002	 2.53905453042630E-0001	
 5.30500000000000E+0002	 2.54545323258219E-0001	
 5.32500000000000E+0002	 2.54609693473807E-0001	
 5.34500000000000E+0002	 2.54499063689396E-0001	
 5.36500000000000E+0002	 2.54127433904985E-0001	
 5.38500000000000E+0002	 2.53662804120574E-0001	
 5.40500000000000E+0002	 2.52897174336162E-0001	
 5.42500000000000E+0002	 2.52105544551751E-0001	
 5.44500000000000E+0002	 2.51159914767340E-0001	
 5.46500000000000E+0002	 2.50360284982928E-0001	
 5.48500000000000E+0002	 2.49681655198517E-0001	
 5.50500000000000E+0002	 2.49239025414106E-0001	
 5.52500000000000E+0002	 2.48826895629695E-0001	
 5.54500000000000E+0002	 2.48522265845283E-0001	
 5.56500000000000E+0002	 2.48206136060872E-0001	
 5.58500000000000E+0002	 2.48074006276461E-0001	
 5.60500000000000E+0002	 2.47891376492050E-0001	
 5.62500000000000E+0002	 2.47728746707638E-0001	
 5.64500000000000E+0002	 2.47466616923227E-0001	
 5.66500000000000E+0002	 2.47290987138816E-0001	
 5.68500000000000E+0002	 2.47076857354404E-0001	
 5.70500000000000E+0002	 2.46994727569993E-0001	
 5.72500000000000E+0002	 2.46827597785582E-0001	
 5.74500000000000E+0002	 2.46507468001171E-0001	
 5.76500000000000E+0002	 2.46011338216759E-0001	
 5.78500000000000E+0002	 2.45416208432348E-0001	
 5.80500000000000E+0002	 2.44319078647937E-0001	
 5.82500000000000E+0002	 2.43187948863526E-0001	
 5.84500000000000E+0002	 2.42172819079114E-0001	
 5.86500000000000E+0002	 2.41572689294703E-0001	
 5.88500000000000E+0002	 2.41159059510292E-0001	
 5.90500000000000E+0002	 2.40885429725880E-0001	
 5.92500000000000E+0002	 2.40987299941469E-0001	
 5.94500000000000E+0002	 2.41449170157058E-0001	
 5.96500000000000E+0002	 2.41697540372647E-0001	
 5.98500000000000E+0002	 2.41755910588235E-0001	
 6.00500000000000E+0002	 2.41847280803824E-0001	
 6.02500000000000E+0002	 2.42109151019413E-0001	
 6.04500000000000E+0002	 2.42316521235001E-0001	
 6.06500000000000E+0002	 2.42577391450590E-0001	
 6.08500000000000E+0002	 2.42805761666179E-0001	
 6.10500000000000E+0002	 2.43002131881768E-0001	
 6.12500000000000E+0002	 2.43017002097356E-0001	
 6.14500000000000E+0002	 2.42800372312945E-0001	
 6.16500000000000E+0002	 2.42336742528534E-0001	
 6.18500000000000E+0002	 2.41557112744123E-0001	
 6.20500000000000E+0002	 2.40519482959711E-0001	
 6.22500000000000E+0002	 2.39491853175300E-0001	
 6.24500000000000E+0002	 2.38486223390889E-0001	
 6.26500000000000E+0002	 2.37674593606477E-0001	
 6.28500000000000E+0002	 2.37033963822066E-0001	
 6.30500000000000E+0002	 2.36406834037655E-0001	
 6.32500000000000E+0002	 2.35797204253244E-0001	
 6.34500000000000E+0002	 2.35279074468832E-0001	
 6.36500000000000E+0002	 2.34970944684421E-0001	
 6.38500000000000E+0002	 2.34691814900010E-0001	
 6.40500000000000E+0002	 2.34360685115598E-0001	
 6.42500000000000E+0002	 2.33915555331187E-0001	
 6.44500000000000E+0002	 2.33302425546776E-0001	
 6.46500000000000E+0002	 2.32587295762365E-0001	
 6.48500000000000E+0002	 2.31897165977953E-0001	
 6.50500000000000E+0002	 2.31179036193542E-0001	
 6.52500000000000E+0002	 2.30581906409131E-0001	
 6.54500000000000E+0002	 2.30096276624720E-0001	
 6.56500000000000E+0002	 2.29729646840308E-0001	
 6.58500000000000E+0002	 2.29365517055897E-0001	
 6.60500000000000E+0002	 2.29140387271486E-0001	
 6.62500000000000E+0002	 2.28835257487074E-0001	
 6.64500000000000E+0002	 2.28216627702663E-0001	
 6.66500000000000E+0002	 2.26682497918252E-0001	
 6.68500000000000E+0002	 2.25700868133841E-0001	
 6.70500000000000E+0002	 2.26159738349429E-0001	
 6.72500000000000E+0002	 2.25856608565018E-0001	
 6.74500000000000E+0002	 2.24985978780607E-0001	
 6.76500000000000E+0002	 2.24064848996195E-0001	
 6.78500000000000E+0002	 2.23098719211784E-0001	
 6.80500000000000E+0002	 2.22279089427373E-0001	
 6.82500000000000E+0002	 2.21498459642962E-0001	
 6.84500000000000E+0002	 2.20858829858550E-0001	
 6.86500000000000E+0002	 2.20227700074139E-0001	
 6.88500000000000E+0002	 2.19757070289728E-0001	
 6.90500000000000E+0002	 2.19432440505317E-0001	
 6.92500000000000E+0002	 2.19266810720905E-0001	
 6.94500000000000E+0002	 2.19150680936494E-0001	
 6.96500000000000E+0002	 2.19168051152083E-0001	
 6.98500000000000E+0002	 2.19136421367671E-0001	
 7.00500000000000E+0002	 2.18977291583260E-0001	
 7.02500000000000E+0002	 2.18449661798849E-0001	
 7.04500000000000E+0002	 2.17674532014438E-0001	
 7.06500000000000E+0002	 2.16668902230026E-0001	
 7.08500000000000E+0002	 2.15539772445615E-0001	
 7.10500000000000E+0002	 2.14269142661204E-0001	
 7.12500000000000E+0002	 2.12956012876793E-0001	
 7.14500000000000E+0002	 2.11525883092381E-0001	
 7.16500000000000E+0002	 2.10191253307970E-0001	
 7.18500000000000E+0002	 2.09044123523559E-0001	
 7.20500000000000E+0002	 2.07978493739147E-0001	
 7.22500000000000E+0002	 2.06706363954736E-0001	
 7.24500000000000E+0002	 2.05322234170325E-0001	
 7.26500000000000E+0002	 2.03765604385914E-0001	
 7.28500000000000E+0002	 2.02164974601502E-0001	
 7.30500000000000E+0002	 2.00603344817091E-0001	
 7.32500000000000E+0002	 1.99195215032680E-0001	
 7.34500000000000E+0002	 1.97941585248268E-0001	
 7.36500000000000E+0002	 1.96858955463857E-0001	
 7.38500000000000E+0002	 1.95888825679446E-0001	
 7.40500000000000E+0002	 1.95025695895035E-0001	
 7.42500000000000E+0002	 1.94217566110623E-0001	
 7.44500000000000E+0002	 1.93509436326212E-0001	
 7.46500000000000E+0002	 1.92898806541801E-0001	
 7.48500000000000E+0002	 1.92298176757390E-0001	
 7.50500000000000E+0002	 1.91601046972978E-0001	
 7.52500000000000E+0002	 1.90778917188567E-0001	
 7.54500000000000E+0002	 1.89834787404156E-0001	
 7.56500000000000E+0002	 1.88758657619744E-0001	
 7.58500000000000E+0002	 1.87601527835333E-0001	
 7.60500000000000E+0002	 1.86495898050922E-0001	
 7.62500000000000E+0002	 1.85553768266511E-0001	
 7.64500000000000E+0002	 1.84673638482099E-0001	
 7.66500000000000E+0002	 1.83626008697688E-0001	
 7.68500000000000E+0002	 1.82311378913277E-0001	
 7.70500000000000E+0002	 1.80984749128865E-0001	
 7.72500000000000E+0002	 1.79955119344454E-0001	
 7.74500000000000E+0002	 1.79450489560043E-0001	
 7.76500000000000E+0002	 1.79649859775632E-0001	
 7.78500000000000E+0002	 1.80223729991220E-0001	
 7.80500000000000E+0002	 1.80129100206809E-0001	
 7.82500000000000E+0002	 1.78989970422398E-0001	
 7.84500000000000E+0002	 1.77641840637987E-0001	
 7.86500000000000E+0002	 1.76673710853575E-0001	
 7.88500000000000E+0002	 1.76013581069164E-0001	
 7.90500000000000E+0002	 1.75625451284753E-0001	
 7.92500000000000E+0002	 1.75796321500341E-0001	
 7.94500000000000E+0002	 1.76564191715930E-0001	
 7.96500000000000E+0002	 1.77530561931519E-0001	
 7.98500000000000E+0002	 1.78300932147108E-0001	
 8.00500000000000E+0002	 1.78930302362696E-0001	
 8.02500000000000E+0002	 1.79306172578285E-0001	
 8.04500000000000E+0002	 1.79197542793874E-0001	
 8.06500000000000E+0002	 1.78318413009462E-0001	
 8.08500000000000E+0002	 1.76883283225051E-0001	
 8.10500000000000E+0002	 1.75205653440640E-0001	
 8.12500000000000E+0002	 1.73694523656229E-0001	
 8.14500000000000E+0002	 1.72378893871817E-0001	
 8.16500000000000E+0002	 1.71385264087406E-0001	
 8.18500000000000E+0002	 1.70566634302995E-0001	
 8.20500000000000E+0002	 1.69991004518584E-0001	
 8.22500000000000E+0002	 1.69501874734172E-0001	
 8.24500000000000E+0002	 1.69241744949761E-0001	
 8.26500000000000E+0002	 1.69050615165350E-0001	
 8.28500000000000E+0002	 1.69068985380938E-0001	
 8.30500000000000E+0002	 1.69169855596527E-0001	
 8.32500000000000E+0002	 1.69474725812116E-0001	
 8.34500000000000E+0002	 1.69805596027705E-0001	
 8.36500000000000E+0002	 1.70282466243293E-0001	
 8.38500000000000E+0002	 1.70675336458882E-0001	
 8.40500000000000E+0002	 1.71125706674471E-0001	
 8.42500000000000E+0002	 1.71490576890060E-0001	
 8.44500000000000E+0002	 1.72024947105648E-0001	
 8.46500000000000E+0002	 1.72585817321237E-0001	
 8.48500000000000E+0002	 1.73383187536826E-0001	
 8.50500000000000E+0002	 1.74204557752414E-0001	
 8.52500000000000E+0002	 1.75212427968003E-0001	
 8.54500000000000E+0002	 1.76116798183592E-0001	
 8.56500000000000E+0002	 1.76998168399181E-0001	
 8.58500000000000E+0002	 1.77500038614769E-0001	
 8.60500000000000E+0002	 1.77740908830358E-0001	
 8.62500000000000E+0002	 1.77437779045947E-0001	
 8.64500000000000E+0002	 1.76818649261535E-0001	
 8.66500000000000E+0002	 1.75783019477124E-0001	
 8.68500000000000E+0002	 1.74908389692713E-0001	
 8.70500000000000E+0002	 1.74451759908302E-0001	
 8.72500000000000E+0002	 1.74179130123890E-0001	
 8.74500000000000E+0002	 1.72864000339479E-0001	
 8.76500000000000E+0002	 1.71169370555068E-0001	
 8.78500000000000E+0002	 1.69606740770657E-0001	
 8.80500000000000E+0002	 1.68419610986245E-0001	
 8.82500000000000E+0002	 1.67291981201834E-0001	
 8.84500000000000E+0002	 1.66412351417423E-0001	
 8.86500000000000E+0002	 1.65567721633011E-0001	
 8.88500000000000E+0002	 1.65059591848600E-0001	
 8.90500000000000E+0002	 1.64748962064189E-0001	
 8.92500000000000E+0002	 1.64851832279778E-0001	
 8.94500000000000E+0002	 1.65099702495366E-0001	
 8.96500000000000E+0002	 1.65577572710955E-0001	
 8.98500000000000E+0002	 1.66049942926544E-0001	
 9.00500000000000E+0002	 1.66741813142132E-0001	
 9.02500000000000E+0002	 1.67558683357721E-0001	
 9.04500000000000E+0002	 1.68748053573310E-0001	
 9.06500000000000E+0002	 1.70122423788899E-0001	
 9.08500000000000E+0002	 1.71710794004487E-0001	
 9.10500000000000E+0002	 1.73145664220076E-0001	
 9.12500000000000E+0002	 1.74348534435665E-0001	
 9.14500000000000E+0002	 1.75007404651254E-0001	
 9.16500000000000E+0002	 1.75242274866842E-0001	
 9.18500000000000E+0002	 1.75037145082431E-0001	
 9.20500000000000E+0002	 1.74799015298020E-0001	
 9.22500000000000E+0002	 1.74706885513608E-0001	
 9.24500000000000E+0002	 1.75118755729197E-0001	
 9.26500000000000E+0002	 1.76016125944786E-0001	
 9.28500000000000E+0002	 1.77450996160375E-0001	
 9.30500000000000E+0002	 1.79176366375963E-0001	
 9.32500000000000E+0002	 1.81120736591552E-0001	
 9.34500000000000E+0002	 1.83047106807141E-0001	
 9.36500000000000E+0002	 1.84940477022729E-0001	
 9.38500000000000E+0002	 1.86658847238318E-0001	
 9.40500000000000E+0002	 1.88233717453907E-0001	
 9.42500000000000E+0002	 1.89516587669496E-0001	
 9.44500000000000E+0002	 1.90493457885084E-0001	
 9.46500000000000E+0002	 1.91072828100673E-0001	
 9.48500000000000E+0002	 1.91412698316262E-0001	
 9.50500000000000E+0002	 1.91687568531851E-0001	
 9.52500000000000E+0002	 1.92255938747439E-0001	
 9.54500000000000E+0002	 1.93362808963028E-0001	
 9.56500000000000E+0002	 1.95216679178617E-0001	
 9.58500000000000E+0002	 1.97749049394205E-0001	
 9.60500000000000E+0002	 2.00821419609794E-0001	
 9.62500000000000E+0002	 2.04200789825383E-0001	
 9.64500000000000E+0002	 2.07739660040972E-0001	
 9.66500000000000E+0002	 2.11317030256560E-0001	
 9.68500000000000E+0002	 2.15001400472149E-0001	
 9.70500000000000E+0002	 2.18995770687738E-0001	
 9.72500000000000E+0002	 2.23666640903327E-0001	
 9.74500000000000E+0002	 2.29382011118915E-0001	
 9.76500000000000E+0002	 2.36405881334504E-0001	
 9.78500000000000E+0002	 2.44730751550093E-0001	
 9.80500000000000E+0002	 2.53964121765681E-0001	
 9.82500000000000E+0002	 2.63351491981270E-0001	
 9.84500000000000E+0002	 2.71915862196859E-0001	
 9.86500000000000E+0002	 2.78837732412448E-0001	
 9.88500000000000E+0002	 2.83608102628036E-0001	
 9.90500000000000E+0002	 2.86139472843625E-0001	
 9.92500000000000E+0002	 2.86568343059214E-0001	
 9.94500000000000E+0002	 2.85309213274802E-0001	
 9.96500000000000E+0002	 2.82898583490391E-0001	
 9.98500000000000E+0002	 2.80152953705980E-0001	
 1.00050000000000E+0003	 2.77906823921569E-0001	
 1.00250000000000E+0003	 2.76948194137157E-0001	
 1.00450000000000E+0003	 2.77678564352746E-0001	
 1.00650000000000E+0003	 2.80170434568335E-0001	
 1.00850000000000E+0003	 2.83915804783924E-0001	
 1.01050000000000E+0003	 2.88258174999512E-0001	
 1.01250000000000E+0003	 2.92527545215101E-0001	
 1.01450000000000E+0003	 2.96478415430690E-0001	
 1.01650000000000E+0003	 3.00043785646278E-0001	
 1.01850000000000E+0003	 3.03545155861867E-0001	
 1.02050000000000E+0003	 3.07222526077456E-0001	
 1.02250000000000E+0003	 3.11353396293045E-0001	
 1.02450000000000E+0003	 3.15743266508633E-0001	
 1.02650000000000E+0003	 3.20054136724222E-0001	
 1.02850000000000E+0003	 3.23680506939811E-0001	
 1.03050000000000E+0003	 3.26344377155399E-0001	
 1.03250000000000E+0003	 3.27907247370988E-0001	
 1.03450000000000E+0003	 3.28688117586577E-0001	
 1.03650000000000E+0003	 3.28934487802166E-0001	
 1.03850000000000E+0003	 3.29101358017754E-0001	
 1.04050000000000E+0003	 3.29427228233343E-0001	
 1.04250000000000E+0003	 3.30208598448932E-0001	
 1.04450000000000E+0003	 3.31359968664521E-0001	
 1.04650000000000E+0003	 3.32755338880109E-0001	
 1.04850000000000E+0003	 3.33896709095698E-0001	
 1.05050000000000E+0003	 3.34557079311287E-0001	
 1.05250000000000E+0003	 3.34539949526875E-0001	
 1.05450000000000E+0003	 3.34094819742464E-0001	
 1.05650000000000E+0003	 3.33391689958053E-0001	
 1.05850000000000E+0003	 3.32642060173642E-0001	
 1.06050000000000E+0003	 3.31717430389230E-0001	
 1.06250000000000E+0003	 3.30691800604819E-0001	
 1.06450000000000E+0003	 3.29663670820408E-0001	
 1.06650000000000E+0003	 3.29043541035996E-0001	
 1.06850000000000E+0003	 3.28978911251585E-0001	
 1.07050000000000E+0003	 3.29561281467174E-0001	
 1.07250000000000E+0003	 3.30534651682763E-0001	
 1.07450000000000E+0003	 3.31616021898351E-0001	
 1.07650000000000E+0003	 3.32337892113940E-0001	
 1.07850000000000E+0003	 3.32424262329529E-0001	
 1.08050000000000E+0003	 3.31618132545118E-0001	
 1.08250000000000E+0003	 3.29951502760706E-0001	
 1.08450000000000E+0003	 3.27471372976295E-0001	
 1.08650000000000E+0003	 3.24428243191884E-0001	
 1.08850000000000E+0003	 3.21044113407472E-0001	
 1.09050000000000E+0003	 3.17698483623061E-0001	
 1.09250000000000E+0003	 3.14758853838650E-0001	
 1.09450000000000E+0003	 3.12543224054239E-0001	
 1.09650000000000E+0003	 3.11075094269827E-0001	
 1.09850000000000E+0003	 3.10187964485416E-0001	
 1.10050000000000E+0003	 3.09645334701005E-0001	
 1.10250000000000E+0003	 3.09223204916594E-0001	
 1.10450000000000E+0003	 3.08730075132182E-0001	
 1.10650000000000E+0003	 3.08077445347771E-0001	
 1.10850000000000E+0003	 3.07280315563360E-0001	
 1.11050000000000E+0003	 3.06352185778948E-0001	
 1.11250000000000E+0003	 3.05261555994537E-0001	
 1.11450000000000E+0003	 3.03822926210126E-0001	
 1.11650000000000E+0003	 3.01884796425715E-0001	
 1.11850000000000E+0003	 2.99316666641303E-0001	
 1.12050000000000E+0003	 2.96169036856892E-0001	
 1.12250000000000E+0003	 2.92469407072481E-0001	
 1.12450000000000E+0003	 2.88347277288069E-0001	
 1.12650000000000E+0003	 2.83849147503658E-0001	
 1.12850000000000E+0003	 2.79120017719247E-0001	
 1.13050000000000E+0003	 2.74213887934836E-0001	
 1.13250000000000E+0003	 2.69436758150424E-0001	
 1.13450000000000E+0003	 2.65017128366013E-0001	
 1.13650000000000E+0003	 2.61323998581602E-0001	
 1.13850000000000E+0003	 2.58590868797191E-0001	
 1.14050000000000E+0003	 2.57098239012779E-0001	
 1.14250000000000E+0003	 2.56809109228368E-0001	
 1.14450000000000E+0003	 2.57548479443957E-0001	
 1.14650000000000E+0003	 2.58664349659545E-0001	
 1.14850000000000E+0003	 2.59507219875134E-0001	
 1.15050000000000E+0003	 2.59374090090723E-0001	
 1.15250000000000E+0003	 2.58038460306312E-0001	
 1.15450000000000E+0003	 2.55368830521900E-0001	
 1.15650000000000E+0003	 2.51642700737489E-0001	
 1.15850000000000E+0003	 2.47117570953078E-0001	
 1.16050000000000E+0003	 2.42257441168666E-0001	
 1.16250000000000E+0003	 2.37324311384255E-0001	
 1.16450000000000E+0003	 2.32664681599844E-0001	
 1.16650000000000E+0003	 2.28355051815433E-0001	
 1.16850000000000E+0003	 2.24592922031021E-0001	
 1.17050000000000E+0003	 2.21316792246610E-0001	
 1.17250000000000E+0003	 2.18486162462199E-0001	
 1.17450000000000E+0003	 2.15873532677788E-0001	
 1.17650000000000E+0003	 2.13565402893376E-0001	
 1.17850000000000E+0003	 2.11598773108965E-0001	
 1.18050000000000E+0003	 2.10251143324554E-0001	
 1.18250000000000E+0003	 2.09636013540142E-0001	
 1.18450000000000E+0003	 2.09939383755731E-0001	
 1.18650000000000E+0003	 2.11166753971320E-0001	
 1.18850000000000E+0003	 2.13383624186909E-0001	
 1.19050000000000E+0003	 2.16452994402497E-0001	
 1.19250000000000E+0003	 2.20316364618086E-0001	
 1.19450000000000E+0003	 2.24756734833675E-0001	
 1.19650000000000E+0003	 2.29595605049263E-0001	
 1.19850000000000E+0003	 2.34545975264852E-0001	
 1.20050000000000E+0003	 2.39409345480441E-0001	
 1.20250000000000E+0003	 2.43949715696030E-0001	
 1.20450000000000E+0003	 2.48071085911618E-0001	
 1.20650000000000E+0003	 2.51680456127207E-0001	
 1.20850000000000E+0003	 2.54788326342796E-0001	
 1.21050000000000E+0003	 2.57442196558385E-0001	
 1.21250000000000E+0003	 2.59821066773973E-0001	
 1.21450000000000E+0003	 2.62000436989562E-0001	
 1.21650000000000E+0003	 2.63963307205151E-0001	
 1.21850000000000E+0003	 2.65692677420739E-0001	
 1.22050000000000E+0003	 2.67139047636328E-0001	
 1.22250000000000E+0003	 2.68281917851917E-0001	
 1.22450000000000E+0003	 2.69203788067506E-0001	
 1.22650000000000E+0003	 2.70051658283094E-0001	
 1.22850000000000E+0003	 2.70838028498683E-0001	
 1.23050000000000E+0003	 2.71559398714272E-0001	
 1.23250000000000E+0003	 2.72149268929861E-0001	
 1.23450000000000E+0003	 2.72587139145449E-0001	
 1.23650000000000E+0003	 2.72756009361038E-0001	
 1.23850000000000E+0003	 2.72629879576627E-0001	
 1.24050000000000E+0003	 2.72139749792215E-0001	
 1.24250000000000E+0003	 2.71315120007804E-0001	
 1.24450000000000E+0003	 2.70122490223393E-0001	
 1.24650000000000E+0003	 2.68632360438982E-0001	
 1.24850000000000E+0003	 2.66797730654570E-0001	
 1.25050000000000E+0003	 2.64725600870159E-0001	
 1.25250000000000E+0003	 2.62415471085748E-0001	
 1.25450000000000E+0003	 2.59971341301336E-0001	
 1.25650000000000E+0003	 2.57366711516925E-0001	
 1.25850000000000E+0003	 2.54673581732514E-0001	
 1.26050000000000E+0003	 2.51868451948103E-0001	
 1.26250000000000E+0003	 2.49046822163691E-0001	
 1.26450000000000E+0003	 2.46178192379280E-0001	
 1.26650000000000E+0003	 2.43403562594869E-0001	
 1.26850000000000E+0003	 2.40759932810458E-0001	
 1.27050000000000E+0003	 2.38372803026046E-0001	
 1.27250000000000E+0003	 2.36237673241635E-0001	
 1.27450000000000E+0003	 2.34358043457224E-0001	
 1.27650000000000E+0003	 2.32626913672812E-0001	
 1.27850000000000E+0003	 2.31095283888401E-0001	
 1.28050000000000E+0003	 2.29713654103990E-0001	
 1.28250000000000E+0003	 2.28383024319579E-0001	
 1.28450000000000E+0003	 2.26938394535167E-0001	
 1.28650000000000E+0003	 2.25466764750756E-0001	
 1.28850000000000E+0003	 2.24158634966345E-0001	
 1.29050000000000E+0003	 2.23146005181933E-0001	
 1.29250000000000E+0003	 2.22339875397522E-0001	
 1.29450000000000E+0003	 2.21721745613111E-0001	
 1.29650000000000E+0003	 2.21363115828700E-0001	
 1.29850000000000E+0003	 2.21337986044288E-0001	
 1.30050000000000E+0003	 2.21564856259877E-0001	
 1.30250000000000E+0003	 2.21927226475466E-0001	
 1.30450000000000E+0003	 2.22346596691055E-0001	
 1.30650000000000E+0003	 2.22796466906643E-0001	
 1.30850000000000E+0003	 2.23289337122232E-0001	
 1.31050000000000E+0003	 2.23703207337821E-0001	
 1.31250000000000E+0003	 2.24075077553409E-0001	
 1.31450000000000E+0003	 2.24440947768998E-0001	
 1.31650000000000E+0003	 2.24692817984587E-0001	
 1.31850000000000E+0003	 2.24799188200176E-0001	
 1.32050000000000E+0003	 2.24847558415764E-0001	
 1.32250000000000E+0003	 2.24750928631353E-0001	
 1.32450000000000E+0003	 2.24513298846942E-0001	
 1.32650000000000E+0003	 2.24173169062530E-0001	
 1.32850000000000E+0003	 2.23858039278119E-0001	
 1.33050000000000E+0003	 2.23568909493708E-0001	
 1.33250000000000E+0003	 2.23248279709297E-0001	
 1.33450000000000E+0003	 2.22508649924885E-0001	
 1.33650000000000E+0003	 2.21265020140474E-0001	
 1.33850000000000E+0003	 2.20059890356063E-0001	
 1.34050000000000E+0003	 2.19532260571652E-0001	
 1.34250000000000E+0003	 2.19103130787240E-0001	
 1.34450000000000E+0003	 2.18086501002829E-0001	
 1.34650000000000E+0003	 2.16671371218418E-0001	
 1.34850000000000E+0003	 2.15383741434006E-0001	
 1.35050000000000E+0003	 2.14278111649595E-0001	
 1.35250000000000E+0003	 2.13476481865184E-0001	
 1.35450000000000E+0003	 2.12979352080773E-0001	
 1.35650000000000E+0003	 2.12863222296361E-0001	
 1.35850000000000E+0003	 2.12786592511950E-0001	
 1.36050000000000E+0003	 2.12877462727539E-0001	
 1.36250000000000E+0003	 2.14374832943128E-0001	
 1.36450000000000E+0003	 2.17835703158716E-0001	
 1.36650000000000E+0003	 2.21874073374305E-0001	
 1.36850000000000E+0003	 2.25714443589894E-0001	
 1.37050000000000E+0003	 2.28971313805482E-0001	
 1.37250000000000E+0003	 2.31555684021071E-0001	
 1.37450000000000E+0003	 2.34075054236660E-0001	
 1.37650000000000E+0003	 2.36395424452249E-0001	
 1.37850000000000E+0003	 2.37971794667837E-0001	
 1.38050000000000E+0003	 2.39004664883426E-0001	
 1.38250000000000E+0003	 2.39673035099015E-0001	
 1.38450000000000E+0003	 2.39755905314603E-0001	
 1.38650000000000E+0003	 2.39694775530192E-0001	
 1.38850000000000E+0003	 2.40409645745781E-0001	
 1.39050000000000E+0003	 2.41420515961370E-0001	
 1.39250000000000E+0003	 2.41669886176958E-0001	
 1.39450000000000E+0003	 2.41806756392547E-0001	
 1.39650000000000E+0003	 2.42608626608136E-0001	
 1.39850000000000E+0003	 2.43914496823725E-0001	
 1.40050000000000E+0003	 2.44962867039313E-0001	
 1.40250000000000E+0003	 2.45183237254902E-0001	
 1.40450000000000E+0003	 2.44582607470491E-0001	
 1.40650000000000E+0003	 2.43976977686079E-0001	
 1.40850000000000E+0003	 2.43354847901668E-0001	
 1.41050000000000E+0003	 2.42388718117257E-0001	
 1.41250000000000E+0003	 2.41371588332846E-0001	
 1.41450000000000E+0003	 2.39835958548434E-0001	
 1.41650000000000E+0003	 2.37617828764023E-0001	
 1.41850000000000E+0003	 2.36113698979612E-0001	
 1.42050000000000E+0003	 2.35387069195200E-0001	
 1.42250000000000E+0003	 2.34996439410789E-0001	
 1.42450000000000E+0003	 2.33889809626378E-0001	
 1.42650000000000E+0003	 2.32366679841967E-0001	
 1.42850000000000E+0003	 2.30922550057555E-0001	
 1.43050000000000E+0003	 2.29848420273144E-0001	
 1.43250000000000E+0003	 2.29113790488733E-0001	
 1.43450000000000E+0003	 2.28305160704322E-0001	
 1.43650000000000E+0003	 2.28501530919910E-0001	
 1.43850000000000E+0003	 2.30732401135499E-0001	
 1.44050000000000E+0003	 2.33290771351088E-0001	
 1.44250000000000E+0003	 2.34873141566676E-0001	
 1.44450000000000E+0003	 2.35849011782265E-0001	
 1.44650000000000E+0003	 2.36724881997854E-0001	
 1.44850000000000E+0003	 2.37987252213443E-0001	
 1.45050000000000E+0003	 2.39501622429031E-0001	
 1.45250000000000E+0003	 2.39953992644620E-0001	
 1.45450000000000E+0003	 2.39143862860209E-0001	
 1.45650000000000E+0003	 2.37835233075797E-0001	
 1.45850000000000E+0003	 2.36691103291386E-0001	
 1.46050000000000E+0003	 2.36394473506975E-0001	
 1.46250000000000E+0003	 2.34797343722564E-0001	
 1.46450000000000E+0003	 2.31752213938152E-0001	
 1.46650000000000E+0003	 2.28492584153741E-0001	
 1.46850000000000E+0003	 2.25091454369330E-0001	
 1.47050000000000E+0003	 2.20468824584919E-0001	
 1.47250000000000E+0003	 2.14862694800507E-0001	
 1.47450000000000E+0003	 2.10073065016096E-0001	
 1.47650000000000E+0003	 2.07596435231685E-0001	
 1.47850000000000E+0003	 2.06032805447273E-0001	
 1.48050000000000E+0003	 2.04854175662862E-0001	
 1.48250000000000E+0003	 2.03941545878451E-0001	
 1.48450000000000E+0003	 2.03495416094040E-0001	
 1.48650000000000E+0003	 2.03275286309628E-0001	
 1.48850000000000E+0003	 2.03931656525217E-0001	
 1.49050000000000E+0003	 2.06879526740806E-0001	
 1.49250000000000E+0003	 2.10939396956394E-0001	
 1.49450000000000E+0003	 2.14829767171983E-0001	
 1.49650000000000E+0003	 2.18197637387572E-0001	
 1.49850000000000E+0003	 2.22142507603161E-0001	
 1.50050000000000E+0003	 2.26865877818749E-0001	
 1.50250000000000E+0003	 2.31108748034338E-0001	
 1.50450000000000E+0003	 2.34549618249927E-0001	
 1.50650000000000E+0003	 2.38551488465516E-0001	
 1.50850000000000E+0003	 2.44110858681104E-0001	
 1.51050000000000E+0003	 2.51555728896693E-0001	
 1.51250000000000E+0003	 2.58249599112282E-0001	
 1.51450000000000E+0003	 2.63508969327870E-0001	
 1.51650000000000E+0003	 2.67927839543459E-0001	
 1.51850000000000E+0003	 2.71488709759048E-0001	
 1.52050000000000E+0003	 2.75585079974637E-0001	
 1.52250000000000E+0003	 2.79321450190225E-0001	
 1.52450000000000E+0003	 2.83383320405814E-0001	
 1.52650000000000E+0003	 2.87858690621403E-0001	
 1.52850000000000E+0003	 2.92237560836992E-0001	
 1.53050000000000E+0003	 2.95534431052580E-0001	
 1.53250000000000E+0003	 2.98522301268169E-0001	
 1.53450000000000E+0003	 3.01428671483758E-0001	
 1.53650000000000E+0003	 3.04410041699346E-0001	
 1.53850000000000E+0003	 3.07009411914935E-0001	
 1.54050000000000E+0003	 3.07512782130524E-0001	
 1.54250000000000E+0003	 3.08532652346113E-0001	
 1.54450000000000E+0003	 3.10905022561701E-0001	
 1.54650000000000E+0003	 3.12604392777290E-0001	
 1.54850000000000E+0003	 3.12804262992879E-0001	
 1.55050000000000E+0003	 3.11419133208467E-0001	
 1.55250000000000E+0003	 3.09573003424056E-0001	
 1.55450000000000E+0003	 3.05841373639645E-0001	
 1.55650000000000E+0003	 3.01586243855234E-0001	
 1.55850000000000E+0003	 2.98205614070822E-0001	
 1.56050000000000E+0003	 2.93794484286411E-0001	
 1.56250000000000E+0003	 2.92417354502000E-0001	
 1.56450000000000E+0003	 2.90300224717589E-0001	
 1.56650000000000E+0003	 2.86504094933177E-0001	
 1.56850000000000E+0003	 2.83445965148766E-0001	
 1.57050000000000E+0003	 2.79915835364355E-0001	
 1.57250000000000E+0003	 2.77261205579943E-0001	
 1.57450000000000E+0003	 2.75976575795532E-0001	
 1.57650000000000E+0003	 2.72628446011121E-0001	
 1.57850000000000E+0003	 2.68929316226710E-0001	
 1.58050000000000E+0003	 2.67299186442298E-0001	
 1.58250000000000E+0003	 2.65284056657887E-0001	
 1.58450000000000E+0003	 2.63586426873476E-0001	
 1.58650000000000E+0003	 2.62300297089064E-0001	
 1.58850000000000E+0003	 2.61664167304653E-0001	
 1.59050000000000E+0003	 2.61540037520242E-0001	
 1.59250000000000E+0003	 2.62097907735831E-0001	
 1.59450000000000E+0003	 2.63109277951419E-0001	
 1.59650000000000E+0003	 2.64556148167008E-0001	
 1.59850000000000E+0003	 2.66322518382597E-0001	
 1.60050000000000E+0003	 2.68521388598186E-0001	
 1.60250000000000E+0003	 2.71056258813774E-0001	
 1.60450000000000E+0003	 2.74091629029363E-0001	
 1.60650000000000E+0003	 2.77622499244952E-0001	
 1.60850000000000E+0003	 2.81856369460540E-0001	
 1.61050000000000E+0003	 2.86707239676129E-0001	
 1.61250000000000E+0003	 2.91850609891718E-0001	
 1.61450000000000E+0003	 2.97955980107307E-0001	
 1.61650000000000E+0003	 3.04861350322895E-0001	
 1.61850000000000E+0003	 3.10913720538484E-0001	
 1.62050000000000E+0003	 3.17484090754073E-0001	
 1.62250000000000E+0003	 3.24639960969661E-0001	
 1.62450000000000E+0003	 3.31960831185250E-0001	
 1.62650000000000E+0003	 3.39611201400839E-0001	
 1.62850000000000E+0003	 3.47147571616428E-0001	
 1.63050000000000E+0003	 3.53808441832016E-0001	
 1.63250000000000E+0003	 3.59172812047605E-0001	
 1.63450000000000E+0003	 3.64465182263194E-0001	
 1.63650000000000E+0003	 3.69157552478783E-0001	
 1.63850000000000E+0003	 3.73546422694371E-0001	
 1.64050000000000E+0003	 3.77280792909960E-0001	
 1.64250000000000E+0003	 3.79329163125549E-0001	
 1.64450000000000E+0003	 3.80848033341137E-0001	
 1.64650000000000E+0003	 3.82240403556726E-0001	
 1.64850000000000E+0003	 3.83144273772315E-0001	
 1.65050000000000E+0003	 3.85650143987904E-0001	
 1.65250000000000E+0003	 3.90433514203492E-0001	
 1.65450000000000E+0003	 3.87440884419081E-0001	
 1.65650000000000E+0003	 3.89428754634670E-0001	
 1.65850000000000E+0003	 3.90424624850259E-0001	
 1.66050000000000E+0003	 3.89484995065847E-0001	
 1.66250000000000E+0003	 3.87895865281436E-0001	
 1.66450000000000E+0003	 3.85481235497025E-0001	
 1.66650000000000E+0003	 3.83271605712613E-0001	
 1.66850000000000E+0003	 3.80814475928202E-0001	
 1.67050000000000E+0003	 3.77721346143791E-0001	
 1.67250000000000E+0003	 3.75409216359380E-0001	
 1.67450000000000E+0003	 3.73690586574968E-0001	
 1.67650000000000E+0003	 3.71158456790557E-0001	
 1.67850000000000E+0003	 3.69344827006146E-0001	
 1.68050000000000E+0003	 3.66355697221734E-0001	
 1.68250000000000E+0003	 3.64409067437323E-0001	
 1.68450000000000E+0003	 3.62340937652912E-0001	
 1.68650000000000E+0003	 3.59315807868501E-0001	
 1.68850000000000E+0003	 3.58008678084089E-0001	
 1.69050000000000E+0003	 3.55644048299678E-0001	
 1.69250000000000E+0003	 3.52457918515267E-0001	
 1.69450000000000E+0003	 3.49749788730856E-0001	
 1.69650000000000E+0003	 3.43844158946444E-0001	
 1.69850000000000E+0003	 3.39215529162033E-0001	
 1.70050000000000E+0003	 3.34733899377622E-0001	
 1.70250000000000E+0003	 3.30487269593210E-0001	
 1.70450000000000E+0003	 3.28627139808799E-0001	
 1.70650000000000E+0003	 3.24978510024388E-0001	
 1.70850000000000E+0003	 3.21563380239977E-0001	
 1.71050000000000E+0003	 3.17861250455565E-0001	
 1.71250000000000E+0003	 3.13387120671154E-0001	
 1.71450000000000E+0003	 3.08926990886743E-0001	
 1.71650000000000E+0003	 3.04981861102331E-0001	
 1.71850000000000E+0003	 3.00105731317920E-0001	
 1.72050000000000E+0003	 2.96466601533509E-0001	
 1.72250000000000E+0003	 2.93565471749098E-0001	
 1.72450000000000E+0003	 2.89470341964686E-0001	
 1.72650000000000E+0003	 2.85280212180275E-0001	
 1.72850000000000E+0003	 2.81151082395864E-0001	
 1.73050000000000E+0003	 2.77149952611453E-0001	
 1.73250000000000E+0003	 2.74802322827041E-0001	
 1.73450000000000E+0003	 2.72138193042630E-0001	
 1.73650000000000E+0003	 2.70548063258219E-0001	
 1.73850000000000E+0003	 2.70938933473807E-0001	
 1.74050000000000E+0003	 2.70129803689396E-0001	
 1.74250000000000E+0003	 2.69811173904985E-0001	
 1.74450000000000E+0003	 2.69756544120574E-0001	
 1.74650000000000E+0003	 2.69246914336162E-0001	
 1.74850000000000E+0003	 2.68210284551751E-0001	
 1.75050000000000E+0003	 2.67265154767340E-0001	
 1.75250000000000E+0003	 2.65881524982928E-0001	
 1.75450000000000E+0003	 2.64106895198517E-0001	
 1.75650000000000E+0003	 2.61217765414106E-0001	
 1.75850000000000E+0003	 2.57286135629695E-0001	
 1.76050000000000E+0003	 2.53714505845283E-0001	
 1.76250000000000E+0003	 2.49345876060872E-0001	
 1.76450000000000E+0003	 2.44985746276461E-0001	
 1.76650000000000E+0003	 2.40588116492050E-0001	
 1.76850000000000E+0003	 2.35446486707638E-0001	
 1.77050000000000E+0003	 2.32042356923227E-0001	
 1.77250000000000E+0003	 2.28491727138816E-0001	
 1.77450000000000E+0003	 2.24617097354404E-0001	
 1.77650000000000E+0003	 2.22058967569993E-0001	
 1.77850000000000E+0003	 2.19344837785582E-0001	
 1.78050000000000E+0003	 2.16467208001171E-0001	
 1.78250000000000E+0003	 2.13642578216759E-0001	
 1.78450000000000E+0003	 2.11376948432348E-0001	
 1.78650000000000E+0003	 2.09161318647937E-0001	
 1.78850000000000E+0003	 2.06652188863526E-0001	
 1.79050000000000E+0003	 2.04314559079114E-0001	
 1.79250000000000E+0003	 2.02246429294703E-0001	
 1.79450000000000E+0003	 2.00549799510292E-0001	
 1.79650000000000E+0003	 1.99289169725880E-0001	
 1.79850000000000E+0003	 1.97475039941469E-0001	
 1.80050000000000E+0003	 1.95392410157058E-0001	
 1.80250000000000E+0003	 1.94459280372647E-0001	
 1.80450000000000E+0003	 1.93690650588235E-0001	
 1.80650000000000E+0003	 1.92190020803824E-0001	
 1.80850000000000E+0003	 1.90504891019413E-0001	
 1.81050000000000E+0003	 1.88734261235001E-0001	
 1.81250000000000E+0003	 1.87407131450590E-0001	
 1.81450000000000E+0003	 1.86276001666179E-0001	
 1.81650000000000E+0003	 1.85019871881768E-0001	
 1.81850000000000E+0003	 1.83819742097356E-0001	
 1.82050000000000E+0003	 1.82738612312945E-0001	
 1.82250000000000E+0003	 1.81835482528534E-0001	
 1.82450000000000E+0003	 1.80772852744123E-0001	
 1.82650000000000E+0003	 1.79659222959711E-0001	
 1.82850000000000E+0003	 1.78674593175300E-0001	
 1.83050000000000E+0003	 1.77579463390889E-0001	
 1.83250000000000E+0003	 1.76405833606477E-0001	
 1.83450000000000E+0003	 1.75394203822066E-0001	
 1.83650000000000E+0003	 1.74445074037655E-0001	
 1.83850000000000E+0003	 1.73502944253244E-0001	
 1.84050000000000E+0003	 1.72652314468832E-0001	
 1.84250000000000E+0003	 1.71969684684421E-0001	
 1.84450000000000E+0003	 1.71106554900010E-0001	
 1.84650000000000E+0003	 1.70101925115598E-0001	
 1.84850000000000E+0003	 1.69218295331187E-0001	
 1.85050000000000E+0003	 1.68388165546776E-0001	
 1.85250000000000E+0003	 1.67597035762365E-0001	
 1.85450000000000E+0003	 1.66840905977953E-0001	
 1.85650000000000E+0003	 1.66110276193542E-0001	
 1.85850000000000E+0003	 1.65317146409131E-0001	
 1.86050000000000E+0003	 1.64494516624720E-0001	
 1.86250000000000E+0003	 1.63747886840308E-0001	
 1.86450000000000E+0003	 1.62731257055897E-0001	
 1.86650000000000E+0003	 1.61634627271486E-0001	
 1.86850000000000E+0003	 1.62270997487074E-0001	
 1.87050000000000E+0003	 1.61534867702663E-0001	
 1.87250000000000E+0003	 1.60827737918252E-0001	
 1.87450000000000E+0003	 1.60225108133841E-0001	
 1.87650000000000E+0003	 1.59641478349429E-0001	
 1.87850000000000E+0003	 1.59085348565018E-0001	
 1.88050000000000E+0003	 1.58538218780607E-0001	
 1.88250000000000E+0003	 1.58016088996195E-0001	
 1.88450000000000E+0003	 1.57333459211784E-0001	
 1.88650000000000E+0003	 1.56534829427373E-0001	
 1.88850000000000E+0003	 1.55922199642962E-0001	
 1.89050000000000E+0003	 1.55372069858550E-0001	
 1.89250000000000E+0003	 1.55118440074139E-0001	
 1.89450000000000E+0003	 1.54855310289728E-0001	
 1.89650000000000E+0003	 1.54406680505317E-0001	
 1.89850000000000E+0003	 1.54086050720905E-0001	
 1.90050000000000E+0003	 1.53690420936494E-0001	
 1.90250000000000E+0003	 1.53265291152083E-0001	
 1.90450000000000E+0003	 1.52783161367671E-0001	
 1.90650000000000E+0003	 1.52265531583260E-0001	
 1.90850000000000E+0003	 1.51821901798849E-0001	
 1.91050000000000E+0003	 1.51447772014438E-0001	
 1.91250000000000E+0003	 1.51094642230026E-0001	
 1.91450000000000E+0003	 1.50744012445615E-0001	
 1.91650000000000E+0003	 1.50640882661204E-0001	
 1.91850000000000E+0003	 1.50281252876793E-0001	
 1.92050000000000E+0003	 1.49887123092381E-0001	
 1.92250000000000E+0003	 1.49552493307970E-0001	
 1.92450000000000E+0003	 1.49167363523559E-0001	
 1.92650000000000E+0003	 1.48711733739147E-0001	
 1.92850000000000E+0003	 1.48458603954736E-0001	
 1.93050000000000E+0003	 1.48136974170325E-0001	
 1.93250000000000E+0003	 1.47816844385914E-0001	
 1.93450000000000E+0003	 1.47530214601502E-0001	
 1.93650000000000E+0003	 1.47231084817091E-0001	
 1.93850000000000E+0003	 1.46726955032680E-0001	
 1.94050000000000E+0003	 1.46198825248268E-0001	
 1.94250000000000E+0003	 1.45854695463857E-0001	
 1.94450000000000E+0003	 1.45792565679446E-0001	
 1.94650000000000E+0003	 1.45876435895035E-0001	
 1.94850000000000E+0003	 1.45705306110623E-0001	
 1.95050000000000E+0003	 1.45505676326212E-0001	
 1.95250000000000E+0003	 1.45264546541801E-0001	
 1.95450000000000E+0003	 1.45047416757390E-0001	
 1.95650000000000E+0003	 1.44830786972978E-0001	
 1.95850000000000E+0003	 1.44645657188567E-0001	
 1.96050000000000E+0003	 1.44450027404156E-0001	
 1.96250000000000E+0003	 1.44182897619744E-0001	
 1.96450000000000E+0003	 1.43862267835333E-0001	
 1.96650000000000E+0003	 1.43617138050922E-0001	
 1.96850000000000E+0003	 1.43472508266511E-0001	
 1.97050000000000E+0003	 1.43467878482099E-0001	
 1.97250000000000E+0003	 1.43370748697688E-0001	
 1.97450000000000E+0003	 1.43200618913277E-0001	
 1.97650000000000E+0003	 1.43030989128865E-0001	
 1.97850000000000E+0003	 1.42866859344454E-0001	
 1.98050000000000E+0003	 1.42703729560043E-0001	
 1.98250000000000E+0003	 1.42544599775632E-0001	
 1.98450000000000E+0003	 1.42356969991220E-0001	
 1.98650000000000E+0003	 1.42119340206809E-0001	
 1.98850000000000E+0003	 1.41777710422398E-0001	
 1.99050000000000E+0003	 1.41541580637987E-0001	
 1.99250000000000E+0003	 1.41456450853575E-0001	
 1.99450000000000E+0003	 1.41522321069164E-0001	
 1.99650000000000E+0003	 1.41589191284753E-0001	
 1.99850000000000E+0003	 1.41479061500341E-0001	
 2.00050000000000E+0003	 1.41370931715930E-0001	
 2.00250000000000E+0003	 1.41272301931519E-0001	
 2.00450000000000E+0003	 1.41180672147108E-0001	
 2.00650000000000E+0003	 1.41076042362696E-0001	
 2.00850000000000E+0003	 1.41003912578285E-0001	
 2.01050000000000E+0003	 1.40931782793874E-0001	
 2.01250000000000E+0003	 1.40818153009462E-0001	
 2.01450000000000E+0003	 1.40641023225051E-0001	
 2.01650000000000E+0003	 1.40535893440640E-0001	
 2.01850000000000E+0003	 1.40521763656229E-0001	
 2.02050000000000E+0003	 1.40603133871817E-0001	
 2.02250000000000E+0003	 1.40606504087406E-0001	
 2.02450000000000E+0003	 1.40597874302995E-0001	
 2.02650000000000E+0003	 1.40576744518584E-0001	
 2.02850000000000E+0003	 1.40563614734172E-0001	
 2.03050000000000E+0003	 1.40532484949761E-0001	
 2.03250000000000E+0003	 1.40513855165350E-0001	
 2.03450000000000E+0003	 1.40479725380938E-0001	
 2.03650000000000E+0003	 1.40450595596527E-0001	
 2.03850000000000E+0003	 1.40379965812116E-0001	
 2.04050000000000E+0003	 1.40340836027705E-0001	
 2.04250000000000E+0003	 1.40331206243293E-0001	
 2.04450000000000E+0003	 1.40366576458882E-0001	
 2.04650000000000E+0003	 1.40365446674471E-0001	
 2.04850000000000E+0003	 1.40366316890060E-0001	
 2.05050000000000E+0003	 1.40349187105648E-0001	
 2.05250000000000E+0003	 1.40339557321237E-0001	
 2.05450000000000E+0003	 1.40310927536826E-0001	
 2.05650000000000E+0003	 1.40289797752414E-0001	
 2.05850000000000E+0003	 1.40263167968003E-0001	
 2.06050000000000E+0003	 1.40212038183592E-0001	
 2.06250000000000E+0003	 1.40117408399181E-0001	
 2.06450000000000E+0003	 1.40065278614769E-0001	
 2.06650000000000E+0003	 1.40060648830358E-0001	
 2.06850000000000E+0003	 1.40102519045947E-0001	
 2.07050000000000E+0003	 1.40088889261535E-0001	
 2.07250000000000E+0003	 1.40059259477124E-0001	
 2.07450000000000E+0003	 1.40018629692713E-0001	
 2.07650000000000E+0003	 1.39987999908302E-0001	
 2.07850000000000E+0003	 1.39959370123890E-0001	
 2.08050000000000E+0003	 1.39935740339479E-0001	
 2.08250000000000E+0003	 1.39906610555068E-0001	
 2.08450000000000E+0003	 1.39870480770657E-0001	
 2.08650000000000E+0003	 1.39814850986245E-0001	
 2.08850000000000E+0003	 1.39770221201834E-0001	
 2.09050000000000E+0003	 1.39751091417423E-0001	
 2.09250000000000E+0003	 1.39755461633011E-0001	
 2.09450000000000E+0003	 1.39750831848600E-0001	
 2.09650000000000E+0003	 1.39717702064189E-0001	
 2.09850000000000E+0003	 1.39685072279778E-0001	
 2.10050000000000E+0003	 1.39652442495366E-0001	
 2.10250000000000E+0003	 1.39621312710955E-0001	
 2.10450000000000E+0003	 1.39583682926544E-0001	
 2.10650000000000E+0003	 1.39549553142132E-0001	
 2.10850000000000E+0003	 1.39510923357721E-0001	
 2.11050000000000E+0003	 1.39468793573310E-0001	
 2.11250000000000E+0003	 1.39409663788899E-0001	
 2.11450000000000E+0003	 1.39360034004487E-0001	
 2.11650000000000E+0003	 1.39318404220076E-0001	
 2.11850000000000E+0003	 1.39286774435665E-0001	
 2.12050000000000E+0003	 1.39235144651254E-0001	
 2.12250000000000E+0003	 1.39186514866842E-0001	
 2.12450000000000E+0003	 1.39129385082431E-0001	
 2.12650000000000E+0003	 1.39076255298020E-0001	
 2.12850000000000E+0003	 1.39009625513608E-0001	
 2.13050000000000E+0003	 1.38941995729197E-0001	
 2.13250000000000E+0003	 1.38856865944786E-0001	
 2.13450000000000E+0003	 1.38774736160375E-0001	
 2.13650000000000E+0003	 1.38687606375963E-0001	
 2.13850000000000E+0003	 1.38617476591552E-0001	
 2.14050000000000E+0003	 1.38539846807141E-0001	
 2.14250000000000E+0003	 1.38459217022729E-0001	
 2.14450000000000E+0003	 1.38365087238318E-0001	
 2.14650000000000E+0003	 1.38274457453907E-0001	
 2.14850000000000E+0003	 1.38175327669496E-0001	
 2.15050000000000E+0003	 1.38080697885084E-0001	
 2.15250000000000E+0003	 1.37974568100673E-0001	
 2.15450000000000E+0003	 1.37874938316262E-0001	
 2.15650000000000E+0003	 1.37765808531851E-0001	
 2.15850000000000E+0003	 1.37658178747439E-0001	
 2.16050000000000E+0003	 1.37540048963028E-0001	
 2.16250000000000E+0003	 1.37430419178617E-0001	
 2.16450000000000E+0003	 1.37318289394205E-0001	
 2.16650000000000E+0003	 1.37210159609794E-0001	
 2.16850000000000E+0003	 1.37096529825383E-0001	
 2.17050000000000E+0003	 1.36980900040972E-0001	
 2.17250000000000E+0003	 1.36843770256560E-0001	
 2.17450000000000E+0003	 1.36714140472149E-0001	
 2.17650000000000E+0003	 1.36585010687738E-0001	
 2.17850000000000E+0003	 1.36459880903327E-0001	
 2.18050000000000E+0003	 1.36327751118915E-0001	
 2.18250000000000E+0003	 1.36201121334504E-0001	
 2.18450000000000E+0003	 1.36070991550093E-0001	
 2.18650000000000E+0003	 1.35940861765681E-0001	
 2.18850000000000E+0003	 1.35808231981270E-0001	
 2.19050000000000E+0003	 1.35681602196859E-0001	
 2.19250000000000E+0003	 1.35549472412448E-0001	
 2.19450000000000E+0003	 1.35417342628036E-0001	
 2.19650000000000E+0003	 1.35286712843625E-0001	
 2.19850000000000E+0003	 1.35160083059214E-0001	
 2.20050000000000E+0003	 1.35030453274802E-0001	
 2.20250000000000E+0003	 1.34897323490391E-0001	
 2.20450000000000E+0003	 1.34766693705980E-0001	
 2.20650000000000E+0003	 1.34643063921569E-0001	
 2.20850000000000E+0003	 1.34522934137157E-0001	
 2.21050000000000E+0003	 1.34400804352746E-0001	
 2.21250000000000E+0003	 1.34282174568335E-0001	
 2.21450000000000E+0003	 1.34162544783924E-0001	
 2.21650000000000E+0003	 1.34042914999512E-0001	
 2.21850000000000E+0003	 1.33924785215101E-0001	
 2.22050000000000E+0003	 1.33810655430690E-0001	
 2.22250000000000E+0003	 1.33694525646278E-0001	
 2.22450000000000E+0003	 1.33583895861867E-0001	
 2.22650000000000E+0003	 1.33472266077456E-0001	
 2.22850000000000E+0003	 1.33367136293045E-0001	
 2.23050000000000E+0003	 1.33265506508633E-0001	
 2.23250000000000E+0003	 1.33174376724222E-0001	
 2.23450000000000E+0003	 1.33084246939811E-0001	
 2.23650000000000E+0003	 1.33000617155399E-0001	
 2.23850000000000E+0003	 1.32913987370988E-0001	
 2.24050000000000E+0003	 1.32838357586577E-0001	
 2.24250000000000E+0003	 1.32763227802166E-0001	
 2.24450000000000E+0003	 1.32694598017754E-0001	
 2.24650000000000E+0003	 1.32627468233343E-0001	
 2.24850000000000E+0003	 1.32568338448932E-0001	
 2.25050000000000E+0003	 1.32504708664521E-0001	
 2.25250000000000E+0003	 1.32447078880109E-0001	
 2.25450000000000E+0003	 1.32383949095698E-0001	
 2.25650000000000E+0003	 1.32326819311287E-0001	
 2.25850000000000E+0003	 1.32268689526875E-0001	
 2.26050000000000E+0003	 1.32219059742464E-0001	
 2.26250000000000E+0003	 1.32163429958053E-0001	
 2.26450000000000E+0003	 1.32111800173642E-0001	
 2.26650000000000E+0003	 1.32056670389230E-0001	
 2.26850000000000E+0003	 1.32010540604819E-0001	
 2.27050000000000E+0003	 1.31961910820408E-0001	
 2.27250000000000E+0003	 1.31922281035996E-0001	
 2.27450000000000E+0003	 1.31877651251585E-0001	
 2.27650000000000E+0003	 1.31841521467174E-0001	
 2.27850000000000E+0003	 1.31806891682763E-0001	
 2.28050000000000E+0003	 1.31780261898351E-0001	
 2.28250000000000E+0003	 1.31747632113940E-0001	
 2.28450000000000E+0003	 1.31733502329529E-0001	
 2.28650000000000E+0003	 1.31738872545118E-0001	
 2.28850000000000E+0003	 1.31768742760706E-0001	
 2.29050000000000E+0003	 1.31799612976295E-0001	
 2.29250000000000E+0003	 1.31848983191884E-0001	
 2.29450000000000E+0003	 1.31901353407472E-0001	
 2.29650000000000E+0003	 1.31951223623061E-0001	
 2.29850000000000E+0003	 1.31983093838650E-0001	
 2.30050000000000E+0003	 1.32005964054239E-0001	
 2.30250000000000E+0003	 1.31990334269827E-0001	
 2.30450000000000E+0003	 1.31984704485416E-0001	
 2.30650000000000E+0003	 1.32020574701005E-0001	
 2.30850000000000E+0003	 1.32071944916594E-0001	
 2.31050000000000E+0003	 1.32079815132182E-0001	
 2.31250000000000E+0003	 1.32049185347771E-0001	
 2.31450000000000E+0003	 1.32029555563360E-0001	
 2.31650000000000E+0003	 1.32089425778948E-0001	
 2.31850000000000E+0003	 1.32174295994537E-0001	
 2.32050000000000E+0003	 1.32288166210126E-0001	
 2.32250000000000E+0003	 1.32395036425715E-0001	
 2.32450000000000E+0003	 1.32441406641303E-0001	
 2.32650000000000E+0003	 1.32412776856892E-0001	
 2.32850000000000E+0003	 1.32349147072481E-0001	
 2.33050000000000E+0003	 1.32285017288069E-0001	
 2.33250000000000E+0003	 1.32252387503658E-0001	
 2.33450000000000E+0003	 1.32254257719247E-0001	
 2.33650000000000E+0003	 1.32334127934836E-0001	
 2.33850000000000E+0003	 1.32455498150424E-0001	
 2.34050000000000E+0003	 1.32633868366013E-0001	
 2.34250000000000E+0003	 1.32778738581602E-0001	
 2.34450000000000E+0003	 1.32682608797191E-0001	
 2.34650000000000E+0003	 1.32523479012779E-0001	
 2.34850000000000E+0003	 1.32577349228368E-0001	
 2.35050000000000E+0003	 1.32568219443957E-0001	
 2.35250000000000E+0003	 1.32514089659545E-0001	
 2.35450000000000E+0003	 1.32624459875134E-0001	
 2.35650000000000E+0003	 1.32784330090723E-0001	
 2.35850000000000E+0003	 1.32825200306312E-0001	
 2.36050000000000E+0003	 1.32766570521900E-0001	
 2.36250000000000E+0003	 1.32744940737489E-0001	
 2.36450000000000E+0003	 1.32808810953078E-0001	
 2.36650000000000E+0003	 1.32885181168666E-0001	
 2.36850000000000E+0003	 1.32960551384255E-0001	
 2.37050000000000E+0003	 1.32961421599844E-0001	
 2.37250000000000E+0003	 1.32832291815433E-0001	
 2.37450000000000E+0003	 1.32653662031021E-0001	
 2.37650000000000E+0003	 1.32673532246610E-0001	
 2.37850000000000E+0003	 1.32967902462199E-0001	
 2.38050000000000E+0003	 1.33327772677788E-0001	
 2.38250000000000E+0003	 1.33531642893376E-0001	
 2.38450000000000E+0003	 1.33559513108965E-0001	
 2.38650000000000E+0003	 1.33536383324554E-0001	
 2.38850000000000E+0003	 1.33545753540142E-0001	
 2.39050000000000E+0003	 1.33614623755731E-0001	
 2.39250000000000E+0003	 1.33719993971320E-0001	
 2.39450000000000E+0003	 1.33844364186909E-0001	
 2.39650000000000E+0003	 1.33969734402497E-0001	
 2.39850000000000E+0003	 1.34109604618086E-0001	
 2.40050000000000E+0003	 1.34254474833675E-0001	
 2.40250000000000E+0003	 1.34405845049263E-0001	
 2.40450000000000E+0003	 1.34557715264852E-0001	
 2.40650000000000E+0003	 1.34718585480441E-0001	
 2.40850000000000E+0003	 1.34878955696030E-0001	
 2.41050000000000E+0003	 1.35041825911618E-0001	
 2.41250000000000E+0003	 1.35208196127207E-0001	
 2.41450000000000E+0003	 1.35385566342796E-0001	
 2.41650000000000E+0003	 1.35566936558385E-0001	
 2.41850000000000E+0003	 1.35755306773973E-0001	
 2.42050000000000E+0003	 1.35947676989562E-0001	
 2.42250000000000E+0003	 1.36148047205151E-0001	
 2.42450000000000E+0003	 1.36350917420739E-0001	
 2.42650000000000E+0003	 1.36561787636328E-0001	
 2.42850000000000E+0003	 1.36777157851917E-0001	
 2.43050000000000E+0003	 1.36999528067506E-0001	
 2.43250000000000E+0003	 1.37229398283094E-0001	
 2.43450000000000E+0003	 1.37462768498683E-0001	
 2.43650000000000E+0003	 1.37698138714272E-0001	
 2.43850000000000E+0003	 1.37935508929861E-0001	
 2.44050000000000E+0003	 1.38176379145449E-0001	
 2.44250000000000E+0003	 1.38419749361038E-0001	
 2.44450000000000E+0003	 1.38666619576627E-0001	
 2.44650000000000E+0003	 1.38910489792215E-0001	
 2.44850000000000E+0003	 1.39162360007804E-0001	
 2.45050000000000E+0003	 1.39418730223393E-0001	
 2.45250000000000E+0003	 1.39682600438982E-0001	
 2.45450000000000E+0003	 1.39948970654570E-0001	
 2.45650000000000E+0003	 1.40222840870159E-0001	
 2.45850000000000E+0003	 1.40497211085748E-0001	
 2.46050000000000E+0003	 1.40782581301336E-0001	
 2.46250000000000E+0003	 1.41066951516925E-0001	
 2.46450000000000E+0003	 1.41362321732514E-0001	
 2.46650000000000E+0003	 1.41659191948103E-0001	
 2.46850000000000E+0003	 1.41963062163691E-0001	
 2.47050000000000E+0003	 1.42265932379280E-0001	
 2.47250000000000E+0003	 1.42581802594869E-0001	
 2.47450000000000E+0003	 1.42896172810458E-0001	
 2.47650000000000E+0003	 1.43219543026046E-0001	
 2.47850000000000E+0003	 1.43536413241635E-0001	
 2.48050000000000E+0003	 1.43857783457224E-0001	
 2.48250000000000E+0003	 1.44175153672812E-0001	
 2.48450000000000E+0003	 1.44502023888401E-0001	
 2.48650000000000E+0003	 1.44824394103990E-0001	
 2.48850000000000E+0003	 1.45156764319579E-0001	
 2.49050000000000E+0003	 1.45489634535167E-0001	
 2.49250000000000E+0003	 1.45828504750756E-0001	
 2.49450000000000E+0003	 1.46162374966345E-0001	
 2.49650000000000E+0003	 1.46504745181933E-0001	
 2.49850000000000E+0003	 1.46850615397522E-0001	
 2.50050000000000E+0003	 1.47201985613111E-0001	
 2.50250000000000E+0003	 1.47548355828700E-0001	
 2.50450000000000E+0003	 1.47901226044288E-0001	
 2.50650000000000E+0003	 1.48256596259877E-0001	
 2.50850000000000E+0003	 1.48613966475466E-0001	
 2.51050000000000E+0003	 1.48963336691055E-0001	
 2.51250000000000E+0003	 1.49317206906643E-0001	
 2.51450000000000E+0003	 1.49664077122232E-0001	
 2.51650000000000E+0003	 1.50006947337821E-0001	
 2.51850000000000E+0003	 1.50343817553409E-0001	
 2.52050000000000E+0003	 1.50682187768998E-0001	
 2.52250000000000E+0003	 1.51014557984587E-0001	
 2.52450000000000E+0003	 1.51343928200176E-0001	
 2.52650000000000E+0003	 1.51670298415764E-0001	
 2.52850000000000E+0003	 1.51995668631353E-0001	
 2.53050000000000E+0003	 1.52313038846942E-0001	
 2.53250000000000E+0003	 1.52626409062530E-0001	
 2.53450000000000E+0003	 1.52934779278119E-0001	
 2.53650000000000E+0003	 1.53236649493708E-0001	
 2.53850000000000E+0003	 1.53531519709297E-0001	
 2.54050000000000E+0003	 1.53819389924885E-0001	
 2.54250000000000E+0003	 1.54097260140474E-0001	
 2.54450000000000E+0003	 1.54369630356063E-0001	
 2.54650000000000E+0003	 1.54636000571652E-0001	
 2.54850000000000E+0003	 1.54894870787240E-0001	
 2.55050000000000E+0003	 1.55147241002829E-0001	
 2.55250000000000E+0003	 1.55395611218418E-0001	
 2.55450000000000E+0003	 1.55638981434006E-0001	
 2.55650000000000E+0003	 1.55872851649595E-0001	
 2.55850000000000E+0003	 1.56099721865184E-0001	
 2.56050000000000E+0003	 1.56320092080773E-0001	
 2.56250000000000E+0003	 1.56532462296361E-0001	
 2.56450000000000E+0003	 1.56738332511950E-0001	
 2.56650000000000E+0003	 1.56945202727539E-0001	
 2.56850000000000E+0003	 1.57155572943128E-0001	
 2.57050000000000E+0003	 1.57373943158716E-0001	
 2.57250000000000E+0003	 1.57602813374305E-0001	
 2.57450000000000E+0003	 1.57844683589894E-0001	
 2.57650000000000E+0003	 1.58096053805482E-0001	
 2.57850000000000E+0003	 1.58360924021071E-0001	
 2.58050000000000E+0003	 1.58642294236660E-0001	
 2.58250000000000E+0003	 1.58938164452249E-0001	
 2.58450000000000E+0003	 1.59242034667837E-0001	
 2.58650000000000E+0003	 1.59560404883426E-0001	
 2.58850000000000E+0003	 1.59891775099015E-0001	
 2.59050000000000E+0003	 1.60237645314603E-0001	
 2.59250000000000E+0003	 1.60592015530192E-0001	
 2.59450000000000E+0003	 1.60959385745781E-0001	
 2.59650000000000E+0003	 1.61335755961370E-0001	
 2.59850000000000E+0003	 1.61722626176958E-0001	
 2.60050000000000E+0003	 1.62114996392547E-0001	
 2.60250000000000E+0003	 1.62513366608136E-0001	
 2.60450000000000E+0003	 1.62914736823725E-0001	
 2.60650000000000E+0003	 1.63320107039313E-0001	
 2.60850000000000E+0003	 1.63727477254902E-0001	
 2.61050000000000E+0003	 1.64135347470491E-0001	
 2.61250000000000E+0003	 1.64540717686079E-0001	
 2.61450000000000E+0003	 1.64947587901668E-0001	
 2.61650000000000E+0003	 1.65355958117257E-0001	
 2.61850000000000E+0003	 1.65763828332846E-0001	
 2.62050000000000E+0003	 1.66167198548434E-0001	
 2.62250000000000E+0003	 1.66571568764023E-0001	
 2.62450000000000E+0003	 1.66976938979612E-0001	
 2.62650000000000E+0003	 1.67383809195200E-0001	
 2.62850000000000E+0003	 1.67792179410789E-0001	
 2.63050000000000E+0003	 1.68201049626378E-0001	
 2.63250000000000E+0003	 1.68606919841967E-0001	
 2.63450000000000E+0003	 1.69011290057555E-0001	
 2.63650000000000E+0003	 1.69417160273144E-0001	
 2.63850000000000E+0003	 1.69823530488733E-0001	
 2.64050000000000E+0003	 1.70228900704322E-0001	
 2.64250000000000E+0003	 1.70632270919910E-0001	
 2.64450000000000E+0003	 1.71038641135499E-0001	
 2.64650000000000E+0003	 1.71444011351088E-0001	
 2.64850000000000E+0003	 1.71849881566676E-0001	
 2.65050000000000E+0003	 1.72253751782265E-0001	
 2.65250000000000E+0003	 1.72661621997854E-0001	
 2.65450000000000E+0003	 1.73069992213443E-0001	
 2.65650000000000E+0003	 1.73483862429031E-0001	
 2.65850000000000E+0003	 1.73898732644620E-0001	
 2.66050000000000E+0003	 1.74315102860209E-0001	
 2.66250000000000E+0003	 1.74731973075797E-0001	
 2.66450000000000E+0003	 1.75156343291386E-0001	
 2.66650000000000E+0003	 1.75584213506975E-0001	
 2.66850000000000E+0003	 1.76016083722564E-0001	
 2.67050000000000E+0003	 1.76442453938152E-0001	
 2.67250000000000E+0003	 1.76877324153741E-0001	
 2.67450000000000E+0003	 1.77313194369330E-0001	
 2.67650000000000E+0003	 1.77752064584919E-0001	
 2.67850000000000E+0003	 1.78185934800507E-0001	
 2.68050000000000E+0003	 1.78622305016096E-0001	
 2.68250000000000E+0003	 1.79053675231685E-0001	
 2.68450000000000E+0003	 1.79485045447273E-0001	
 2.68650000000000E+0003	 1.79913415662862E-0001	
 2.68850000000000E+0003	 1.80346785878451E-0001	
 2.69050000000000E+0003	 1.80777156094040E-0001	
 2.69250000000000E+0003	 1.81212526309628E-0001	
 2.69450000000000E+0003	 1.81645896525217E-0001	
 2.69650000000000E+0003	 1.82085266740806E-0001	
 2.69850000000000E+0003	 1.82529636956394E-0001	
 2.70050000000000E+0003	 1.82986007171983E-0001	
 2.70250000000000E+0003	 1.83445877387572E-0001	
 2.70450000000000E+0003	 1.83923247603161E-0001	
 2.70650000000000E+0003	 1.84415617818749E-0001	
 2.70850000000000E+0003	 1.84924988034338E-0001	
 2.71050000000000E+0003	 1.85436858249927E-0001	
 2.71250000000000E+0003	 1.85965228465516E-0001	
 2.71450000000000E+0003	 1.86510598681104E-0001	
 2.71650000000000E+0003	 1.87070468896693E-0001	
 2.71850000000000E+0003	 1.87630339112282E-0001	
 2.72050000000000E+0003	 1.88197209327870E-0001	
 2.72250000000000E+0003	 1.88763079543459E-0001	
 2.72450000000000E+0003	 1.89328949759048E-0001	
 2.72650000000000E+0003	 1.89884819974637E-0001	
 2.72850000000000E+0003	 1.90426190190225E-0001	
 2.73050000000000E+0003	 1.90951060405814E-0001	
 2.73250000000000E+0003	 1.91473930621403E-0001	
 2.73450000000000E+0003	 1.91982300836992E-0001	
 2.73650000000000E+0003	 1.92482671052580E-0001	
 2.73850000000000E+0003	 1.92965541268169E-0001	
 2.74050000000000E+0003	 1.93433411483758E-0001	
 2.74250000000000E+0003	 1.93887281699346E-0001	
 2.74450000000000E+0003	 1.94332151914935E-0001	
 2.74650000000000E+0003	 1.94774522130524E-0001	
 2.74850000000000E+0003	 1.95219892346113E-0001	
 2.75050000000000E+0003	 1.95651762561701E-0001	
 2.75250000000000E+0003	 1.96081132777290E-0001	
 2.75450000000000E+0003	 1.96516502992879E-0001	
 2.75650000000000E+0003	 1.96964873208467E-0001	
 2.75850000000000E+0003	 1.97416243424056E-0001	
 2.76050000000000E+0003	 1.97882113639645E-0001	
 2.76250000000000E+0003	 1.98356983855234E-0001	
 2.76450000000000E+0003	 1.98838354070822E-0001	
 2.76650000000000E+0003	 1.99323724286411E-0001	
 2.76850000000000E+0003	 1.99818594502000E-0001	
 2.77050000000000E+0003	 2.00317964717589E-0001	
 2.77250000000000E+0003	 2.00831334933177E-0001	
 2.77450000000000E+0003	 2.01365705148766E-0001	
 2.77650000000000E+0003	 2.01908075364355E-0001	
 2.77850000000000E+0003	 2.02448945579943E-0001	
 2.78050000000000E+0003	 2.03008315795532E-0001	
 2.78250000000000E+0003	 2.03583686011121E-0001	
 2.78450000000000E+0003	 2.04170556226710E-0001	
 2.78650000000000E+0003	 2.04770926442298E-0001	
 2.78850000000000E+0003	 2.05396296657887E-0001	
 2.79050000000000E+0003	 2.06029166873476E-0001	
 2.79250000000000E+0003	 2.06659037089064E-0001	
 2.79450000000000E+0003	 2.07302907304653E-0001	
 2.79650000000000E+0003	 2.07968277520242E-0001	
 2.79850000000000E+0003	 2.08652647735831E-0001	
 2.80050000000000E+0003	 2.09336017951419E-0001	
 2.80250000000000E+0003	 2.10024888167008E-0001	
 2.80450000000000E+0003	 2.10737258382597E-0001	
 2.80650000000000E+0003	 2.11457628598186E-0001	
 2.80850000000000E+0003	 2.12195998813774E-0001	
 2.81050000000000E+0003	 2.12953369029363E-0001	
 2.81250000000000E+0003	 2.13716739244952E-0001	
 2.81450000000000E+0003	 2.14491109460540E-0001	
 2.81650000000000E+0003	 2.15279479676129E-0001	
 2.81850000000000E+0003	 2.16088849891718E-0001	
 2.82050000000000E+0003	 2.16920220107307E-0001	
 2.82250000000000E+0003	 2.17772090322895E-0001	
 2.82450000000000E+0003	 2.18641460538484E-0001	
 2.82650000000000E+0003	 2.19538330754073E-0001	
 2.82850000000000E+0003	 2.20467200969661E-0001	
 2.83050000000000E+0003	 2.21439571185250E-0001	
 2.83250000000000E+0003	 2.22465441400839E-0001	
 2.83450000000000E+0003	 2.23565311616428E-0001	
 2.83650000000000E+0003	 2.24763181832016E-0001	
 2.83850000000000E+0003	 2.26116052047605E-0001	
 2.84050000000000E+0003	 2.27639922263194E-0001	
 2.84250000000000E+0003	 2.29422292478783E-0001	
 2.84450000000000E+0003	 2.31568162694371E-0001	
 2.84650000000000E+0003	 2.34080532909960E-0001	
 2.84850000000000E+0003	 2.36794903125549E-0001	
 2.85050000000000E+0003	 2.39387773341137E-0001	
 2.85250000000000E+0003	 2.41495643556726E-0001	
 2.85450000000000E+0003	 2.42943513772315E-0001	
 2.85650000000000E+0003	 2.43818883987904E-0001	
 2.85850000000000E+0003	 2.44416754203492E-0001	
 2.86050000000000E+0003	 2.45026624419081E-0001	
 2.86250000000000E+0003	 2.45829994634670E-0001	
 2.86450000000000E+0003	 2.46919864850259E-0001	
 2.86650000000000E+0003	 2.48293235065847E-0001	
 2.86850000000000E+0003	 2.49820105281436E-0001	
 2.87050000000000E+0003	 2.51343475497025E-0001	
 2.87250000000000E+0003	 2.52693345712613E-0001	
 2.87450000000000E+0003	 2.53689215928202E-0001	
 2.87650000000000E+0003	 2.54284586143791E-0001	
 2.87850000000000E+0003	 2.54645456359380E-0001	
 2.88050000000000E+0003	 2.54909326574968E-0001	
 2.88250000000000E+0003	 2.55186696790557E-0001	
 2.88450000000000E+0003	 2.55560567006146E-0001	
 2.88650000000000E+0003	 2.56072437221734E-0001	
 2.88850000000000E+0003	 2.56714807437323E-0001	
 2.89050000000000E+0003	 2.57473177652912E-0001	
 2.89250000000000E+0003	 2.58333047868501E-0001	
 2.89450000000000E+0003	 2.59281418084089E-0001	
 2.89650000000000E+0003	 2.60280288299678E-0001	
 2.89850000000000E+0003	 2.61305658515267E-0001	
 2.90050000000000E+0003	 2.62384028730856E-0001	
 2.90250000000000E+0003	 2.63548398946444E-0001	
 2.90450000000000E+0003	 2.64817769162033E-0001	
 2.90650000000000E+0003	 2.66220139377622E-0001	
 2.90850000000000E+0003	 2.67813509593210E-0001	
 2.91050000000000E+0003	 2.69640379808799E-0001	
 2.91250000000000E+0003	 2.71718250024388E-0001	
 2.91450000000000E+0003	 2.73976120239977E-0001	
 2.91650000000000E+0003	 2.76297490455565E-0001	
 2.91850000000000E+0003	 2.78560360671154E-0001	
 2.92050000000000E+0003	 2.80604730886743E-0001	
 2.92250000000000E+0003	 2.82308101102331E-0001	
 2.92450000000000E+0003	 2.83625471317920E-0001	
 2.92650000000000E+0003	 2.84562341533509E-0001	
 2.92850000000000E+0003	 2.85196211749098E-0001	
 2.93050000000000E+0003	 2.85531081964686E-0001	
 2.93250000000000E+0003	 2.85557952180275E-0001	
 2.93450000000000E+0003	 2.85326322395864E-0001	
 2.93650000000000E+0003	 2.84848192611453E-0001	
 2.93850000000000E+0003	 2.84104062827041E-0001	
 2.94050000000000E+0003	 2.83164933042630E-0001	
 2.94250000000000E+0003	 2.82153303258219E-0001	
 2.94450000000000E+0003	 2.81169673473807E-0001	
 2.94650000000000E+0003	 2.80280043689396E-0001	
 2.94850000000000E+0003	 2.79606913904985E-0001	
 2.95050000000000E+0003	 2.79248284120574E-0001	
 2.95250000000000E+0003	 2.79221154336162E-0001	
 2.95450000000000E+0003	 2.79351524551751E-0001	
 2.95650000000000E+0003	 2.79513394767340E-0001	
 2.95850000000000E+0003	 2.79579264982928E-0001	
 2.96050000000000E+0003	 2.79420135198517E-0001	
 2.96250000000000E+0003	 2.78936005414106E-0001	
 2.96450000000000E+0003	 2.78104375629695E-0001	
 2.96650000000000E+0003	 2.76951245845283E-0001	
 2.96850000000000E+0003	 2.75560116060872E-0001	
 2.97050000000000E+0003	 2.74017986276461E-0001	
 2.97250000000000E+0003	 2.72464856492050E-0001	
 2.97450000000000E+0003	 2.70966726707638E-0001	
 2.97650000000000E+0003	 2.69544596923227E-0001	
 2.97850000000000E+0003	 2.68220467138816E-0001	
 2.98050000000000E+0003	 2.66989837354404E-0001	
 2.98250000000000E+0003	 2.65790707569993E-0001	
 2.98450000000000E+0003	 2.64649577785582E-0001	
 2.98650000000000E+0003	 2.63595448001171E-0001	
 2.98850000000000E+0003	 2.62650818216759E-0001	
 2.99050000000000E+0003	 2.61833688432348E-0001	
 2.99250000000000E+0003	 2.61153558647937E-0001	
 2.99450000000000E+0003	 2.60558428863526E-0001	
 2.99650000000000E+0003	 2.60119799079114E-0001	
 2.99850000000000E+0003	 2.59859169294703E-0001	
 3.00050000000000E+0003	 2.59737539510292E-0001	
 3.00250000000000E+0003	 2.59766409725880E-0001	
 3.00450000000000E+0003	 2.59943279941469E-0001	
 3.00650000000000E+0003	 2.60233150157058E-0001	
 3.00850000000000E+0003	 2.60651020372647E-0001	
 3.01050000000000E+0003	 2.61206390588235E-0001	
 3.01250000000000E+0003	 2.61859760803824E-0001	
 3.01450000000000E+0003	 2.62551131019413E-0001	
 3.01650000000000E+0003	 2.63277001235001E-0001	
 3.01850000000000E+0003	 2.64073371450590E-0001	
 3.02050000000000E+0003	 2.64958241666179E-0001	
 3.02250000000000E+0003	 2.65919611881768E-0001	
 3.02450000000000E+0003	 2.66959482097356E-0001	
 3.02650000000000E+0003	 2.68025352312945E-0001	
 3.02850000000000E+0003	 2.69097722528534E-0001	
 3.03050000000000E+0003	 2.70191592744123E-0001	
 3.03250000000000E+0003	 2.71299462959711E-0001	
 3.03450000000000E+0003	 2.72419333175300E-0001	
 3.03650000000000E+0003	 2.73517203390889E-0001	
 3.03850000000000E+0003	 2.74623073606477E-0001	
 3.04050000000000E+0003	 2.75795943822066E-0001	
 3.04250000000000E+0003	 2.76999314037655E-0001	
 3.04450000000000E+0003	 2.78171684253244E-0001	
 3.04650000000000E+0003	 2.79327554468832E-0001	
 3.04850000000000E+0003	 2.80489424684421E-0001	
 3.05050000000000E+0003	 2.81684294900010E-0001	
 3.05250000000000E+0003	 2.82864665115598E-0001	
 3.05450000000000E+0003	 2.84015535331187E-0001	
 3.05650000000000E+0003	 2.85145905546776E-0001	
 3.05850000000000E+0003	 2.86229775762365E-0001	
 3.06050000000000E+0003	 2.87249645977953E-0001	
 3.06250000000000E+0003	 2.88228016193542E-0001	
 3.06450000000000E+0003	 2.89154886409131E-0001	
 3.06650000000000E+0003	 2.90041256624720E-0001	
 3.06850000000000E+0003	 2.90864626840308E-0001	
 3.07050000000000E+0003	 2.91612497055897E-0001	
 3.07250000000000E+0003	 2.92323367271486E-0001	
 3.07450000000000E+0003	 2.93020237487074E-0001	
 3.07650000000000E+0003	 2.93708107702663E-0001	
 3.07850000000000E+0003	 2.94395977918252E-0001	
 3.08050000000000E+0003	 2.95033848133841E-0001	
 3.08250000000000E+0003	 2.95622718349429E-0001	
 3.08450000000000E+0003	 2.96196588565018E-0001	
 3.08650000000000E+0003	 2.96741958780607E-0001	
 3.08850000000000E+0003	 2.97266328996195E-0001	
 3.09050000000000E+0003	 2.97798199211784E-0001	
 3.09250000000000E+0003	 2.98300569427373E-0001	
 3.09450000000000E+0003	 2.98788439642962E-0001	
 3.09650000000000E+0003	 2.99292809858550E-0001	
 3.09850000000000E+0003	 2.99823180074139E-0001	
 3.10050000000000E+0003	 3.00374550289728E-0001	
 3.10250000000000E+0003	 3.00926420505317E-0001	
 3.10450000000000E+0003	 3.01488790720905E-0001	
 3.10650000000000E+0003	 3.02106160936494E-0001	
 3.10850000000000E+0003	 3.02783031152083E-0001	
 3.11050000000000E+0003	 3.03463901367671E-0001	
 3.11250000000000E+0003	 3.04150271583260E-0001	
 3.11450000000000E+0003	 3.04922141798849E-0001	
 3.11650000000000E+0003	 3.05766012014438E-0001	
 3.11850000000000E+0003	 3.06619882230026E-0001	
 3.12050000000000E+0003	 3.07476252445615E-0001	
 3.12250000000000E+0003	 3.08321122661204E-0001	
 3.12450000000000E+0003	 3.09198992876793E-0001	
 3.12650000000000E+0003	 3.10150863092381E-0001	
 3.12850000000000E+0003	 3.11160233307970E-0001	
 3.13050000000000E+0003	 3.12196103523559E-0001	
 3.13250000000000E+0003	 3.13239473739147E-0001	
 3.13450000000000E+0003	 3.14300343954736E-0001	
 3.13650000000000E+0003	 3.15407214170325E-0001	
 3.13850000000000E+0003	 3.16564084385914E-0001	
 3.14050000000000E+0003	 3.17716454601502E-0001	
 3.14250000000000E+0003	 3.18839824817091E-0001	
 3.14450000000000E+0003	 3.19999695032680E-0001	
 3.14650000000000E+0003	 3.21204065248268E-0001	
 3.14850000000000E+0003	 3.22443435463857E-0001	
 3.15050000000000E+0003	 3.23741805679446E-0001	
 3.15250000000000E+0003	 3.25069675895035E-0001	
 3.15450000000000E+0003	 3.26321546110623E-0001	
 3.15650000000000E+0003	 3.27547416326212E-0001	
 3.15850000000000E+0003	 3.28823286541801E-0001	
 3.16050000000000E+0003	 3.30134156757390E-0001	
 3.16250000000000E+0003	 3.31452526972978E-0001	
 3.16450000000000E+0003	 3.32789897188567E-0001	
 3.16650000000000E+0003	 3.34128767404156E-0001	
 3.16850000000000E+0003	 3.35458137619744E-0001	
 3.17050000000000E+0003	 3.36785507835333E-0001	
 3.17250000000000E+0003	 3.38115378050922E-0001	
 3.17450000000000E+0003	 3.39429748266511E-0001	
 3.17650000000000E+0003	 3.40735118482099E-0001	
 3.17850000000000E+0003	 3.42033488697688E-0001	
 3.18050000000000E+0003	 3.43320358913277E-0001	
 3.18250000000000E+0003	 3.44586229128865E-0001	
 3.18450000000000E+0003	 3.45836099344454E-0001	
 3.18650000000000E+0003	 3.47065969560043E-0001	
 3.18850000000000E+0003	 3.48275839775632E-0001	
 3.19050000000000E+0003	 3.49459209991220E-0001	
 3.19250000000000E+0003	 3.50618080206809E-0001	
 3.19450000000000E+0003	 3.51748950422398E-0001	
 3.19650000000000E+0003	 3.52858320637987E-0001	
 3.19850000000000E+0003	 3.53944690853575E-0001	
 3.20050000000000E+0003	 3.55013561069164E-0001	
 3.20250000000000E+0003	 3.56061431284753E-0001	
 3.20450000000000E+0003	 3.57092801500341E-0001	
 3.20650000000000E+0003	 3.58107171715930E-0001	
 3.20850000000000E+0003	 3.59099541931519E-0001	
 3.21050000000000E+0003	 3.60074912147108E-0001	
 3.21250000000000E+0003	 3.61053782362696E-0001	
 3.21450000000000E+0003	 3.62033652578285E-0001	
 3.21650000000000E+0003	 3.63009022793874E-0001	
 3.21850000000000E+0003	 3.63982893009462E-0001	
 3.22050000000000E+0003	 3.64958763225051E-0001	
 3.22250000000000E+0003	 3.65930133440640E-0001	
 3.22450000000000E+0003	 3.66916503656229E-0001	
 3.22650000000000E+0003	 3.67922373871817E-0001	
 3.22850000000000E+0003	 3.68948244087406E-0001	
 3.23050000000000E+0003	 3.70008614302995E-0001	
 3.23250000000000E+0003	 3.71121984518584E-0001	
 3.23450000000000E+0003	 3.72206354734172E-0001	
 3.23650000000000E+0003	 3.73235724949761E-0001	
 3.23850000000000E+0003	 3.74296595165350E-0001	
 3.24050000000000E+0003	 3.75414465380938E-0001	
 3.24250000000000E+0003	 3.76566835596527E-0001	
 3.24450000000000E+0003	 3.77767205812116E-0001	
 3.24650000000000E+0003	 3.78996576027705E-0001	
 3.24850000000000E+0003	 3.80198946243293E-0001	
 3.25050000000000E+0003	 3.81381816458882E-0001	
 3.25250000000000E+0003	 3.82609186674471E-0001	
 3.25450000000000E+0003	 3.83880556890060E-0001	
 3.25650000000000E+0003	 3.85156427105648E-0001	
 3.25850000000000E+0003	 3.86402297321237E-0001	
 3.26050000000000E+0003	 3.87646167536826E-0001	
 3.26250000000000E+0003	 3.88894537752414E-0001	
 3.26450000000000E+0003	 3.90130407968003E-0001	
 3.26650000000000E+0003	 3.91339778183592E-0001	
 3.26850000000000E+0003	 3.92551648399181E-0001	
 3.27050000000000E+0003	 3.93758518614769E-0001	
 3.27250000000000E+0003	 3.94880888830358E-0001	
 3.27450000000000E+0003	 3.95913259045947E-0001	
 3.27650000000000E+0003	 3.96913629261535E-0001	
 3.27850000000000E+0003	 3.97870999477124E-0001	
 3.28050000000000E+0003	 3.98789869692713E-0001	
 3.28250000000000E+0003	 3.99668239908302E-0001	
 3.28450000000000E+0003	 4.00507610123890E-0001	
 3.28650000000000E+0003	 4.01298480339479E-0001	
 3.28850000000000E+0003	 4.02046350555068E-0001	
 3.29050000000000E+0003	 4.02770220770657E-0001	
 3.29250000000000E+0003	 4.03466090986245E-0001	
 3.29450000000000E+0003	 4.04095461201834E-0001	
 3.29650000000000E+0003	 4.04672831417423E-0001	
 3.29850000000000E+0003	 4.05202201633011E-0001	
 3.30050000000000E+0003	 4.05710071848600E-0001	
 3.30250000000000E+0003	 4.06227442064189E-0001	
 3.30450000000000E+0003	 4.06773812279778E-0001	
 3.30650000000000E+0003	 4.07294182495366E-0001	
 3.30850000000000E+0003	 4.07734052710955E-0001	
 3.31050000000000E+0003	 4.08121922926544E-0001	
 3.31250000000000E+0003	 4.08520793142132E-0001	
 3.31450000000000E+0003	 4.08941663357721E-0001	
 3.31650000000000E+0003	 4.09375033573310E-0001	
 3.31850000000000E+0003	 4.09820403788899E-0001	
 3.32050000000000E+0003	 4.10278274004487E-0001	
 3.32250000000000E+0003	 4.10746144220076E-0001	
 3.32450000000000E+0003	 4.11240514435665E-0001	
 3.32650000000000E+0003	 4.11736884651254E-0001	
 3.32850000000000E+0003	 4.12207254866842E-0001	
 3.33050000000000E+0003	 4.12683625082431E-0001	
 3.33250000000000E+0003	 4.13183995298020E-0001	
 3.33450000000000E+0003	 4.13703365513608E-0001	
 3.33650000000000E+0003	 4.14249735729197E-0001	
 3.33850000000000E+0003	 4.14816105944786E-0001	
 3.34050000000000E+0003	 4.15358976160375E-0001	
 3.34250000000000E+0003	 4.15883846375963E-0001	
 3.34450000000000E+0003	 4.16417716591552E-0001	
 3.34650000000000E+0003	 4.16961586807141E-0001	
 3.34850000000000E+0003	 4.17541957022729E-0001	
 3.35050000000000E+0003	 4.18152827238318E-0001	
 3.35250000000000E+0003	 4.18717197453907E-0001	
 3.35450000000000E+0003	 4.19240567669496E-0001	
 3.35650000000000E+0003	 4.19789937885084E-0001	
 3.35850000000000E+0003	 4.20378808100673E-0001	
 3.36050000000000E+0003	 4.20981178316262E-0001	
 3.36250000000000E+0003	 4.21563548531851E-0001	
 3.36450000000000E+0003	 4.22156918747439E-0001	
 3.36650000000000E+0003	 4.22796788963028E-0001	
 3.36850000000000E+0003	 4.23439159178617E-0001	
 3.37050000000000E+0003	 4.24004529394205E-0001	
 3.37250000000000E+0003	 4.24502899609794E-0001	
 3.37450000000000E+0003	 4.25028269825383E-0001	
 3.37650000000000E+0003	 4.25598140040972E-0001	
 3.37850000000000E+0003	 4.26162510256560E-0001	
 3.38050000000000E+0003	 4.26716380472149E-0001	
 3.38250000000000E+0003	 4.27257750687738E-0001	
 3.38450000000000E+0003	 4.27800120903327E-0001	
 3.38650000000000E+0003	 4.28340991118915E-0001	
 3.38850000000000E+0003	 4.28895861334504E-0001	
 3.39050000000000E+0003	 4.29494231550093E-0001	
 3.39250000000000E+0003	 4.30043601765681E-0001	
 3.39450000000000E+0003	 4.30475971981270E-0001	
 3.39650000000000E+0003	 4.30921842196859E-0001	
 3.39850000000000E+0003	 4.31469712412448E-0001	
 3.40050000000000E+0003	 4.32032082628036E-0001	
 3.40250000000000E+0003	 4.32428452843625E-0001	
 3.40450000000000E+0003	 4.32725823059214E-0001	
 3.40650000000000E+0003	 4.33086693274802E-0001	
 3.40850000000000E+0003	 4.33500063490391E-0001	
 3.41050000000000E+0003	 4.33878933705980E-0001	
 3.41250000000000E+0003	 4.34220803921569E-0001	
 3.41450000000000E+0003	 4.34509174137157E-0001	
 3.41650000000000E+0003	 4.34759044352746E-0001	
 3.41850000000000E+0003	 4.35013414568335E-0001	
 3.42050000000000E+0003	 4.35255284783924E-0001	
 3.42250000000000E+0003	 4.35440154999512E-0001	
 3.42450000000000E+0003	 4.35604025215101E-0001	
 3.42650000000000E+0003	 4.35772895430690E-0001	
 3.42850000000000E+0003	 4.35933265646278E-0001	
 3.43050000000000E+0003	 4.36035635861867E-0001	
 3.43250000000000E+0003	 4.36103006077456E-0001	
 3.43450000000000E+0003	 4.36180876293045E-0001	
 3.43650000000000E+0003	 4.36179246508633E-0001	
 3.43850000000000E+0003	 4.36036116724222E-0001	
 3.44050000000000E+0003	 4.35856486939811E-0001	
 3.44250000000000E+0003	 4.35700357155399E-0001	
 3.44450000000000E+0003	 4.35554727370988E-0001	
 3.44650000000000E+0003	 4.35386097586577E-0001	
 3.44850000000000E+0003	 4.35167467802166E-0001	
 3.45050000000000E+0003	 4.34913838017754E-0001	
 3.45250000000000E+0003	 4.34648708233343E-0001	
 3.45450000000000E+0003	 4.34347078448932E-0001	
 3.45650000000000E+0003	 4.34025448664521E-0001	
 3.45850000000000E+0003	 4.33711318880109E-0001	
 3.46050000000000E+0003	 4.33364189095698E-0001	
 3.46250000000000E+0003	 4.32941059311287E-0001	
 3.46450000000000E+0003	 4.32552929526875E-0001	
 3.46650000000000E+0003	 4.32236799742464E-0001	
 3.46850000000000E+0003	 4.31838669958053E-0001	
 3.47050000000000E+0003	 4.31230040173642E-0001	
 3.47250000000000E+0003	 4.30545410389230E-0001	
 3.47450000000000E+0003	 4.29926780604819E-0001	
 3.47650000000000E+0003	 4.29377150820408E-0001	
 3.47850000000000E+0003	 4.28862021035996E-0001	
 3.48050000000000E+0003	 4.28266891251585E-0001	
 3.48250000000000E+0003	 4.27550261467174E-0001	
 3.48450000000000E+0003	 4.26871631682763E-0001	
 3.48650000000000E+0003	 4.26228501898351E-0001	
 3.48850000000000E+0003	 4.25523372113940E-0001	
 3.49050000000000E+0003	 4.24783242329529E-0001	
 3.49250000000000E+0003	 4.24070112545118E-0001	
 3.49450000000000E+0003	 4.23368482760706E-0001	
 3.49650000000000E+0003	 4.22645352976295E-0001	
 3.49850000000000E+0003	 4.21878223191884E-0001	
 3.50050000000000E+0003	 4.21126093407472E-0001	
 3.50250000000000E+0003	 4.20362963623061E-0001	
 3.50450000000000E+0003	 4.19467833838650E-0001	
 3.50650000000000E+0003	 4.18535704054239E-0001	
 3.50850000000000E+0003	 4.17667574269827E-0001	
 3.51050000000000E+0003	 4.16819944485416E-0001	
 3.51250000000000E+0003	 4.15997814701005E-0001	
 3.51450000000000E+0003	 4.15128684916594E-0001	
 3.51650000000000E+0003	 4.14181055132182E-0001	
 3.51850000000000E+0003	 4.13228425347771E-0001	
 3.52050000000000E+0003	 4.12335295563360E-0001	
 3.52250000000000E+0003	 4.11480165778948E-0001	
 3.52450000000000E+0003	 4.10528035994537E-0001	
 3.52650000000000E+0003	 4.09464906210126E-0001	
 3.52850000000000E+0003	 4.08410276425715E-0001	
 3.53050000000000E+0003	 4.07373146641303E-0001	
 3.53250000000000E+0003	 4.06353516856892E-0001	
 3.53450000000000E+0003	 4.05375887072481E-0001	
 3.53650000000000E+0003	 4.04352257288069E-0001	
 3.53850000000000E+0003	 4.03212127503658E-0001	
 3.54050000000000E+0003	 4.02105997719247E-0001	
 3.54250000000000E+0003	 4.01089367934836E-0001	
 3.54450000000000E+0003	 4.00011738150424E-0001	
 3.54650000000000E+0003	 3.98716108366013E-0001	
 3.54850000000000E+0003	 3.97341478581602E-0001	
 3.55050000000000E+0003	 3.96072348797191E-0001	
 3.55250000000000E+0003	 3.94792719012779E-0001	
 3.55450000000000E+0003	 3.93445089228368E-0001	
 3.55650000000000E+0003	 3.92119959443957E-0001	
 3.55850000000000E+0003	 3.90804829659545E-0001	
 3.56050000000000E+0003	 3.89458199875134E-0001	
 3.56250000000000E+0003	 3.88060570090723E-0001	
 3.56450000000000E+0003	 3.86628440306312E-0001	
 3.56650000000000E+0003	 3.85129310521900E-0001	
 3.56850000000000E+0003	 3.83558180737489E-0001	
 3.57050000000000E+0003	 3.82028550953078E-0001	
 3.57250000000000E+0003	 3.80497421168666E-0001	
 3.57450000000000E+0003	 3.78910791384255E-0001	
 3.57650000000000E+0003	 3.77299661599844E-0001	
 3.57850000000000E+0003	 3.75689531815433E-0001	
 3.58050000000000E+0003	 3.74092402031021E-0001	
 3.58250000000000E+0003	 3.72509772246610E-0001	
 3.58450000000000E+0003	 3.70915642462199E-0001	
 3.58650000000000E+0003	 3.69125012677788E-0001	
 3.58850000000000E+0003	 3.67100882893376E-0001	
 3.59050000000000E+0003	 3.65219753108965E-0001	
 3.59250000000000E+0003	 3.63485623324554E-0001	
 3.59450000000000E+0003	 3.61632493540142E-0001	
 3.59650000000000E+0003	 3.59722863755731E-0001	
 3.59850000000000E+0003	 3.57870233971320E-0001	
 3.60050000000000E+0003	 3.55965604186909E-0001	
 3.60250000000000E+0003	 3.53982474402497E-0001	
 3.60450000000000E+0003	 3.52018344618086E-0001	
 3.60650000000000E+0003	 3.50025714833675E-0001	
 3.60850000000000E+0003	 3.47907585049263E-0001	
 3.61050000000000E+0003	 3.45773455264852E-0001	
 3.61250000000000E+0003	 3.43718825480441E-0001	
 3.61450000000000E+0003	 3.41649695696030E-0001	
 3.61650000000000E+0003	 3.39570065911618E-0001	
 3.61850000000000E+0003	 3.37424936127207E-0001	
 3.62050000000000E+0003	 3.35222806342796E-0001	
 3.62250000000000E+0003	 3.33110176558385E-0001	
 3.62450000000000E+0003	 3.31043546773973E-0001	
 3.62650000000000E+0003	 3.28942416989562E-0001	
 3.62850000000000E+0003	 3.26657787205151E-0001	
 3.63050000000000E+0003	 3.24225157420739E-0001	
 3.63250000000000E+0003	 3.22092527636328E-0001	
 3.63450000000000E+0003	 3.20000897851917E-0001	
 3.63650000000000E+0003	 3.17787768067506E-0001	
 3.63850000000000E+0003	 3.15564138283094E-0001	
 3.64050000000000E+0003	 3.13334508498683E-0001	
 3.64250000000000E+0003	 3.11114378714272E-0001	
 3.64450000000000E+0003	 3.08936748929861E-0001	
 3.64650000000000E+0003	 3.06785619145449E-0001	
 3.64850000000000E+0003	 3.04589989361038E-0001	
 3.65050000000000E+0003	 3.02283859576627E-0001	
 3.65250000000000E+0003	 3.00033729792215E-0001	
 3.65450000000000E+0003	 2.97938100007804E-0001	
 3.65650000000000E+0003	 2.95838970223393E-0001	
 3.65850000000000E+0003	 2.93773340438982E-0001	
 3.66050000000000E+0003	 2.91781710654570E-0001	
 3.66250000000000E+0003	 2.89718580870159E-0001	
 3.66450000000000E+0003	 2.87669451085748E-0001	
 3.66650000000000E+0003	 2.85730821301336E-0001	
 3.66850000000000E+0003	 2.83847191516925E-0001	
 3.67050000000000E+0003	 2.81945061732514E-0001	
 3.67250000000000E+0003	 2.80158931948103E-0001	
 3.67450000000000E+0003	 2.78529802163691E-0001	
 3.67650000000000E+0003	 2.76818172379280E-0001	
 3.67850000000000E+0003	 2.75179042594869E-0001	
 3.68050000000000E+0003	 2.73653412810458E-0001	
 3.68250000000000E+0003	 2.72127283026046E-0001	
 3.68450000000000E+0003	 2.70659153241635E-0001	
 3.68650000000000E+0003	 2.69288523457224E-0001	
 3.68850000000000E+0003	 2.68006893672812E-0001	
 3.69050000000000E+0003	 2.66682263888401E-0001	
 3.69250000000000E+0003	 2.65364634103990E-0001	
 3.69450000000000E+0003	 2.64135504319579E-0001	
 3.69650000000000E+0003	 2.62971874535167E-0001	
 3.69850000000000E+0003	 2.61837744750756E-0001	
 3.70050000000000E+0003	 2.60766114966345E-0001	
 3.70250000000000E+0003	 2.59750985181933E-0001	
 3.70450000000000E+0003	 2.58764855397522E-0001	
 3.70650000000000E+0003	 2.57820725613111E-0001	
 3.70850000000000E+0003	 2.56929095828700E-0001	
 3.71050000000000E+0003	 2.56080466044288E-0001	
 3.71250000000000E+0003	 2.55205836259877E-0001	
 3.71450000000000E+0003	 2.54342206475466E-0001	
 3.71650000000000E+0003	 2.53537076691055E-0001	
 3.71850000000000E+0003	 2.52769446906643E-0001	
 3.72050000000000E+0003	 2.52040817122232E-0001	
 3.72250000000000E+0003	 2.51348187337821E-0001	
 3.72450000000000E+0003	 2.50656557553409E-0001	
 3.72650000000000E+0003	 2.49967427768998E-0001	
 3.72850000000000E+0003	 2.49274797984587E-0001	
 3.73050000000000E+0003	 2.48590668200176E-0001	
 3.73250000000000E+0003	 2.47983538415764E-0001	
 3.73450000000000E+0003	 2.47470908631353E-0001	
 3.73650000000000E+0003	 2.46956778846942E-0001	
 3.73850000000000E+0003	 2.46377649062530E-0001	
 3.74050000000000E+0003	 2.45735519278119E-0001	
 3.74250000000000E+0003	 2.45012389493708E-0001	
 3.74450000000000E+0003	 2.44356259709297E-0001	
 3.74650000000000E+0003	 2.43801629924885E-0001	
 3.74850000000000E+0003	 2.43284500140474E-0001	
 3.75050000000000E+0003	 2.42785370356063E-0001	
 3.75250000000000E+0003	 2.42323240571652E-0001	
 3.75450000000000E+0003	 2.41881110787240E-0001	
 3.75650000000000E+0003	 2.41430481002829E-0001	
 3.75850000000000E+0003	 2.40973851218418E-0001	
 3.76050000000000E+0003	 2.40511721434006E-0001	
 3.76250000000000E+0003	 2.40024591649595E-0001	
 3.76450000000000E+0003	 2.39555961865184E-0001	
 3.76650000000000E+0003	 2.39119832080773E-0001	
 3.76850000000000E+0003	 2.38698702296361E-0001	
 3.77050000000000E+0003	 2.38286572511950E-0001	
 3.77250000000000E+0003	 2.37854942727539E-0001	
 3.77450000000000E+0003	 2.37429812943128E-0001	
 3.77650000000000E+0003	 2.37041183158716E-0001	
 3.77850000000000E+0003	 2.36700053374305E-0001	
 3.78050000000000E+0003	 2.36330423589894E-0001	
 3.78250000000000E+0003	 2.35903793805482E-0001	
 3.78450000000000E+0003	 2.35507664021071E-0001	
 3.78650000000000E+0003	 2.35139034236660E-0001	
 3.78850000000000E+0003	 2.34776404452249E-0001	
 3.79050000000000E+0003	 2.34422774667837E-0001	
 3.79250000000000E+0003	 2.34065144883426E-0001	
 3.79450000000000E+0003	 2.33705015099015E-0001	
 3.79650000000000E+0003	 2.33366385314603E-0001	
 3.79850000000000E+0003	 2.33001255530192E-0001	
 3.80050000000000E+0003	 2.32659625745781E-0001	
 3.80250000000000E+0003	 2.32377995961370E-0001	
 3.80450000000000E+0003	 2.32070366176958E-0001	
 3.80650000000000E+0003	 2.31769236392547E-0001	
 3.80850000000000E+0003	 2.31483606608136E-0001	
 3.81050000000000E+0003	 2.31171976823725E-0001	
 3.81250000000000E+0003	 2.30821847039313E-0001	
 3.81450000000000E+0003	 2.30492217254902E-0001	
 3.81650000000000E+0003	 2.30258087470491E-0001	
 3.81850000000000E+0003	 2.30034957686079E-0001	
 3.82050000000000E+0003	 2.29803827901668E-0001	
 3.82250000000000E+0003	 2.29544198117257E-0001	
 3.82450000000000E+0003	 2.29261568332846E-0001	
 3.82650000000000E+0003	 2.28997938548434E-0001	
 3.82850000000000E+0003	 2.28741308764023E-0001	
 3.83050000000000E+0003	 2.28480178979612E-0001	
 3.83250000000000E+0003	 2.28230049195200E-0001	
 3.83450000000000E+0003	 2.27988419410789E-0001	
 3.83650000000000E+0003	 2.27752289626378E-0001	
 3.83850000000000E+0003	 2.27529159841967E-0001	
 3.84050000000000E+0003	 2.27324030057555E-0001	
 3.84250000000000E+0003	 2.27120900273144E-0001	
 3.84450000000000E+0003	 2.26907770488733E-0001	
 3.84650000000000E+0003	 2.26659640704322E-0001	
 3.84850000000000E+0003	 2.26358010919910E-0001	
 3.85050000000000E+0003	 2.26012881135499E-0001	
 3.85250000000000E+0003	 2.25745751351088E-0001	
 3.85450000000000E+0003	 2.25586621566676E-0001	
 3.85650000000000E+0003	 2.25522491782265E-0001	
 3.85850000000000E+0003	 2.25408361997854E-0001	
 3.86050000000000E+0003	 2.25209232213443E-0001	
 3.86250000000000E+0003	 2.25017602429031E-0001	
 3.86450000000000E+0003	 2.24851972644620E-0001	
 3.86650000000000E+0003	 2.24661342860209E-0001	
 3.86850000000000E+0003	 2.24452713075797E-0001	
 3.87050000000000E+0003	 2.24304083291386E-0001	
 3.87250000000000E+0003	 2.24180953506975E-0001	
 3.87450000000000E+0003	 2.24037823722564E-0001	
 3.87650000000000E+0003	 2.23862193938152E-0001	
 3.87850000000000E+0003	 2.23677564153741E-0001	
 3.88050000000000E+0003	 2.23535934369330E-0001	
 3.88250000000000E+0003	 2.23407304584919E-0001	
 3.88450000000000E+0003	 2.23260174800507E-0001	
 3.88650000000000E+0003	 2.23110545016096E-0001	
 3.88850000000000E+0003	 2.22947415231685E-0001	
 3.89050000000000E+0003	 2.22801785447273E-0001	
 3.89250000000000E+0003	 2.22678155662862E-0001	
 3.89450000000000E+0003	 2.22551525878451E-0001	
 3.89650000000000E+0003	 2.22410896094040E-0001	
 3.89850000000000E+0003	 2.22278766309628E-0001	
 3.90050000000000E+0003	 2.22154636525217E-0001	
 3.90250000000000E+0003	 2.22027006740806E-0001	
 3.90450000000000E+0003	 2.21917876956394E-0001	
 3.90650000000000E+0003	 2.21824247171983E-0001	
 3.90850000000000E+0003	 2.21715117387572E-0001	
 3.91050000000000E+0003	 2.21593987603161E-0001	
 3.91250000000000E+0003	 2.21487857818749E-0001	
 3.91450000000000E+0003	 2.21393728034338E-0001	
 3.91650000000000E+0003	 2.21300098249927E-0001	
 3.91850000000000E+0003	 2.21203968465516E-0001	
 3.92050000000000E+0003	 2.21111838681104E-0001	
 3.92250000000000E+0003	 2.21021208896693E-0001	
 3.92450000000000E+0003	 2.20931079112282E-0001	
 3.92650000000000E+0003	 2.20839949327870E-0001	
 3.92850000000000E+0003	 2.20758319543459E-0001	
 3.93050000000000E+0003	 2.20682689759048E-0001	
 3.93250000000000E+0003	 2.20603059974637E-0001	
 3.93450000000000E+0003	 2.20515930190225E-0001	
 3.93650000000000E+0003	 2.20419800405814E-0001	
 3.93850000000000E+0003	 2.20321170621403E-0001	
 3.94050000000000E+0003	 2.20227040836992E-0001	
 3.94250000000000E+0003	 2.20144411052580E-0001	
 3.94450000000000E+0003	 2.20066281268169E-0001	
 3.94650000000000E+0003	 2.19983651483758E-0001	
 3.94850000000000E+0003	 2.19899021699346E-0001	
 3.95050000000000E+0003	 2.19819391914935E-0001	
 3.95250000000000E+0003	 2.19742262130524E-0001	
 3.95450000000000E+0003	 2.19663632346113E-0001	
 3.95650000000000E+0003	 2.19582502561701E-0001	
 3.95850000000000E+0003	 2.19505872777290E-0001	
 3.96050000000000E+0003	 2.19432742992879E-0001	
 3.96250000000000E+0003	 2.19359613208467E-0001	
 3.96450000000000E+0003	 2.19286983424056E-0001	
 3.96650000000000E+0003	 2.19216853639645E-0001	
 3.96850000000000E+0003	 2.19147223855234E-0001	
 3.97050000000000E+0003	 2.19080094070822E-0001	
 3.97250000000000E+0003	 2.19014964286411E-0001	
 3.97450000000000E+0003	 2.18949834502000E-0001	
 3.97650000000000E+0003	 2.18885704717589E-0001	
 3.97850000000000E+0003	 2.18818074933177E-0001	
 3.98050000000000E+0003	 2.18749445148766E-0001	
 3.98250000000000E+0003	 2.18696315364355E-0001	
 3.98450000000000E+0003	 2.18641185579943E-0001	
 3.98650000000000E+0003	 2.18565055795532E-0001	
 3.98850000000000E+0003	 2.18482426011121E-0001	
 3.99050000000000E+0003	 2.18410296226710E-0001	
 3.99250000000000E+0003	 2.18349166442298E-0001	
 3.99450000000000E+0003	 2.18295036657887E-0001	
 3.99650000000000E+0003	 2.18235906873476E-0001	
 3.99850000000000E+0003	 2.18171277089064E-0001	

>1	DATALINE
