*CPCWIN*

>1	DATALINE
DATALINE
1
Operator:

Description:

Remarks:





15.9.2008
11:24


_x	_y
	
	
UNIT	UNIT
 4.50500000000000E+0002	 1.64342000000000E-0001	
 4.52500000000000E+0002	 1.64918500000000E-0001	
 4.54500000000000E+0002	 1.65426500000000E-0001	
 4.56500000000000E+0002	 1.65774500000000E-0001	
 4.58500000000000E+0002	 1.66228071659350E-0001	
 4.60500000000000E+0002	 1.67491304047410E-0001	
 4.62500000000000E+0002	 1.68482536435470E-0001	
 4.64500000000000E+0002	 1.69463268823529E-0001	
 4.66500000000000E+0002	 1.70254001211589E-0001	
 4.68500000000000E+0002	 1.70866733599649E-0001	
 4.70500000000000E+0002	 1.71415965987709E-0001	
 4.72500000000000E+0002	 1.71872698375768E-0001	
 4.74500000000000E+0002	 1.72660430763828E-0001	
 4.76500000000000E+0002	 1.73702163151888E-0001	
 4.78500000000000E+0002	 1.74552895539947E-0001	
 4.80500000000000E+0002	 1.75370127928007E-0001	
 4.82500000000000E+0002	 1.76026860316067E-0001	
 4.84500000000000E+0002	 1.76699592704126E-0001	
 4.86500000000000E+0002	 1.77591825092186E-0001	
 4.88500000000000E+0002	 1.78625557480246E-0001	
 4.90500000000000E+0002	 1.79535789868306E-0001	
 4.92500000000000E+0002	 1.80360022256365E-0001	
 4.94500000000000E+0002	 1.81283754644425E-0001	
 4.96500000000000E+0002	 1.82322987032485E-0001	
 4.98500000000000E+0002	 1.83312219420544E-0001	
 5.00500000000000E+0002	 1.84196451808604E-0001	
 5.02500000000000E+0002	 1.84943684196664E-0001	
 5.04500000000000E+0002	 1.85799916584723E-0001	
 5.06500000000000E+0002	 1.86588148972783E-0001	
 5.08500000000000E+0002	 1.87395881360843E-0001	
 5.10500000000000E+0002	 1.88290113748903E-0001	
 5.12500000000000E+0002	 1.89232346136962E-0001	
 5.14500000000000E+0002	 1.90204578525022E-0001	
 5.16500000000000E+0002	 1.91173810913082E-0001	
 5.18500000000000E+0002	 1.92112043301141E-0001	
 5.20500000000000E+0002	 1.93133775689201E-0001	
 5.22500000000000E+0002	 1.94245008077261E-0001	
 5.24500000000000E+0002	 1.95278740465320E-0001	
 5.26500000000000E+0002	 1.96505972853380E-0001	
 5.28500000000000E+0002	 1.98251705241440E-0001	
 5.30500000000000E+0002	 1.99670437629500E-0001	
 5.32500000000000E+0002	 2.00083170017559E-0001	
 5.34500000000000E+0002	 1.99868402405619E-0001	
 5.36500000000000E+0002	 1.99428134793679E-0001	
 5.38500000000000E+0002	 1.98847367181738E-0001	
 5.40500000000000E+0002	 1.98075599569798E-0001	
 5.42500000000000E+0002	 1.97286831957858E-0001	
 5.44500000000000E+0002	 1.96538064345917E-0001	
 5.46500000000000E+0002	 1.95867296733977E-0001	
 5.48500000000000E+0002	 1.95327529122037E-0001	
 5.50500000000000E+0002	 1.94932261510097E-0001	
 5.52500000000000E+0002	 1.94589993898156E-0001	
 5.54500000000000E+0002	 1.94279726286216E-0001	
 5.56500000000000E+0002	 1.94055958674276E-0001	
 5.58500000000000E+0002	 1.93925691062335E-0001	
 5.60500000000000E+0002	 1.93751423450395E-0001	
 5.62500000000000E+0002	 1.93550155838455E-0001	
 5.64500000000000E+0002	 1.93291888226514E-0001	
 5.66500000000000E+0002	 1.93066620614574E-0001	
 5.68500000000000E+0002	 1.92803353002634E-0001	
 5.70500000000000E+0002	 1.92521085390694E-0001	
 5.72500000000000E+0002	 1.92289317778753E-0001	
 5.74500000000000E+0002	 1.92127050166813E-0001	
 5.76500000000000E+0002	 1.91856282554873E-0001	
 5.78500000000000E+0002	 1.91482014942932E-0001	
 5.80500000000000E+0002	 1.90935247330992E-0001	
 5.82500000000000E+0002	 1.90304979719052E-0001	
 5.84500000000000E+0002	 1.89737212107112E-0001	
 5.86500000000000E+0002	 1.89260444495171E-0001	
 5.88500000000000E+0002	 1.88913176883231E-0001	
 5.90500000000000E+0002	 1.88719909271291E-0001	
 5.92500000000000E+0002	 1.88682641659350E-0001	
 5.94500000000000E+0002	 1.88826374047410E-0001	
 5.96500000000000E+0002	 1.88994106435470E-0001	
 5.98500000000000E+0002	 1.89098338823529E-0001	
 6.00500000000000E+0002	 1.89128071211589E-0001	
 6.02500000000000E+0002	 1.89166803599649E-0001	
 6.04500000000000E+0002	 1.89248535987709E-0001	
 6.06500000000000E+0002	 1.89409768375768E-0001	
 6.08500000000000E+0002	 1.89610000763828E-0001	
 6.10500000000000E+0002	 1.89796733151888E-0001	
 6.12500000000000E+0002	 1.89934965539947E-0001	
 6.14500000000000E+0002	 1.89926697928007E-0001	
 6.16500000000000E+0002	 1.89659930316067E-0001	
 6.18500000000000E+0002	 1.89305662704126E-0001	
 6.20500000000000E+0002	 1.88896895092186E-0001	
 6.22500000000000E+0002	 1.88325127480246E-0001	
 6.24500000000000E+0002	 1.87725859868306E-0001	
 6.26500000000000E+0002	 1.87146092256365E-0001	
 6.28500000000000E+0002	 1.86608324644425E-0001	
 6.30500000000000E+0002	 1.86122057032485E-0001	
 6.32500000000000E+0002	 1.85648289420544E-0001	
 6.34500000000000E+0002	 1.85203521808604E-0001	
 6.36500000000000E+0002	 1.84824254196664E-0001	
 6.38500000000000E+0002	 1.84540486584723E-0001	
 6.40500000000000E+0002	 1.84294718972783E-0001	
 6.42500000000000E+0002	 1.83979451360843E-0001	
 6.44500000000000E+0002	 1.83573683748903E-0001	
 6.46500000000000E+0002	 1.83135416136962E-0001	
 6.48500000000000E+0002	 1.82699648525022E-0001	
 6.50500000000000E+0002	 1.82268880913082E-0001	
 6.52500000000000E+0002	 1.81829613301141E-0001	
 6.54500000000000E+0002	 1.81431345689201E-0001	
 6.56500000000000E+0002	 1.81115578077261E-0001	
 6.58500000000000E+0002	 1.80797810465320E-0001	
 6.60500000000000E+0002	 1.80407542853380E-0001	
 6.62500000000000E+0002	 1.80142275241440E-0001	
 6.64500000000000E+0002	 1.80592507629500E-0001	
 6.66500000000000E+0002	 1.82909240017559E-0001	
 6.68500000000000E+0002	 1.83229472405619E-0001	
 6.70500000000000E+0002	 1.79330704793679E-0001	
 6.72500000000000E+0002	 1.78009437181738E-0001	
 6.74500000000000E+0002	 1.77368669569798E-0001	
 6.76500000000000E+0002	 1.76812401957858E-0001	
 6.78500000000000E+0002	 1.76210634345917E-0001	
 6.80500000000000E+0002	 1.75582366733977E-0001	
 6.82500000000000E+0002	 1.74971099122037E-0001	
 6.84500000000000E+0002	 1.74403331510097E-0001	
 6.86500000000000E+0002	 1.73874063898156E-0001	
 6.88500000000000E+0002	 1.73382796286216E-0001	
 6.90500000000000E+0002	 1.72920028674276E-0001	
 6.92500000000000E+0002	 1.72579761062335E-0001	
 6.94500000000000E+0002	 1.72319993450395E-0001	
 6.96500000000000E+0002	 1.72162725838455E-0001	
 6.98500000000000E+0002	 1.72021958226514E-0001	
 7.00500000000000E+0002	 1.71810690614574E-0001	
 7.02500000000000E+0002	 1.71402923002634E-0001	
 7.04500000000000E+0002	 1.70796655390694E-0001	
 7.06500000000000E+0002	 1.70034887778753E-0001	
 7.08500000000000E+0002	 1.69214120166813E-0001	
 7.10500000000000E+0002	 1.68427352554873E-0001	
 7.12500000000000E+0002	 1.67631084942932E-0001	
 7.14500000000000E+0002	 1.66643817330992E-0001	
 7.16500000000000E+0002	 1.65559549719052E-0001	
 7.18500000000000E+0002	 1.64516782107112E-0001	
 7.20500000000000E+0002	 1.63550514495171E-0001	
 7.22500000000000E+0002	 1.62721246883231E-0001	
 7.24500000000000E+0002	 1.61703979271291E-0001	
 7.26500000000000E+0002	 1.60463211659350E-0001	
 7.28500000000000E+0002	 1.59138444047410E-0001	
 7.30500000000000E+0002	 1.57830676435470E-0001	
 7.32500000000000E+0002	 1.56620408823529E-0001	
 7.34500000000000E+0002	 1.55566141211589E-0001	
 7.36500000000000E+0002	 1.54622873599649E-0001	
 7.38500000000000E+0002	 1.53809605987709E-0001	
 7.40500000000000E+0002	 1.53086838375768E-0001	
 7.42500000000000E+0002	 1.52451070763828E-0001	
 7.44500000000000E+0002	 1.51884303151888E-0001	
 7.46500000000000E+0002	 1.51359035539947E-0001	
 7.48500000000000E+0002	 1.50833767928007E-0001	
 7.50500000000000E+0002	 1.50275500316067E-0001	
 7.52500000000000E+0002	 1.49622232704126E-0001	
 7.54500000000000E+0002	 1.48871965092186E-0001	
 7.56500000000000E+0002	 1.47995697480246E-0001	
 7.58500000000000E+0002	 1.47060929868306E-0001	
 7.60500000000000E+0002	 1.46162162256365E-0001	
 7.62500000000000E+0002	 1.45386894644425E-0001	
 7.64500000000000E+0002	 1.44649627032485E-0001	
 7.66500000000000E+0002	 1.43805859420544E-0001	
 7.68500000000000E+0002	 1.42779591808604E-0001	
 7.70500000000000E+0002	 1.41748824196664E-0001	
 7.72500000000000E+0002	 1.40917556584723E-0001	
 7.74500000000000E+0002	 1.40459288972783E-0001	
 7.76500000000000E+0002	 1.40489021360843E-0001	
 7.78500000000000E+0002	 1.40846253748903E-0001	
 7.80500000000000E+0002	 1.40771486136962E-0001	
 7.82500000000000E+0002	 1.39967218525022E-0001	
 7.84500000000000E+0002	 1.38928450913082E-0001	
 7.86500000000000E+0002	 1.38085183301141E-0001	
 7.88500000000000E+0002	 1.37370915689201E-0001	
 7.90500000000000E+0002	 1.36804148077261E-0001	
 7.92500000000000E+0002	 1.36533380465320E-0001	
 7.94500000000000E+0002	 1.36643612853380E-0001	
 7.96500000000000E+0002	 1.36815345241440E-0001	
 7.98500000000000E+0002	 1.36802077629500E-0001	
 8.00500000000000E+0002	 1.36620310017559E-0001	
 8.02500000000000E+0002	 1.36419042405619E-0001	
 8.04500000000000E+0002	 1.36119774793679E-0001	
 8.06500000000000E+0002	 1.35635507181738E-0001	
 8.08500000000000E+0002	 1.34957739569798E-0001	
 8.10500000000000E+0002	 1.34180971957858E-0001	
 8.12500000000000E+0002	 1.33355704345917E-0001	
 8.14500000000000E+0002	 1.32562936733977E-0001	
 8.16500000000000E+0002	 1.31823669122037E-0001	
 8.18500000000000E+0002	 1.31186901510097E-0001	
 8.20500000000000E+0002	 1.30623133898156E-0001	
 8.22500000000000E+0002	 1.30151366286216E-0001	
 8.24500000000000E+0002	 1.29740098674276E-0001	
 8.26500000000000E+0002	 1.29370831062335E-0001	
 8.28500000000000E+0002	 1.29030563450395E-0001	
 8.30500000000000E+0002	 1.28753795838455E-0001	
 8.32500000000000E+0002	 1.28510028226514E-0001	
 8.34500000000000E+0002	 1.28330260614574E-0001	
 8.36500000000000E+0002	 1.28186993002634E-0001	
 8.38500000000000E+0002	 1.28113225390694E-0001	
 8.40500000000000E+0002	 1.28058957778753E-0001	
 8.42500000000000E+0002	 1.28023190166813E-0001	
 8.44500000000000E+0002	 1.28055922554873E-0001	
 8.46500000000000E+0002	 1.28271154942932E-0001	
 8.48500000000000E+0002	 1.28624387330992E-0001	
 8.50500000000000E+0002	 1.29105619719052E-0001	
 8.52500000000000E+0002	 1.29686352107112E-0001	
 8.54500000000000E+0002	 1.30354084495171E-0001	
 8.56500000000000E+0002	 1.30990816883231E-0001	
 8.58500000000000E+0002	 1.31503549271291E-0001	
 8.60500000000000E+0002	 1.31784281659350E-0001	
 8.62500000000000E+0002	 1.31793514047410E-0001	
 8.64500000000000E+0002	 1.31501746435470E-0001	
 8.66500000000000E+0002	 1.31027478823529E-0001	
 8.68500000000000E+0002	 1.30731711211589E-0001	
 8.70500000000000E+0002	 1.31334443599649E-0001	
 8.72500000000000E+0002	 1.32066675987709E-0001	
 8.74500000000000E+0002	 1.31206908375768E-0001	
 8.76500000000000E+0002	 1.29352140763828E-0001	
 8.78500000000000E+0002	 1.27749373151888E-0001	
 8.80500000000000E+0002	 1.26469605539947E-0001	
 8.82500000000000E+0002	 1.25427337928007E-0001	
 8.84500000000000E+0002	 1.24519070316067E-0001	
 8.86500000000000E+0002	 1.23750302704126E-0001	
 8.88500000000000E+0002	 1.23163035092186E-0001	
 8.90500000000000E+0002	 1.22804767480246E-0001	
 8.92500000000000E+0002	 1.22626499868306E-0001	
 8.94500000000000E+0002	 1.22581732256365E-0001	
 8.96500000000000E+0002	 1.22551464644425E-0001	
 8.98500000000000E+0002	 1.22472197032485E-0001	
 9.00500000000000E+0002	 1.22305929420544E-0001	
 9.02500000000000E+0002	 1.22166161808604E-0001	
 9.04500000000000E+0002	 1.22201894196664E-0001	
 9.06500000000000E+0002	 1.22522126584723E-0001	
 9.08500000000000E+0002	 1.23063358972783E-0001	
 9.10500000000000E+0002	 1.23709591360843E-0001	
 9.12500000000000E+0002	 1.24256323748903E-0001	
 9.14500000000000E+0002	 1.24543556136962E-0001	
 9.16500000000000E+0002	 1.24468788525022E-0001	
 9.18500000000000E+0002	 1.24096520913082E-0001	
 9.20500000000000E+0002	 1.23597753301141E-0001	
 9.22500000000000E+0002	 1.23205985689201E-0001	
 9.24500000000000E+0002	 1.23068218077261E-0001	
 9.26500000000000E+0002	 1.23274450465320E-0001	
 9.28500000000000E+0002	 1.23785682853380E-0001	
 9.30500000000000E+0002	 1.24523915241440E-0001	
 9.32500000000000E+0002	 1.25328647629500E-0001	
 9.34500000000000E+0002	 1.26067880017559E-0001	
 9.36500000000000E+0002	 1.26676112405619E-0001	
 9.38500000000000E+0002	 1.27213344793679E-0001	
 9.40500000000000E+0002	 1.27711077181738E-0001	
 9.42500000000000E+0002	 1.28195309569798E-0001	
 9.44500000000000E+0002	 1.28603541957858E-0001	
 9.46500000000000E+0002	 1.28891774345917E-0001	
 9.48500000000000E+0002	 1.29034506733977E-0001	
 9.50500000000000E+0002	 1.29124239122037E-0001	
 9.52500000000000E+0002	 1.29305471510097E-0001	
 9.54500000000000E+0002	 1.29757203898156E-0001	
 9.56500000000000E+0002	 1.30565936286216E-0001	
 9.58500000000000E+0002	 1.31734668674276E-0001	
 9.60500000000000E+0002	 1.33145401062335E-0001	
 9.62500000000000E+0002	 1.34687133450395E-0001	
 9.64500000000000E+0002	 1.36232365838455E-0001	
 9.66500000000000E+0002	 1.37684098226514E-0001	
 9.68500000000000E+0002	 1.39000830614574E-0001	
 9.70500000000000E+0002	 1.40234063002634E-0001	
 9.72500000000000E+0002	 1.41498295390694E-0001	
 9.74500000000000E+0002	 1.43048527778753E-0001	
 9.76500000000000E+0002	 1.45160760166813E-0001	
 9.78500000000000E+0002	 1.48075492554873E-0001	
 9.80500000000000E+0002	 1.51872724942932E-0001	
 9.82500000000000E+0002	 1.56425457330992E-0001	
 9.84500000000000E+0002	 1.61355689719052E-0001	
 9.86500000000000E+0002	 1.66159422107112E-0001	
 9.88500000000000E+0002	 1.70344154495171E-0001	
 9.90500000000000E+0002	 1.73568386883231E-0001	
 9.92500000000000E+0002	 1.75621619271291E-0001	
 9.94500000000000E+0002	 1.76518351659350E-0001	
 9.96500000000000E+0002	 1.76502084047410E-0001	
 9.98500000000000E+0002	 1.76025316435470E-0001	
 1.00050000000000E+0003	 1.75644048823529E-0001	
 1.00250000000000E+0003	 1.75868781211589E-0001	
 1.00450000000000E+0003	 1.77037013599649E-0001	
 1.00650000000000E+0003	 1.79284245987709E-0001	
 1.00850000000000E+0003	 1.82462978375768E-0001	
 1.01050000000000E+0003	 1.86217210763828E-0001	
 1.01250000000000E+0003	 1.90130943151888E-0001	
 1.01450000000000E+0003	 1.93894675539947E-0001	
 1.01650000000000E+0003	 1.97365407928007E-0001	
 1.01850000000000E+0003	 2.00616140316067E-0001	
 1.02050000000000E+0003	 2.03859372704126E-0001	
 1.02250000000000E+0003	 2.07349605092186E-0001	
 1.02450000000000E+0003	 2.11198337480246E-0001	
 1.02650000000000E+0003	 2.15287069868306E-0001	
 1.02850000000000E+0003	 2.19246802256365E-0001	
 1.03050000000000E+0003	 2.22668534644425E-0001	
 1.03250000000000E+0003	 2.25331267032485E-0001	
 1.03450000000000E+0003	 2.27312999420544E-0001	
 1.03650000000000E+0003	 2.28782231808604E-0001	
 1.03850000000000E+0003	 2.29922464196664E-0001	
 1.04050000000000E+0003	 2.31020196584723E-0001	
 1.04250000000000E+0003	 2.32346428972783E-0001	
 1.04450000000000E+0003	 2.34044661360843E-0001	
 1.04650000000000E+0003	 2.36086893748903E-0001	
 1.04850000000000E+0003	 2.38261626136962E-0001	
 1.05050000000000E+0003	 2.40263358525022E-0001	
 1.05250000000000E+0003	 2.41869090913082E-0001	
 1.05450000000000E+0003	 2.43048323301141E-0001	
 1.05650000000000E+0003	 2.43874555689201E-0001	
 1.05850000000000E+0003	 2.44355288077261E-0001	
 1.06050000000000E+0003	 2.44437520465320E-0001	
 1.06250000000000E+0003	 2.44172252853380E-0001	
 1.06450000000000E+0003	 2.43809485241440E-0001	
 1.06650000000000E+0003	 2.43683717629500E-0001	
 1.06850000000000E+0003	 2.43959450017559E-0001	
 1.07050000000000E+0003	 2.44659682405619E-0001	
 1.07250000000000E+0003	 2.45644914793679E-0001	
 1.07450000000000E+0003	 2.46659147181738E-0001	
 1.07650000000000E+0003	 2.47454879569798E-0001	
 1.07850000000000E+0003	 2.47794111957858E-0001	
 1.08050000000000E+0003	 2.47510844345917E-0001	
 1.08250000000000E+0003	 2.46593076733977E-0001	
 1.08450000000000E+0003	 2.45103809122037E-0001	
 1.08650000000000E+0003	 2.43081041510097E-0001	
 1.08850000000000E+0003	 2.40568273898156E-0001	
 1.09050000000000E+0003	 2.37690506286216E-0001	
 1.09250000000000E+0003	 2.34711738674276E-0001	
 1.09450000000000E+0003	 2.31911471062335E-0001	
 1.09650000000000E+0003	 2.29476703450395E-0001	
 1.09850000000000E+0003	 2.27462935838455E-0001	
 1.10050000000000E+0003	 2.25835168226514E-0001	
 1.10250000000000E+0003	 2.24459400614574E-0001	
 1.10450000000000E+0003	 2.23220133002634E-0001	
 1.10650000000000E+0003	 2.22055865390694E-0001	
 1.10850000000000E+0003	 2.21002097778753E-0001	
 1.11050000000000E+0003	 2.20068830166813E-0001	
 1.11250000000000E+0003	 2.19152562554873E-0001	
 1.11450000000000E+0003	 2.17994294942932E-0001	
 1.11650000000000E+0003	 2.16338527330992E-0001	
 1.11850000000000E+0003	 2.14041759719052E-0001	
 1.12050000000000E+0003	 2.11107992107112E-0001	
 1.12250000000000E+0003	 2.07599224495171E-0001	
 1.12450000000000E+0003	 2.03656456883231E-0001	
 1.12650000000000E+0003	 1.99438189271291E-0001	
 1.12850000000000E+0003	 1.95097921659350E-0001	
 1.13050000000000E+0003	 1.90731154047410E-0001	
 1.13250000000000E+0003	 1.86589386435470E-0001	
 1.13450000000000E+0003	 1.82910118823529E-0001	
 1.13650000000000E+0003	 1.79867351211589E-0001	
 1.13850000000000E+0003	 1.77616583599649E-0001	
 1.14050000000000E+0003	 1.76285315987709E-0001	
 1.14250000000000E+0003	 1.75809548375768E-0001	
 1.14450000000000E+0003	 1.75983780763828E-0001	
 1.14650000000000E+0003	 1.76404013151888E-0001	
 1.14850000000000E+0003	 1.76637245539947E-0001	
 1.15050000000000E+0003	 1.76301477928007E-0001	
 1.15250000000000E+0003	 1.75251710316067E-0001	
 1.15450000000000E+0003	 1.73500442704126E-0001	
 1.15650000000000E+0003	 1.71220175092186E-0001	
 1.15850000000000E+0003	 1.68645407480246E-0001	
 1.16050000000000E+0003	 1.66025139868306E-0001	
 1.16250000000000E+0003	 1.63484872256365E-0001	
 1.16450000000000E+0003	 1.61135604644425E-0001	
 1.16650000000000E+0003	 1.59009337032485E-0001	
 1.16850000000000E+0003	 1.57153569420544E-0001	
 1.17050000000000E+0003	 1.55553301808604E-0001	
 1.17250000000000E+0003	 1.54137534196664E-0001	
 1.17450000000000E+0003	 1.52769266584723E-0001	
 1.17650000000000E+0003	 1.51490998972783E-0001	
 1.17850000000000E+0003	 1.50398731360843E-0001	
 1.18050000000000E+0003	 1.49661963748903E-0001	
 1.18250000000000E+0003	 1.49384696136962E-0001	
 1.18450000000000E+0003	 1.49650428525022E-0001	
 1.18650000000000E+0003	 1.50501160913082E-0001	
 1.18850000000000E+0003	 1.51982893301141E-0001	
 1.19050000000000E+0003	 1.54053625689201E-0001	
 1.19250000000000E+0003	 1.56705358077261E-0001	
 1.19450000000000E+0003	 1.59832090465320E-0001	
 1.19650000000000E+0003	 1.63348322853380E-0001	
 1.19850000000000E+0003	 1.67090055241440E-0001	
 1.20050000000000E+0003	 1.70939287629500E-0001	
 1.20250000000000E+0003	 1.74744020017559E-0001	
 1.20450000000000E+0003	 1.78426752405619E-0001	
 1.20650000000000E+0003	 1.81899984793679E-0001	
 1.20850000000000E+0003	 1.85171717181738E-0001	
 1.21050000000000E+0003	 1.88281949569798E-0001	
 1.21250000000000E+0003	 1.91408681957858E-0001	
 1.21450000000000E+0003	 1.94649914345917E-0001	
 1.21650000000000E+0003	 1.98190146733977E-0001	
 1.21850000000000E+0003	 2.02058379122037E-0001	
 1.22050000000000E+0003	 2.05693111510097E-0001	
 1.22250000000000E+0003	 2.08092843898156E-0001	
 1.22450000000000E+0003	 2.09092076286216E-0001	
 1.22650000000000E+0003	 2.09368808674276E-0001	
 1.22850000000000E+0003	 2.09582541062335E-0001	
 1.23050000000000E+0003	 2.09733273450395E-0001	
 1.23250000000000E+0003	 2.09613505838455E-0001	
 1.23450000000000E+0003	 2.09103738226514E-0001	
 1.23650000000000E+0003	 2.08235970614574E-0001	
 1.23850000000000E+0003	 2.07020203002634E-0001	
 1.24050000000000E+0003	 2.05500935390694E-0001	
 1.24250000000000E+0003	 2.03685167778753E-0001	
 1.24450000000000E+0003	 2.01649900166813E-0001	
 1.24650000000000E+0003	 1.99439632554873E-0001	
 1.24850000000000E+0003	 1.97122364942932E-0001	
 1.25050000000000E+0003	 1.94682597330992E-0001	
 1.25250000000000E+0003	 1.92164829719052E-0001	
 1.25450000000000E+0003	 1.89576562107112E-0001	
 1.25650000000000E+0003	 1.86973794495171E-0001	
 1.25850000000000E+0003	 1.84345026883231E-0001	
 1.26050000000000E+0003	 1.81693259271291E-0001	
 1.26250000000000E+0003	 1.79015491659350E-0001	
 1.26450000000000E+0003	 1.76438724047410E-0001	
 1.26650000000000E+0003	 1.73977456435470E-0001	
 1.26850000000000E+0003	 1.71710188823529E-0001	
 1.27050000000000E+0003	 1.69657921211589E-0001	
 1.27250000000000E+0003	 1.67840153599649E-0001	
 1.27450000000000E+0003	 1.66239385987709E-0001	
 1.27650000000000E+0003	 1.64867118375768E-0001	
 1.27850000000000E+0003	 1.63670350763828E-0001	
 1.28050000000000E+0003	 1.62620083151888E-0001	
 1.28250000000000E+0003	 1.61579315539947E-0001	
 1.28450000000000E+0003	 1.60528047928007E-0001	
 1.28650000000000E+0003	 1.59482280316067E-0001	
 1.28850000000000E+0003	 1.58523512704126E-0001	
 1.29050000000000E+0003	 1.57713245092186E-0001	
 1.29250000000000E+0003	 1.57108977480246E-0001	
 1.29450000000000E+0003	 1.56656709868306E-0001	
 1.29650000000000E+0003	 1.56382442256365E-0001	
 1.29850000000000E+0003	 1.56298174644425E-0001	
 1.30050000000000E+0003	 1.56433407032485E-0001	
 1.30250000000000E+0003	 1.56687139420544E-0001	
 1.30450000000000E+0003	 1.56971371808604E-0001	
 1.30650000000000E+0003	 1.57247104196664E-0001	
 1.30850000000000E+0003	 1.57541836584723E-0001	
 1.31050000000000E+0003	 1.57846568972783E-0001	
 1.31250000000000E+0003	 1.58168801360843E-0001	
 1.31450000000000E+0003	 1.58395033748903E-0001	
 1.31650000000000E+0003	 1.58559766136962E-0001	
 1.31850000000000E+0003	 1.58647498525022E-0001	
 1.32050000000000E+0003	 1.58542230913082E-0001	
 1.32250000000000E+0003	 1.58390963301141E-0001	
 1.32450000000000E+0003	 1.58243195689201E-0001	
 1.32650000000000E+0003	 1.58030428077261E-0001	
 1.32850000000000E+0003	 1.57821160465320E-0001	
 1.33050000000000E+0003	 1.57654892853380E-0001	
 1.33250000000000E+0003	 1.57509625241440E-0001	
 1.33450000000000E+0003	 1.57283357629500E-0001	
 1.33650000000000E+0003	 1.56868590017559E-0001	
 1.33850000000000E+0003	 1.56309822405619E-0001	
 1.34050000000000E+0003	 1.55658554793679E-0001	
 1.34250000000000E+0003	 1.55100787181738E-0001	
 1.34450000000000E+0003	 1.54772519569798E-0001	
 1.34650000000000E+0003	 1.54402751957858E-0001	
 1.34850000000000E+0003	 1.54271484345917E-0001	
 1.35050000000000E+0003	 1.54701716733977E-0001	
 1.35250000000000E+0003	 1.55783449122037E-0001	
 1.35450000000000E+0003	 1.57462681510097E-0001	
 1.35650000000000E+0003	 1.59371413898156E-0001	
 1.35850000000000E+0003	 1.61198146286216E-0001	
 1.36050000000000E+0003	 1.62817378674276E-0001	
 1.36250000000000E+0003	 1.64686111062335E-0001	
 1.36450000000000E+0003	 1.66906343450395E-0001	
 1.36650000000000E+0003	 1.69474075838455E-0001	
 1.36850000000000E+0003	 1.71633308226514E-0001	
 1.37050000000000E+0003	 1.72627040614574E-0001	
 1.37250000000000E+0003	 1.72943773002634E-0001	
 1.37450000000000E+0003	 1.73101005390694E-0001	
 1.37650000000000E+0003	 1.73020237778753E-0001	
 1.37850000000000E+0003	 1.73125970166813E-0001	
 1.38050000000000E+0003	 1.73075202554873E-0001	
 1.38250000000000E+0003	 1.73109934942932E-0001	
 1.38450000000000E+0003	 1.73054167330992E-0001	
 1.38650000000000E+0003	 1.72813399719052E-0001	
 1.38850000000000E+0003	 1.72932132107112E-0001	
 1.39050000000000E+0003	 1.73734864495171E-0001	
 1.39250000000000E+0003	 1.74491596883231E-0001	
 1.39450000000000E+0003	 1.75207829271291E-0001	
 1.39650000000000E+0003	 1.75924561659350E-0001	
 1.39850000000000E+0003	 1.76767794047410E-0001	
 1.40050000000000E+0003	 1.77526526435470E-0001	
 1.40250000000000E+0003	 1.77729758823529E-0001	
 1.40450000000000E+0003	 1.77688991211589E-0001	
 1.40650000000000E+0003	 1.76992223599649E-0001	
 1.40850000000000E+0003	 1.76565955987709E-0001	
 1.41050000000000E+0003	 1.76331688375768E-0001	
 1.41250000000000E+0003	 1.75981920763828E-0001	
 1.41450000000000E+0003	 1.75662653151888E-0001	
 1.41650000000000E+0003	 1.74726385539947E-0001	
 1.41850000000000E+0003	 1.73276617928007E-0001	
 1.42050000000000E+0003	 1.72446350316067E-0001	
 1.42250000000000E+0003	 1.72308582704126E-0001	
 1.42450000000000E+0003	 1.71967815092186E-0001	
 1.42650000000000E+0003	 1.70526047480246E-0001	
 1.42850000000000E+0003	 1.69418279868306E-0001	
 1.43050000000000E+0003	 1.68545512256365E-0001	
 1.43250000000000E+0003	 1.68077744644425E-0001	
 1.43450000000000E+0003	 1.67499977032485E-0001	
 1.43650000000000E+0003	 1.67687209420544E-0001	
 1.43850000000000E+0003	 1.68745941808604E-0001	
 1.44050000000000E+0003	 1.70688674196664E-0001	
 1.44250000000000E+0003	 1.72614406584723E-0001	
 1.44450000000000E+0003	 1.73698638972783E-0001	
 1.44650000000000E+0003	 1.74548371360843E-0001	
 1.44850000000000E+0003	 1.75648103748903E-0001	
 1.45050000000000E+0003	 1.76728836136962E-0001	
 1.45250000000000E+0003	 1.77851068525022E-0001	
 1.45450000000000E+0003	 1.77141300913082E-0001	
 1.45650000000000E+0003	 1.75933533301141E-0001	
 1.45850000000000E+0003	 1.74454765689201E-0001	
 1.46050000000000E+0003	 1.73745998077261E-0001	
 1.46250000000000E+0003	 1.72957230465320E-0001	
 1.46450000000000E+0003	 1.71025462853380E-0001	
 1.46650000000000E+0003	 1.68376695241440E-0001	
 1.46850000000000E+0003	 1.65957927629500E-0001	
 1.47050000000000E+0003	 1.62734660017559E-0001	
 1.47250000000000E+0003	 1.58665392405619E-0001	
 1.47450000000000E+0003	 1.54629124793679E-0001	
 1.47650000000000E+0003	 1.52481857181738E-0001	
 1.47850000000000E+0003	 1.51297589569798E-0001	
 1.48050000000000E+0003	 1.50559321957858E-0001	
 1.48250000000000E+0003	 1.50023054345917E-0001	
 1.48450000000000E+0003	 1.49484286733977E-0001	
 1.48650000000000E+0003	 1.49454519122037E-0001	
 1.48850000000000E+0003	 1.49593251510097E-0001	
 1.49050000000000E+0003	 1.50628983898156E-0001	
 1.49250000000000E+0003	 1.52243716286216E-0001	
 1.49450000000000E+0003	 1.54012948674276E-0001	
 1.49650000000000E+0003	 1.56437181062335E-0001	
 1.49850000000000E+0003	 1.58421413450395E-0001	
 1.50050000000000E+0003	 1.61214145838455E-0001	
 1.50250000000000E+0003	 1.63962378226514E-0001	
 1.50450000000000E+0003	 1.65651110614574E-0001	
 1.50650000000000E+0003	 1.69615343002634E-0001	
 1.50850000000000E+0003	 1.73908575390694E-0001	
 1.51050000000000E+0003	 1.78586807778753E-0001	
 1.51250000000000E+0003	 1.84945540166813E-0001	
 1.51450000000000E+0003	 1.90142772554873E-0001	
 1.51650000000000E+0003	 1.94723504942932E-0001	
 1.51850000000000E+0003	 1.97220737330992E-0001	
 1.52050000000000E+0003	 1.99881969719052E-0001	
 1.52250000000000E+0003	 2.04650702107112E-0001	
 1.52450000000000E+0003	 2.08572934495171E-0001	
 1.52650000000000E+0003	 2.13700166883231E-0001	
 1.52850000000000E+0003	 2.18502399271291E-0001	
 1.53050000000000E+0003	 2.22285131659350E-0001	
 1.53250000000000E+0003	 2.25717364047410E-0001	
 1.53450000000000E+0003	 2.29337096435470E-0001	
 1.53650000000000E+0003	 2.31076828823529E-0001	
 1.53850000000000E+0003	 2.33297561211589E-0001	
 1.54050000000000E+0003	 2.35734793599649E-0001	
 1.54250000000000E+0003	 2.37005025987709E-0001	
 1.54450000000000E+0003	 2.39700258375768E-0001	
 1.54650000000000E+0003	 2.41832990763828E-0001	
 1.54850000000000E+0003	 2.42339223151888E-0001	
 1.55050000000000E+0003	 2.41152955539947E-0001	
 1.55250000000000E+0003	 2.37751687928007E-0001	
 1.55450000000000E+0003	 2.33906920316067E-0001	
 1.55650000000000E+0003	 2.28118652704126E-0001	
 1.55850000000000E+0003	 2.22944885092186E-0001	
 1.56050000000000E+0003	 2.17846117480246E-0001	
 1.56250000000000E+0003	 2.16009849868306E-0001	
 1.56450000000000E+0003	 2.14889082256365E-0001	
 1.56650000000000E+0003	 2.11789814644425E-0001	
 1.56850000000000E+0003	 2.08140547032485E-0001	
 1.57050000000000E+0003	 2.05088779420544E-0001	
 1.57250000000000E+0003	 2.02028511808604E-0001	
 1.57450000000000E+0003	 1.99580744196664E-0001	
 1.57650000000000E+0003	 1.97968476584723E-0001	
 1.57850000000000E+0003	 1.95737708972783E-0001	
 1.58050000000000E+0003	 1.94419941360843E-0001	
 1.58250000000000E+0003	 1.93840173748903E-0001	
 1.58450000000000E+0003	 1.92940906136962E-0001	
 1.58650000000000E+0003	 1.92509638525022E-0001	
 1.58850000000000E+0003	 1.92599870913082E-0001	
 1.59050000000000E+0003	 1.93257103301141E-0001	
 1.59250000000000E+0003	 1.94378335689201E-0001	
 1.59450000000000E+0003	 1.96018068077261E-0001	
 1.59650000000000E+0003	 1.97969300465320E-0001	
 1.59850000000000E+0003	 2.00245032853380E-0001	
 1.60050000000000E+0003	 2.02978265241440E-0001	
 1.60250000000000E+0003	 2.06148997629500E-0001	
 1.60450000000000E+0003	 2.09687230017559E-0001	
 1.60650000000000E+0003	 2.13752462405619E-0001	
 1.60850000000000E+0003	 2.18574694793679E-0001	
 1.61050000000000E+0003	 2.23999927181738E-0001	
 1.61250000000000E+0003	 2.29790159569798E-0001	
 1.61450000000000E+0003	 2.35060891957858E-0001	
 1.61650000000000E+0003	 2.42837124345917E-0001	
 1.61850000000000E+0003	 2.51661356733977E-0001	
 1.62050000000000E+0003	 2.58798089122037E-0001	
 1.62250000000000E+0003	 2.67502821510097E-0001	
 1.62450000000000E+0003	 2.76494553898156E-0001	
 1.62650000000000E+0003	 2.84705286286216E-0001	
 1.62850000000000E+0003	 2.93679018674276E-0001	
 1.63050000000000E+0003	 3.01803751062335E-0001	
 1.63250000000000E+0003	 3.07941483450395E-0001	
 1.63450000000000E+0003	 3.13723215838455E-0001	
 1.63650000000000E+0003	 3.20556948226514E-0001	
 1.63850000000000E+0003	 3.25429680614574E-0001	
 1.64050000000000E+0003	 3.30184913002634E-0001	
 1.64250000000000E+0003	 3.33841645390694E-0001	
 1.64450000000000E+0003	 3.35646877778753E-0001	
 1.64650000000000E+0003	 3.38563110166813E-0001	
 1.64850000000000E+0003	 3.40623342554873E-0001	
 1.65050000000000E+0003	 3.40426074942932E-0001	
 1.65250000000000E+0003	 3.42881807330992E-0001	
 1.65450000000000E+0003	 3.45431539719052E-0001	
 1.65650000000000E+0003	 3.45509272107112E-0001	
 1.65850000000000E+0003	 3.46036504495171E-0001	
 1.66050000000000E+0003	 3.43652236883231E-0001	
 1.66250000000000E+0003	 3.39423469271291E-0001	
 1.66450000000000E+0003	 3.34142201659350E-0001	
 1.66650000000000E+0003	 3.28980434047410E-0001	
 1.66850000000000E+0003	 3.23793166435470E-0001	
 1.67050000000000E+0003	 3.17782898823529E-0001	
 1.67250000000000E+0003	 3.11597131211589E-0001	
 1.67450000000000E+0003	 3.06723863599649E-0001	
 1.67650000000000E+0003	 3.01755095987709E-0001	
 1.67850000000000E+0003	 2.96987328375768E-0001	
 1.68050000000000E+0003	 2.92544060763828E-0001	
 1.68250000000000E+0003	 2.86307793151888E-0001	
 1.68450000000000E+0003	 2.80891025539947E-0001	
 1.68650000000000E+0003	 2.75984757928007E-0001	
 1.68850000000000E+0003	 2.72438990316067E-0001	
 1.69050000000000E+0003	 2.68893222704126E-0001	
 1.69250000000000E+0003	 2.63988955092186E-0001	
 1.69450000000000E+0003	 2.59170687480246E-0001	
 1.69650000000000E+0003	 2.55087419868306E-0001	
 1.69850000000000E+0003	 2.48824652256365E-0001	
 1.70050000000000E+0003	 2.45856384644425E-0001	
 1.70250000000000E+0003	 2.43085117032485E-0001	
 1.70450000000000E+0003	 2.41413849420544E-0001	
 1.70650000000000E+0003	 2.40341081808604E-0001	
 1.70850000000000E+0003	 2.37724314196664E-0001	
 1.71050000000000E+0003	 2.35279546584723E-0001	
 1.71250000000000E+0003	 2.31541778972783E-0001	
 1.71450000000000E+0003	 2.26058511360843E-0001	
 1.71650000000000E+0003	 2.18847243748903E-0001	
 1.71850000000000E+0003	 2.10824976136962E-0001	
 1.72050000000000E+0003	 2.02753708525022E-0001	
 1.72250000000000E+0003	 1.96464940913082E-0001	
 1.72450000000000E+0003	 1.90503173301141E-0001	
 1.72650000000000E+0003	 1.84933905689201E-0001	
 1.72850000000000E+0003	 1.80722638077261E-0001	
 1.73050000000000E+0003	 1.76903370465320E-0001	
 1.73250000000000E+0003	 1.72969602853380E-0001	
 1.73450000000000E+0003	 1.71578835241440E-0001	
 1.73650000000000E+0003	 1.70021067629500E-0001	
 1.73850000000000E+0003	 1.69624800017559E-0001	
 1.74050000000000E+0003	 1.70383032405619E-0001	
 1.74250000000000E+0003	 1.70062764793679E-0001	
 1.74450000000000E+0003	 1.70098497181738E-0001	
 1.74650000000000E+0003	 1.69470229569798E-0001	
 1.74850000000000E+0003	 1.67969461957858E-0001	
 1.75050000000000E+0003	 1.65520194345917E-0001	
 1.75250000000000E+0003	 1.63056926733977E-0001	
 1.75450000000000E+0003	 1.59853659122037E-0001	
 1.75650000000000E+0003	 1.56639891510097E-0001	
 1.75850000000000E+0003	 1.52350623898156E-0001	
 1.76050000000000E+0003	 1.47882356286216E-0001	
 1.76250000000000E+0003	 1.44204088674276E-0001	
 1.76450000000000E+0003	 1.40404821062335E-0001	
 1.76650000000000E+0003	 1.37193553450395E-0001	
 1.76850000000000E+0003	 1.34059285838455E-0001	
 1.77050000000000E+0003	 1.30127518226514E-0001	
 1.77250000000000E+0003	 1.27835250614574E-0001	
 1.77450000000000E+0003	 1.25977983002634E-0001	
 1.77650000000000E+0003	 1.24589715390694E-0001	
 1.77850000000000E+0003	 1.23564947778753E-0001	
 1.78050000000000E+0003	 1.22326180166813E-0001	
 1.78250000000000E+0003	 1.20629412554873E-0001	
 1.78450000000000E+0003	 1.19322144942932E-0001	
 1.78650000000000E+0003	 1.18424877330992E-0001	
 1.78850000000000E+0003	 1.17197609719052E-0001	
 1.79050000000000E+0003	 1.15767342107112E-0001	
 1.79250000000000E+0003	 1.14703074495171E-0001	
 1.79450000000000E+0003	 1.13726806883231E-0001	
 1.79650000000000E+0003	 1.13173039271291E-0001	
 1.79850000000000E+0003	 1.12700771659350E-0001	
 1.80050000000000E+0003	 1.11840004047410E-0001	
 1.80250000000000E+0003	 1.10806736435470E-0001	
 1.80450000000000E+0003	 1.10172468823529E-0001	
 1.80650000000000E+0003	 1.09841201211589E-0001	
 1.80850000000000E+0003	 1.09262933599649E-0001	
 1.81050000000000E+0003	 1.08572665987709E-0001	
 1.81250000000000E+0003	 1.07865898375768E-0001	
 1.81450000000000E+0003	 1.07169630763828E-0001	
 1.81650000000000E+0003	 1.06827363151888E-0001	
 1.81850000000000E+0003	 1.06295595539947E-0001	
 1.82050000000000E+0003	 1.05742327928007E-0001	
 1.82250000000000E+0003	 1.05019060316067E-0001	
 1.82450000000000E+0003	 1.04365292704126E-0001	
 1.82650000000000E+0003	 1.03516025092186E-0001	
 1.82850000000000E+0003	 1.02561757480246E-0001	
 1.83050000000000E+0003	 1.02550489868306E-0001	
 1.83250000000000E+0003	 1.02013222256365E-0001	
 1.83450000000000E+0003	 1.02038954644425E-0001	
 1.83650000000000E+0003	 1.02110187032485E-0001	
 1.83850000000000E+0003	 1.01751419420544E-0001	
 1.84050000000000E+0003	 1.01068651808604E-0001	
 1.84250000000000E+0003	 1.00018884196664E-0001	
 1.84450000000000E+0003	 9.98176165847234E-0002	
 1.84650000000000E+0003	 9.93153489727831E-0002	
 1.84850000000000E+0003	 9.92255813608428E-0002	
 1.85050000000000E+0003	 9.94703137489025E-0002	
 1.85250000000000E+0003	 9.93060461369622E-0002	
 1.85450000000000E+0003	 9.91117785250219E-0002	
 1.85650000000000E+0003	 9.88170109130817E-0002	
 1.85850000000000E+0003	 9.85437433011414E-0002	
 1.86050000000000E+0003	 9.82599756892011E-0002	
 1.86250000000000E+0003	 9.79847080772608E-0002	
 1.86450000000000E+0003	 9.76534404653205E-0002	
 1.86650000000000E+0003	 9.70821728533802E-0002	
 1.86850000000000E+0003	 9.66054052414399E-0002	
 1.87050000000000E+0003	 9.62251376294996E-0002	
 1.87250000000000E+0003	 9.60893700175593E-0002	
 1.87450000000000E+0003	 9.64546024056190E-0002	
 1.87650000000000E+0003	 9.64623347936787E-0002	
 1.87850000000000E+0003	 9.62665671817384E-0002	
 1.88050000000000E+0003	 9.60652995697981E-0002	
 1.88250000000000E+0003	 9.58885319578578E-0002	
 1.88450000000000E+0003	 9.57447643459175E-0002	
 1.88650000000000E+0003	 9.54214967339772E-0002	
 1.88850000000000E+0003	 9.50867291220369E-0002	
 1.89050000000000E+0003	 9.49704615100966E-0002	
 1.89250000000000E+0003	 9.46286938981563E-0002	
 1.89450000000000E+0003	 9.47444262862160E-0002	
 1.89650000000000E+0003	 9.47251586742757E-0002	
 1.89850000000000E+0003	 9.45163910623354E-0002	
 1.90050000000000E+0003	 9.44696234503951E-0002	
 1.90250000000000E+0003	 9.43873558384548E-0002	
 1.90450000000000E+0003	 9.42430882265145E-0002	
 1.90650000000000E+0003	 9.40803206145742E-0002	
 1.90850000000000E+0003	 9.39315530026339E-0002	
 1.91050000000000E+0003	 9.38177853906936E-0002	
 1.91250000000000E+0003	 9.36350177787533E-0002	
 1.91450000000000E+0003	 9.35007501668130E-0002	
 1.91650000000000E+0003	 9.31649825548727E-0002	
 1.91850000000000E+0003	 9.31737149429324E-0002	
 1.92050000000000E+0003	 9.28269473309921E-0002	
 1.92250000000000E+0003	 9.29006797190518E-0002	
 1.92450000000000E+0003	 9.29914121071115E-0002	
 1.92650000000000E+0003	 9.28541444951712E-0002	
 1.92850000000000E+0003	 9.29833768832309E-0002	
 1.93050000000000E+0003	 9.29676092712906E-0002	
 1.93250000000000E+0003	 9.28828416593503E-0002	
 1.93450000000000E+0003	 9.28215740474100E-0002	
 1.93650000000000E+0003	 9.27508064354697E-0002	
 1.93850000000000E+0003	 9.26965388235294E-0002	
 1.94050000000000E+0003	 9.24767712115891E-0002	
 1.94250000000000E+0003	 9.24465035996488E-0002	
 1.94450000000000E+0003	 9.22542359877085E-0002	
 1.94650000000000E+0003	 9.22399683757682E-0002	
 1.94850000000000E+0003	 9.24182007638279E-0002	
 1.95050000000000E+0003	 9.24419331518876E-0002	
 1.95250000000000E+0003	 9.24396655399473E-0002	
 1.95450000000000E+0003	 9.24223979280070E-0002	
 1.95650000000000E+0003	 9.23831303160667E-0002	
 1.95850000000000E+0003	 9.23458627041264E-0002	
 1.96050000000000E+0003	 9.23480950921861E-0002	
 1.96250000000000E+0003	 9.23413274802458E-0002	
 1.96450000000000E+0003	 9.22525598683055E-0002	
 1.96650000000000E+0003	 9.22417922563652E-0002	
 1.96850000000000E+0003	 9.21880246444249E-0002	
 1.97050000000000E+0003	 9.21057570324846E-0002	
 1.97250000000000E+0003	 9.22079894205443E-0002	
 1.97450000000000E+0003	 9.22522218086040E-0002	
 1.97650000000000E+0003	 9.22399541966637E-0002	
 1.97850000000000E+0003	 9.22406865847234E-0002	
 1.98050000000000E+0003	 9.22409189727831E-0002	
 1.98250000000000E+0003	 9.22426513608428E-0002	
 1.98450000000000E+0003	 9.22443837489025E-0002	
 1.98650000000000E+0003	 9.22376161369622E-0002	
 1.98850000000000E+0003	 9.22148485250219E-0002	
 1.99050000000000E+0003	 9.21060809130817E-0002	
 1.99250000000000E+0003	 9.21463133011414E-0002	
 1.99450000000000E+0003	 9.20895456892011E-0002	
 1.99650000000000E+0003	 9.21697780772608E-0002	
 1.99850000000000E+0003	 9.23290104653205E-0002	
 2.00050000000000E+0003	 9.23472428533802E-0002	
 2.00250000000000E+0003	 9.23694752414399E-0002	
 2.00450000000000E+0003	 9.24082076294996E-0002	
 2.00650000000000E+0003	 9.24454400175593E-0002	
 2.00850000000000E+0003	 9.24826724056190E-0002	
 2.01050000000000E+0003	 9.25154047936787E-0002	
 2.01250000000000E+0003	 9.25516371817384E-0002	
 2.01450000000000E+0003	 9.25623695697981E-0002	
 2.01650000000000E+0003	 9.26046019578578E-0002	
 2.01850000000000E+0003	 9.26303343459175E-0002	
 2.02050000000000E+0003	 9.26290667339772E-0002	
 2.02250000000000E+0003	 9.27472991220369E-0002	
 2.02450000000000E+0003	 9.28315315100966E-0002	
 2.02650000000000E+0003	 9.28877638981563E-0002	
 2.02850000000000E+0003	 9.29454962862160E-0002	
 2.03050000000000E+0003	 9.30057286742757E-0002	
 2.03250000000000E+0003	 9.30534610623354E-0002	
 2.03450000000000E+0003	 9.31021934503951E-0002	
 2.03650000000000E+0003	 9.31524258384548E-0002	
 2.03850000000000E+0003	 9.31921582265145E-0002	
 2.04050000000000E+0003	 9.32308906145742E-0002	
 2.04250000000000E+0003	 9.32721230026339E-0002	
 2.04450000000000E+0003	 9.32878553906936E-0002	
 2.04650000000000E+0003	 9.33545877787533E-0002	
 2.04850000000000E+0003	 9.34093201668130E-0002	
 2.05050000000000E+0003	 9.34565525548727E-0002	
 2.05250000000000E+0003	 9.34947849429324E-0002	
 2.05450000000000E+0003	 9.35315173309921E-0002	
 2.05650000000000E+0003	 9.35632497190518E-0002	
 2.05850000000000E+0003	 9.36014821071115E-0002	
 2.06050000000000E+0003	 9.36337144951712E-0002	
 2.06250000000000E+0003	 9.36409468832309E-0002	
 2.06450000000000E+0003	 9.36621792712906E-0002	
 2.06650000000000E+0003	 9.36769116593503E-0002	
 2.06850000000000E+0003	 9.36716440474100E-0002	
 2.07050000000000E+0003	 9.37408764354697E-0002	
 2.07250000000000E+0003	 9.37751088235294E-0002	
 2.07450000000000E+0003	 9.38008412115891E-0002	
 2.07650000000000E+0003	 9.38160735996488E-0002	
 2.07850000000000E+0003	 9.38403059877085E-0002	
 2.08050000000000E+0003	 9.38585383757682E-0002	
 2.08250000000000E+0003	 9.38782707638279E-0002	
 2.08450000000000E+0003	 9.38895031518876E-0002	
 2.08650000000000E+0003	 9.39047355399473E-0002	
 2.08850000000000E+0003	 9.39159679280070E-0002	
 2.09050000000000E+0003	 9.39297003160667E-0002	
 2.09250000000000E+0003	 9.39204327041264E-0002	
 2.09450000000000E+0003	 9.39356650921861E-0002	
 2.09650000000000E+0003	 9.39613974802458E-0002	
 2.09850000000000E+0003	 9.39701298683055E-0002	
 2.10050000000000E+0003	 9.39708622563652E-0002	
 2.10250000000000E+0003	 9.39725946444249E-0002	
 2.10450000000000E+0003	 9.39713270324846E-0002	
 2.10650000000000E+0003	 9.39720594205443E-0002	
 2.10850000000000E+0003	 9.39707918086040E-0002	
 2.11050000000000E+0003	 9.39670241966637E-0002	
 2.11250000000000E+0003	 9.39547565847234E-0002	
 2.11450000000000E+0003	 9.39424889727831E-0002	
 2.11650000000000E+0003	 9.39212213608428E-0002	
 2.11850000000000E+0003	 9.39034537489025E-0002	
 2.12050000000000E+0003	 9.38941861369622E-0002	
 2.12250000000000E+0003	 9.38779185250219E-0002	
 2.12450000000000E+0003	 9.38586509130817E-0002	
 2.12650000000000E+0003	 9.38398833011414E-0002	
 2.12850000000000E+0003	 9.38166156892011E-0002	
 2.13050000000000E+0003	 9.37898480772608E-0002	
 2.13250000000000E+0003	 9.37600804653205E-0002	
 2.13450000000000E+0003	 9.37308128533802E-0002	
 2.13650000000000E+0003	 9.36990452414399E-0002	
 2.13850000000000E+0003	 9.36612776294996E-0002	
 2.14050000000000E+0003	 9.36270100175593E-0002	
 2.14250000000000E+0003	 9.35957424056190E-0002	
 2.14450000000000E+0003	 9.35579747936787E-0002	
 2.14650000000000E+0003	 9.35117071817384E-0002	
 2.14850000000000E+0003	 9.34594395697981E-0002	
 2.15050000000000E+0003	 9.34046719578578E-0002	
 2.15250000000000E+0003	 9.33474043459175E-0002	
 2.15450000000000E+0003	 9.32881367339772E-0002	
 2.15650000000000E+0003	 9.32253691220369E-0002	
 2.15850000000000E+0003	 9.31596015100966E-0002	
 2.16050000000000E+0003	 9.30923338981563E-0002	
 2.16250000000000E+0003	 9.30215662862160E-0002	
 2.16450000000000E+0003	 9.29462986742757E-0002	
 2.16650000000000E+0003	 9.28770310623354E-0002	
 2.16850000000000E+0003	 9.28157634503951E-0002	
 2.17050000000000E+0003	 9.27429958384548E-0002	
 2.17250000000000E+0003	 9.26542282265145E-0002	
 2.17450000000000E+0003	 9.25714606145742E-0002	
 2.17650000000000E+0003	 9.24981930026339E-0002	
 2.17850000000000E+0003	 9.24244253906936E-0002	
 2.18050000000000E+0003	 9.23501577787533E-0002	
 2.18250000000000E+0003	 9.22728901668130E-0002	
 2.18450000000000E+0003	 9.21936225548727E-0002	
 2.18650000000000E+0003	 9.21158549429324E-0002	
 2.18850000000000E+0003	 9.20380873309921E-0002	
 2.19050000000000E+0003	 9.19653197190518E-0002	
 2.19250000000000E+0003	 9.18900521071115E-0002	
 2.19450000000000E+0003	 9.18147844951712E-0002	
 2.19650000000000E+0003	 9.17435168832309E-0002	
 2.19850000000000E+0003	 9.16732492712906E-0002	
 2.20050000000000E+0003	 9.15999816593503E-0002	
 2.20250000000000E+0003	 9.15262140474100E-0002	
 2.20450000000000E+0003	 9.14539464354697E-0002	
 2.20650000000000E+0003	 9.13861788235294E-0002	
 2.20850000000000E+0003	 9.13219112115891E-0002	
 2.21050000000000E+0003	 9.12611435996488E-0002	
 2.21250000000000E+0003	 9.12008759877085E-0002	
 2.21450000000000E+0003	 9.11406083757682E-0002	
 2.21650000000000E+0003	 9.10818407638279E-0002	
 2.21850000000000E+0003	 9.10275731518876E-0002	
 2.22050000000000E+0003	 9.09698055399473E-0002	
 2.22250000000000E+0003	 9.09115379280070E-0002	
 2.22450000000000E+0003	 9.08527703160667E-0002	
 2.22650000000000E+0003	 9.07955027041264E-0002	
 2.22850000000000E+0003	 9.07377350921861E-0002	
 2.23050000000000E+0003	 9.06824674802458E-0002	
 2.23250000000000E+0003	 9.06256998683055E-0002	
 2.23450000000000E+0003	 9.05744322563652E-0002	
 2.23650000000000E+0003	 9.05211646444249E-0002	
 2.23850000000000E+0003	 9.04688970324846E-0002	
 2.24050000000000E+0003	 9.04201294205443E-0002	
 2.24250000000000E+0003	 9.03783618086040E-0002	
 2.24450000000000E+0003	 9.03350941966637E-0002	
 2.24650000000000E+0003	 9.02968265847234E-0002	
 2.24850000000000E+0003	 9.02585589727831E-0002	
 2.25050000000000E+0003	 9.02237913608428E-0002	
 2.25250000000000E+0003	 9.01870237489025E-0002	
 2.25450000000000E+0003	 9.01542561369622E-0002	
 2.25650000000000E+0003	 9.01204885250219E-0002	
 2.25850000000000E+0003	 9.00967209130817E-0002	
 2.26050000000000E+0003	 9.00744533011414E-0002	
 2.26250000000000E+0003	 9.00521856892011E-0002	
 2.26450000000000E+0003	 9.00244180772608E-0002	
 2.26650000000000E+0003	 9.00041504653205E-0002	
 2.26850000000000E+0003	 8.99843828533802E-0002	
 2.27050000000000E+0003	 8.99666152414399E-0002	
 2.27250000000000E+0003	 8.99433476294996E-0002	
 2.27450000000000E+0003	 8.99110800175593E-0002	
 2.27650000000000E+0003	 8.98618124056190E-0002	
 2.27850000000000E+0003	 8.98120447936787E-0002	
 2.28050000000000E+0003	 8.97552771817384E-0002	
 2.28250000000000E+0003	 8.97055095697981E-0002	
 2.28450000000000E+0003	 8.96592419578578E-0002	
 2.28650000000000E+0003	 8.95994743459175E-0002	
 2.28850000000000E+0003	 8.95102067339772E-0002	
 2.29050000000000E+0003	 8.94044391220369E-0002	
 2.29250000000000E+0003	 8.92716715100966E-0002	
 2.29450000000000E+0003	 8.91264038981563E-0002	
 2.29650000000000E+0003	 8.89946362862160E-0002	
 2.29850000000000E+0003	 8.89158686742757E-0002	
 2.30050000000000E+0003	 8.89086010623354E-0002	
 2.30250000000000E+0003	 8.90068334503951E-0002	
 2.30450000000000E+0003	 8.91130658384548E-0002	
 2.30650000000000E+0003	 8.91517982265145E-0002	
 2.30850000000000E+0003	 8.92110306145742E-0002	
 2.31050000000000E+0003	 8.93742630026339E-0002	
 2.31250000000000E+0003	 8.96164953906936E-0002	
 2.31450000000000E+0003	 8.97437277787533E-0002	
 2.31650000000000E+0003	 8.96444601668130E-0002	
 2.31850000000000E+0003	 8.94996925548727E-0002	
 2.32050000000000E+0003	 8.92939249429324E-0002	
 2.32250000000000E+0003	 8.90501573309921E-0002	
 2.32450000000000E+0003	 8.89758897190518E-0002	
 2.32650000000000E+0003	 8.91176221071115E-0002	
 2.32850000000000E+0003	 8.93608544951712E-0002	
 2.33050000000000E+0003	 8.95270868832309E-0002	
 2.33250000000000E+0003	 8.96918192712906E-0002	
 2.33450000000000E+0003	 9.00025516593503E-0002	
 2.33650000000000E+0003	 9.02737840474100E-0002	
 2.33850000000000E+0003	 9.03240164354697E-0002	
 2.34050000000000E+0003	 9.01382488235294E-0002	
 2.34250000000000E+0003	 8.99394812115891E-0002	
 2.34450000000000E+0003	 9.01217135996488E-0002	
 2.34650000000000E+0003	 9.02834459877085E-0002	
 2.34850000000000E+0003	 9.02751783757682E-0002	
 2.35050000000000E+0003	 9.06679107638279E-0002	
 2.35250000000000E+0003	 9.10306431518876E-0002	
 2.35450000000000E+0003	 9.07763755399473E-0002	
 2.35650000000000E+0003	 9.04941079280070E-0002	
 2.35850000000000E+0003	 9.05788403160667E-0002	
 2.36050000000000E+0003	 9.08715727041264E-0002	
 2.36250000000000E+0003	 9.10348050921861E-0002	
 2.36450000000000E+0003	 9.09435374802458E-0002	
 2.36650000000000E+0003	 9.08037698683055E-0002	
 2.36850000000000E+0003	 9.07215022563652E-0002	
 2.37050000000000E+0003	 9.09082346444249E-0002	
 2.37250000000000E+0003	 9.15299670324846E-0002	
 2.37450000000000E+0003	 9.22796994205443E-0002	
 2.37650000000000E+0003	 9.23949318086040E-0002	
 2.37850000000000E+0003	 9.16601641966637E-0002	
 2.38050000000000E+0003	 9.07198965847234E-0002	
 2.38250000000000E+0003	 9.02811289727831E-0002	
 2.38450000000000E+0003	 9.04183613608428E-0002	
 2.38650000000000E+0003	 9.08000937489025E-0002	
 2.38850000000000E+0003	 9.11408261369622E-0002	
 2.39050000000000E+0003	 9.13660585250219E-0002	
 2.39250000000000E+0003	 9.15067909130817E-0002	
 2.39450000000000E+0003	 9.16060233011414E-0002	
 2.39650000000000E+0003	 9.16942556892011E-0002	
 2.39850000000000E+0003	 9.17894880772608E-0002	
 2.40050000000000E+0003	 9.18867204653205E-0002	
 2.40250000000000E+0003	 9.19844528533802E-0002	
 2.40450000000000E+0003	 9.20826852414399E-0002	
 2.40650000000000E+0003	 9.21839176294996E-0002	
 2.40850000000000E+0003	 9.22876500175593E-0002	
 2.41050000000000E+0003	 9.23938824056190E-0002	
 2.41250000000000E+0003	 9.25046147936787E-0002	
 2.41450000000000E+0003	 9.26198471817384E-0002	
 2.41650000000000E+0003	 9.27350795697981E-0002	
 2.41850000000000E+0003	 9.28513119578578E-0002	
 2.42050000000000E+0003	 9.29745443459175E-0002	
 2.42250000000000E+0003	 9.31022767339772E-0002	
 2.42450000000000E+0003	 9.32340091220369E-0002	
 2.42650000000000E+0003	 9.33677415100966E-0002	
 2.42850000000000E+0003	 9.35044738981563E-0002	
 2.43050000000000E+0003	 9.36432062862160E-0002	
 2.43250000000000E+0003	 9.37854386742757E-0002	
 2.43450000000000E+0003	 9.39271710623354E-0002	
 2.43650000000000E+0003	 9.40714034503951E-0002	
 2.43850000000000E+0003	 9.42191358384548E-0002	
 2.44050000000000E+0003	 9.43703682265145E-0002	
 2.44250000000000E+0003	 9.45206006145742E-0002	
 2.44450000000000E+0003	 9.46713330026339E-0002	
 2.44650000000000E+0003	 9.48185653906936E-0002	
 2.44850000000000E+0003	 9.49702977787533E-0002	
 2.45050000000000E+0003	 9.51230301668130E-0002	
 2.45250000000000E+0003	 9.52767625548727E-0002	
 2.45450000000000E+0003	 9.54319949429324E-0002	
 2.45650000000000E+0003	 9.55897273309921E-0002	
 2.45850000000000E+0003	 9.57474597190518E-0002	
 2.46050000000000E+0003	 9.59111921071115E-0002	
 2.46250000000000E+0003	 9.60794244951712E-0002	
 2.46450000000000E+0003	 9.62576568832309E-0002	
 2.46650000000000E+0003	 9.64363892712906E-0002	
 2.46850000000000E+0003	 9.66156216593503E-0002	
 2.47050000000000E+0003	 9.67958540474100E-0002	
 2.47250000000000E+0003	 9.69830864354697E-0002	
 2.47450000000000E+0003	 9.71738188235294E-0002	
 2.47650000000000E+0003	 9.73675512115891E-0002	
 2.47850000000000E+0003	 9.75622835996488E-0002	
 2.48050000000000E+0003	 9.77625159877085E-0002	
 2.48250000000000E+0003	 9.79587483757682E-0002	
 2.48450000000000E+0003	 9.81569807638279E-0002	
 2.48650000000000E+0003	 9.83577131518876E-0002	
 2.48850000000000E+0003	 9.85639455399473E-0002	
 2.49050000000000E+0003	 9.87716779280070E-0002	
 2.49250000000000E+0003	 9.89844103160667E-0002	
 2.49450000000000E+0003	 9.91991427041264E-0002	
 2.49650000000000E+0003	 9.94173750921861E-0002	
 2.49850000000000E+0003	 9.96371074802458E-0002	
 2.50050000000000E+0003	 9.98593398683055E-0002	
 2.50250000000000E+0003	 1.00079072256365E-0001	
 2.50450000000000E+0003	 1.00305804644425E-0001	
 2.50650000000000E+0003	 1.00534037032485E-0001	
 2.50850000000000E+0003	 1.00754269420544E-0001	
 2.51050000000000E+0003	 1.00967001808604E-0001	
 2.51250000000000E+0003	 1.01183734196664E-0001	
 2.51450000000000E+0003	 1.01396966584723E-0001	
 2.51650000000000E+0003	 1.01604198972783E-0001	
 2.51850000000000E+0003	 1.01806431360843E-0001	
 2.52050000000000E+0003	 1.02007163748903E-0001	
 2.52250000000000E+0003	 1.02202896136962E-0001	
 2.52450000000000E+0003	 1.02396128525022E-0001	
 2.52650000000000E+0003	 1.02585860913082E-0001	
 2.52850000000000E+0003	 1.02770093301141E-0001	
 2.53050000000000E+0003	 1.02949825689201E-0001	
 2.53250000000000E+0003	 1.03132058077261E-0001	
 2.53450000000000E+0003	 1.03310790465320E-0001	
 2.53650000000000E+0003	 1.03482022853380E-0001	
 2.53850000000000E+0003	 1.03643755241440E-0001	
 2.54050000000000E+0003	 1.03805987629500E-0001	
 2.54250000000000E+0003	 1.03967720017559E-0001	
 2.54450000000000E+0003	 1.04124452405619E-0001	
 2.54650000000000E+0003	 1.04274184793679E-0001	
 2.54850000000000E+0003	 1.04421417181738E-0001	
 2.55050000000000E+0003	 1.04563649569798E-0001	
 2.55250000000000E+0003	 1.04703381957858E-0001	
 2.55450000000000E+0003	 1.04841614345917E-0001	
 2.55650000000000E+0003	 1.04980846733977E-0001	
 2.55850000000000E+0003	 1.05118579122037E-0001	
 2.56050000000000E+0003	 1.05253311510097E-0001	
 2.56250000000000E+0003	 1.05386043898156E-0001	
 2.56450000000000E+0003	 1.05517776286216E-0001	
 2.56650000000000E+0003	 1.05651508674276E-0001	
 2.56850000000000E+0003	 1.05788241062335E-0001	
 2.57050000000000E+0003	 1.05931473450395E-0001	
 2.57250000000000E+0003	 1.06082705838455E-0001	
 2.57450000000000E+0003	 1.06241938226514E-0001	
 2.57650000000000E+0003	 1.06405670614574E-0001	
 2.57850000000000E+0003	 1.06575403002634E-0001	
 2.58050000000000E+0003	 1.06752635390694E-0001	
 2.58250000000000E+0003	 1.06933867778753E-0001	
 2.58450000000000E+0003	 1.07119100166813E-0001	
 2.58650000000000E+0003	 1.07313332554873E-0001	
 2.58850000000000E+0003	 1.07515564942932E-0001	
 2.59050000000000E+0003	 1.07725297330992E-0001	
 2.59250000000000E+0003	 1.07939529719052E-0001	
 2.59450000000000E+0003	 1.08157262107112E-0001	
 2.59650000000000E+0003	 1.08376494495171E-0001	
 2.59850000000000E+0003	 1.08604726883231E-0001	
 2.60050000000000E+0003	 1.08840959271291E-0001	
 2.60250000000000E+0003	 1.09079191659350E-0001	
 2.60450000000000E+0003	 1.09316424047410E-0001	
 2.60650000000000E+0003	 1.09558156435470E-0001	
 2.60850000000000E+0003	 1.09797388823529E-0001	
 2.61050000000000E+0003	 1.10032621211589E-0001	
 2.61250000000000E+0003	 1.10265853599649E-0001	
 2.61450000000000E+0003	 1.10500585987709E-0001	
 2.61650000000000E+0003	 1.10732318375768E-0001	
 2.61850000000000E+0003	 1.10963050763828E-0001	
 2.62050000000000E+0003	 1.11192283151888E-0001	
 2.62250000000000E+0003	 1.11425015539947E-0001	
 2.62450000000000E+0003	 1.11655247928007E-0001	
 2.62650000000000E+0003	 1.11882980316067E-0001	
 2.62850000000000E+0003	 1.12109212704126E-0001	
 2.63050000000000E+0003	 1.12337945092186E-0001	
 2.63250000000000E+0003	 1.12562177480246E-0001	
 2.63450000000000E+0003	 1.12788409868306E-0001	
 2.63650000000000E+0003	 1.13017642256365E-0001	
 2.63850000000000E+0003	 1.13244374644425E-0001	
 2.64050000000000E+0003	 1.13459607032485E-0001	
 2.64250000000000E+0003	 1.13675839420544E-0001	
 2.64450000000000E+0003	 1.13897071808604E-0001	
 2.64650000000000E+0003	 1.14122304196664E-0001	
 2.64850000000000E+0003	 1.14347036584723E-0001	
 2.65050000000000E+0003	 1.14574268972783E-0001	
 2.65250000000000E+0003	 1.14801001360843E-0001	
 2.65450000000000E+0003	 1.15029733748903E-0001	
 2.65650000000000E+0003	 1.15255966136962E-0001	
 2.65850000000000E+0003	 1.15484198525022E-0001	
 2.66050000000000E+0003	 1.15712930913082E-0001	
 2.66250000000000E+0003	 1.15944163301141E-0001	
 2.66450000000000E+0003	 1.16175395689201E-0001	
 2.66650000000000E+0003	 1.16415128077261E-0001	
 2.66850000000000E+0003	 1.16658860465320E-0001	
 2.67050000000000E+0003	 1.16906592853380E-0001	
 2.67250000000000E+0003	 1.17160325241440E-0001	
 2.67450000000000E+0003	 1.17416557629500E-0001	
 2.67650000000000E+0003	 1.17677290017559E-0001	
 2.67850000000000E+0003	 1.17942522405619E-0001	
 2.68050000000000E+0003	 1.18195754793679E-0001	
 2.68250000000000E+0003	 1.18437987181738E-0001	
 2.68450000000000E+0003	 1.18680219569798E-0001	
 2.68650000000000E+0003	 1.18936451957858E-0001	
 2.68850000000000E+0003	 1.19198184345917E-0001	
 2.69050000000000E+0003	 1.19462916733977E-0001	
 2.69250000000000E+0003	 1.19733649122037E-0001	
 2.69450000000000E+0003	 1.20006881510097E-0001	
 2.69650000000000E+0003	 1.20281613898156E-0001	
 2.69850000000000E+0003	 1.20566846286216E-0001	
 2.70050000000000E+0003	 1.20859078674276E-0001	
 2.70250000000000E+0003	 1.21155811062335E-0001	
 2.70450000000000E+0003	 1.21462543450395E-0001	
 2.70650000000000E+0003	 1.21786775838455E-0001	
 2.70850000000000E+0003	 1.22127508226514E-0001	
 2.71050000000000E+0003	 1.22469240614574E-0001	
 2.71250000000000E+0003	 1.22811973002634E-0001	
 2.71450000000000E+0003	 1.23172205390694E-0001	
 2.71650000000000E+0003	 1.23547437778753E-0001	
 2.71850000000000E+0003	 1.23930670166813E-0001	
 2.72050000000000E+0003	 1.24318402554873E-0001	
 2.72250000000000E+0003	 1.24705134942932E-0001	
 2.72450000000000E+0003	 1.25086367330992E-0001	
 2.72650000000000E+0003	 1.25456099719052E-0001	
 2.72850000000000E+0003	 1.25794332107112E-0001	
 2.73050000000000E+0003	 1.26124564495171E-0001	
 2.73250000000000E+0003	 1.26466796883231E-0001	
 2.73450000000000E+0003	 1.26806529271291E-0001	
 2.73650000000000E+0003	 1.27140261659350E-0001	
 2.73850000000000E+0003	 1.27455494047410E-0001	
 2.74050000000000E+0003	 1.27753226435470E-0001	
 2.74250000000000E+0003	 1.28048958823529E-0001	
 2.74450000000000E+0003	 1.28344191211589E-0001	
 2.74650000000000E+0003	 1.28647923599649E-0001	
 2.74850000000000E+0003	 1.28949655987709E-0001	
 2.75050000000000E+0003	 1.29224888375768E-0001	
 2.75250000000000E+0003	 1.29489620763828E-0001	
 2.75450000000000E+0003	 1.29775353151888E-0001	
 2.75650000000000E+0003	 1.30079085539947E-0001	
 2.75850000000000E+0003	 1.30378317928007E-0001	
 2.76050000000000E+0003	 1.30680550316067E-0001	
 2.76250000000000E+0003	 1.30993782704126E-0001	
 2.76450000000000E+0003	 1.31317015092186E-0001	
 2.76650000000000E+0003	 1.31644247480246E-0001	
 2.76850000000000E+0003	 1.31978979868306E-0001	
 2.77050000000000E+0003	 1.32321212256365E-0001	
 2.77250000000000E+0003	 1.32679444644425E-0001	
 2.77450000000000E+0003	 1.33050177032485E-0001	
 2.77650000000000E+0003	 1.33397909420544E-0001	
 2.77850000000000E+0003	 1.33728141808604E-0001	
 2.78050000000000E+0003	 1.34086374196664E-0001	
 2.78250000000000E+0003	 1.34463606584723E-0001	
 2.78450000000000E+0003	 1.34852338972783E-0001	
 2.78650000000000E+0003	 1.35265071360843E-0001	
 2.78850000000000E+0003	 1.35709803748903E-0001	
 2.79050000000000E+0003	 1.36135036136962E-0001	
 2.79250000000000E+0003	 1.36533768525022E-0001	
 2.79450000000000E+0003	 1.36950000913082E-0001	
 2.79650000000000E+0003	 1.37402733301141E-0001	
 2.79850000000000E+0003	 1.37861965689201E-0001	
 2.80050000000000E+0003	 1.38295198077261E-0001	
 2.80250000000000E+0003	 1.38731930465320E-0001	
 2.80450000000000E+0003	 1.39201162853380E-0001	
 2.80650000000000E+0003	 1.39684895241440E-0001	
 2.80850000000000E+0003	 1.40193627629500E-0001	
 2.81050000000000E+0003	 1.40708360017559E-0001	
 2.81250000000000E+0003	 1.41203092405619E-0001	
 2.81450000000000E+0003	 1.41705824793679E-0001	
 2.81650000000000E+0003	 1.42232557181738E-0001	
 2.81850000000000E+0003	 1.42777289569798E-0001	
 2.82050000000000E+0003	 1.43342021957858E-0001	
 2.82250000000000E+0003	 1.43921754345917E-0001	
 2.82450000000000E+0003	 1.44516486733977E-0001	
 2.82650000000000E+0003	 1.45128719122037E-0001	
 2.82850000000000E+0003	 1.45773951510097E-0001	
 2.83050000000000E+0003	 1.46459183898156E-0001	
 2.83250000000000E+0003	 1.47191416286216E-0001	
 2.83450000000000E+0003	 1.47978148674276E-0001	
 2.83650000000000E+0003	 1.48842381062335E-0001	
 2.83850000000000E+0003	 1.49817113450395E-0001	
 2.84050000000000E+0003	 1.50870845838455E-0001	
 2.84250000000000E+0003	 1.52096578226514E-0001	
 2.84450000000000E+0003	 1.53656810614574E-0001	
 2.84650000000000E+0003	 1.55571043002634E-0001	
 2.84850000000000E+0003	 1.57716775390694E-0001	
 2.85050000000000E+0003	 1.59865507778753E-0001	
 2.85250000000000E+0003	 1.61771740166813E-0001	
 2.85450000000000E+0003	 1.63201472554873E-0001	
 2.85650000000000E+0003	 1.64093204942932E-0001	
 2.85850000000000E+0003	 1.64628937330992E-0001	
 2.86050000000000E+0003	 1.65055169719052E-0001	
 2.86250000000000E+0003	 1.65562902107112E-0001	
 2.86450000000000E+0003	 1.66308134495171E-0001	
 2.86650000000000E+0003	 1.67314366883231E-0001	
 2.86850000000000E+0003	 1.68503599271291E-0001	
 2.87050000000000E+0003	 1.69774831659350E-0001	
 2.87250000000000E+0003	 1.70981564047410E-0001	
 2.87450000000000E+0003	 1.71859296435470E-0001	
 2.87650000000000E+0003	 1.72335028823529E-0001	
 2.87850000000000E+0003	 1.72615261211589E-0001	
 2.88050000000000E+0003	 1.72832493599649E-0001	
 2.88250000000000E+0003	 1.73062725987709E-0001	
 2.88450000000000E+0003	 1.73381458375768E-0001	
 2.88650000000000E+0003	 1.73826190763828E-0001	
 2.88850000000000E+0003	 1.74405923151888E-0001	
 2.89050000000000E+0003	 1.75109655539947E-0001	
 2.89250000000000E+0003	 1.75914387928007E-0001	
 2.89450000000000E+0003	 1.76811120316067E-0001	
 2.89650000000000E+0003	 1.77743852704126E-0001	
 2.89850000000000E+0003	 1.78669585092186E-0001	
 2.90050000000000E+0003	 1.79646317480246E-0001	
 2.90250000000000E+0003	 1.80713049868306E-0001	
 2.90450000000000E+0003	 1.81870782256365E-0001	
 2.90650000000000E+0003	 1.83144514644425E-0001	
 2.90850000000000E+0003	 1.84609747032485E-0001	
 2.91050000000000E+0003	 1.86327979420544E-0001	
 2.91250000000000E+0003	 1.88314711808604E-0001	
 2.91450000000000E+0003	 1.90481444196664E-0001	
 2.91650000000000E+0003	 1.92719676584723E-0001	
 2.91850000000000E+0003	 1.94992408972783E-0001	
 2.92050000000000E+0003	 1.97184641360843E-0001	
 2.92250000000000E+0003	 1.99166873748903E-0001	
 2.92450000000000E+0003	 2.00816106136962E-0001	
 2.92650000000000E+0003	 2.02080838525022E-0001	
 2.92850000000000E+0003	 2.02994070913082E-0001	
 2.93050000000000E+0003	 2.03511803301141E-0001	
 2.93250000000000E+0003	 2.03618035689201E-0001	
 2.93450000000000E+0003	 2.03462768077261E-0001	
 2.93650000000000E+0003	 2.03081000465320E-0001	
 2.93850000000000E+0003	 2.02468732853380E-0001	
 2.94050000000000E+0003	 2.01705465241440E-0001	
 2.94250000000000E+0003	 2.00937197629500E-0001	
 2.94450000000000E+0003	 2.00213930017559E-0001	
 2.94650000000000E+0003	 1.99577162405619E-0001	
 2.94850000000000E+0003	 1.99148394793679E-0001	
 2.95050000000000E+0003	 1.99091127181738E-0001	
 2.95250000000000E+0003	 1.99410359569798E-0001	
 2.95450000000000E+0003	 1.99880591957858E-0001	
 2.95650000000000E+0003	 2.00385824345917E-0001	
 2.95850000000000E+0003	 2.00835556733977E-0001	
 2.96050000000000E+0003	 2.01062789122037E-0001	
 2.96250000000000E+0003	 2.00937521510097E-0001	
 2.96450000000000E+0003	 2.00389253898156E-0001	
 2.96650000000000E+0003	 1.99465486286216E-0001	
 2.96850000000000E+0003	 1.98248218674276E-0001	
 2.97050000000000E+0003	 1.96898451062335E-0001	
 2.97250000000000E+0003	 1.95620183450395E-0001	
 2.97450000000000E+0003	 1.94419415838455E-0001	
 2.97650000000000E+0003	 1.93236148226514E-0001	
 2.97850000000000E+0003	 1.92146380614574E-0001	
 2.98050000000000E+0003	 1.91144113002634E-0001	
 2.98250000000000E+0003	 1.90144345390694E-0001	
 2.98450000000000E+0003	 1.89188577778753E-0001	
 2.98650000000000E+0003	 1.88347310166813E-0001	
 2.98850000000000E+0003	 1.87631542554873E-0001	
 2.99050000000000E+0003	 1.87061774942932E-0001	
 2.99250000000000E+0003	 1.86602007330992E-0001	
 2.99450000000000E+0003	 1.86180239719052E-0001	
 2.99650000000000E+0003	 1.85903472107112E-0001	
 2.99850000000000E+0003	 1.85790204495171E-0001	
 3.00050000000000E+0003	 1.85762936883231E-0001	
 3.00250000000000E+0003	 1.85865169271291E-0001	
 3.00450000000000E+0003	 1.86065901659350E-0001	
 3.00650000000000E+0003	 1.86316134047410E-0001	
 3.00850000000000E+0003	 1.86664866435470E-0001	
 3.01050000000000E+0003	 1.87144098823529E-0001	
 3.01250000000000E+0003	 1.87654331211589E-0001	
 3.01450000000000E+0003	 1.88096063599649E-0001	
 3.01650000000000E+0003	 1.88509295987709E-0001	
 3.01850000000000E+0003	 1.89009528375768E-0001	
 3.02050000000000E+0003	 1.89625260763828E-0001	
 3.02250000000000E+0003	 1.90349493151888E-0001	
 3.02450000000000E+0003	 1.91181725539947E-0001	
 3.02650000000000E+0003	 1.92038457928007E-0001	
 3.02850000000000E+0003	 1.92933690316067E-0001	
 3.03050000000000E+0003	 1.93904422704126E-0001	
 3.03250000000000E+0003	 1.94915655092186E-0001	
 3.03450000000000E+0003	 1.95911887480246E-0001	
 3.03650000000000E+0003	 1.96840119868306E-0001	
 3.03850000000000E+0003	 1.97812352256365E-0001	
 3.04050000000000E+0003	 1.98932084644425E-0001	
 3.04250000000000E+0003	 2.00077317032485E-0001	
 3.04450000000000E+0003	 2.01152049420544E-0001	
 3.04650000000000E+0003	 2.02191281808604E-0001	
 3.04850000000000E+0003	 2.03278514196664E-0001	
 3.05050000000000E+0003	 2.04441246584723E-0001	
 3.05250000000000E+0003	 2.05582478972783E-0001	
 3.05450000000000E+0003	 2.06695711360843E-0001	
 3.05650000000000E+0003	 2.07806443748903E-0001	
 3.05850000000000E+0003	 2.08855676136962E-0001	
 3.06050000000000E+0003	 2.09869908525022E-0001	
 3.06250000000000E+0003	 2.10886640913082E-0001	
 3.06450000000000E+0003	 2.11880873301141E-0001	
 3.06650000000000E+0003	 2.12822605689201E-0001	
 3.06850000000000E+0003	 2.13655338077261E-0001	
 3.07050000000000E+0003	 2.14377070465320E-0001	
 3.07250000000000E+0003	 2.15090302853380E-0001	
 3.07450000000000E+0003	 2.15834535241440E-0001	
 3.07650000000000E+0003	 2.16627767629500E-0001	
 3.07850000000000E+0003	 2.17411500017559E-0001	
 3.08050000000000E+0003	 2.18077232405619E-0001	
 3.08250000000000E+0003	 2.18650964793679E-0001	
 3.08450000000000E+0003	 2.19214697181738E-0001	
 3.08650000000000E+0003	 2.19740429569798E-0001	
 3.08850000000000E+0003	 2.20265661957858E-0001	
 3.09050000000000E+0003	 2.20801394345917E-0001	
 3.09250000000000E+0003	 2.21282626733977E-0001	
 3.09450000000000E+0003	 2.21750859122037E-0001	
 3.09650000000000E+0003	 2.22272591510097E-0001	
 3.09850000000000E+0003	 2.22840323898156E-0001	
 3.10050000000000E+0003	 2.23409556286216E-0001	
 3.10250000000000E+0003	 2.23927288674276E-0001	
 3.10450000000000E+0003	 2.24473021062335E-0001	
 3.10650000000000E+0003	 2.25127253450395E-0001	
 3.10850000000000E+0003	 2.25854485838455E-0001	
 3.11050000000000E+0003	 2.26539218226514E-0001	
 3.11250000000000E+0003	 2.27253950614574E-0001	
 3.11450000000000E+0003	 2.28131683002634E-0001	
 3.11650000000000E+0003	 2.29087415390694E-0001	
 3.11850000000000E+0003	 2.30004647778753E-0001	
 3.12050000000000E+0003	 2.30876880166813E-0001	
 3.12250000000000E+0003	 2.31690612554873E-0001	
 3.12450000000000E+0003	 2.32563844942932E-0001	
 3.12650000000000E+0003	 2.33585577330992E-0001	
 3.12850000000000E+0003	 2.34712309719052E-0001	
 3.13050000000000E+0003	 2.35856542107112E-0001	
 3.13250000000000E+0003	 2.36994774495171E-0001	
 3.13450000000000E+0003	 2.38181006883231E-0001	
 3.13650000000000E+0003	 2.39469739271291E-0001	
 3.13850000000000E+0003	 2.40840471659350E-0001	
 3.14050000000000E+0003	 2.42144704047410E-0001	
 3.14250000000000E+0003	 2.43380436435470E-0001	
 3.14450000000000E+0003	 2.44705168823529E-0001	
 3.14650000000000E+0003	 2.46122901211589E-0001	
 3.14850000000000E+0003	 2.47614633599649E-0001	
 3.15050000000000E+0003	 2.49233865987709E-0001	
 3.15250000000000E+0003	 2.50882098375768E-0001	
 3.15450000000000E+0003	 2.52359830763828E-0001	
 3.15650000000000E+0003	 2.53798063151888E-0001	
 3.15850000000000E+0003	 2.55350795539947E-0001	
 3.16050000000000E+0003	 2.56990527928007E-0001	
 3.16250000000000E+0003	 2.58667760316067E-0001	
 3.16450000000000E+0003	 2.60368492704126E-0001	
 3.16650000000000E+0003	 2.62086725092186E-0001	
 3.16850000000000E+0003	 2.63819957480246E-0001	
 3.17050000000000E+0003	 2.65566689868306E-0001	
 3.17250000000000E+0003	 2.67326922256365E-0001	
 3.17450000000000E+0003	 2.69088654644425E-0001	
 3.17650000000000E+0003	 2.70863387032485E-0001	
 3.17850000000000E+0003	 2.72637619420544E-0001	
 3.18050000000000E+0003	 2.74387351808604E-0001	
 3.18250000000000E+0003	 2.76119584196664E-0001	
 3.18450000000000E+0003	 2.77855816584723E-0001	
 3.18650000000000E+0003	 2.79580048972783E-0001	
 3.18850000000000E+0003	 2.81280781360843E-0001	
 3.19050000000000E+0003	 2.82948513748903E-0001	
 3.19250000000000E+0003	 2.84595246136962E-0001	
 3.19450000000000E+0003	 2.86219478525022E-0001	
 3.19650000000000E+0003	 2.87819210913082E-0001	
 3.19850000000000E+0003	 2.89392443301141E-0001	
 3.20050000000000E+0003	 2.90938675689201E-0001	
 3.20250000000000E+0003	 2.92456908077261E-0001	
 3.20450000000000E+0003	 2.93965140465320E-0001	
 3.20650000000000E+0003	 2.95466372853380E-0001	
 3.20850000000000E+0003	 2.96942105241440E-0001	
 3.21050000000000E+0003	 2.98399337629500E-0001	
 3.21250000000000E+0003	 2.99861570017559E-0001	
 3.21450000000000E+0003	 3.01322302405619E-0001	
 3.21650000000000E+0003	 3.02774034793679E-0001	
 3.21850000000000E+0003	 3.04235267181738E-0001	
 3.22050000000000E+0003	 3.05685999569798E-0001	
 3.22250000000000E+0003	 3.07125231957858E-0001	
 3.22450000000000E+0003	 3.08605464345917E-0001	
 3.22650000000000E+0003	 3.10125196733977E-0001	
 3.22850000000000E+0003	 3.11672429122037E-0001	
 3.23050000000000E+0003	 3.13297661510097E-0001	
 3.23250000000000E+0003	 3.15017393898156E-0001	
 3.23450000000000E+0003	 3.16630626286216E-0001	
 3.23650000000000E+0003	 3.18110858674276E-0001	
 3.23850000000000E+0003	 3.19672091062335E-0001	
 3.24050000000000E+0003	 3.21352323450395E-0001	
 3.24250000000000E+0003	 3.23095055838455E-0001	
 3.24450000000000E+0003	 3.24913788226514E-0001	
 3.24650000000000E+0003	 3.26768020614574E-0001	
 3.24850000000000E+0003	 3.28545253002634E-0001	
 3.25050000000000E+0003	 3.30292485390694E-0001	
 3.25250000000000E+0003	 3.32134217778753E-0001	
 3.25450000000000E+0003	 3.34069450166813E-0001	
 3.25650000000000E+0003	 3.35993182554873E-0001	
 3.25850000000000E+0003	 3.37865414942932E-0001	
 3.26050000000000E+0003	 3.39754647330992E-0001	
 3.26250000000000E+0003	 3.41661379719052E-0001	
 3.26450000000000E+0003	 3.43569112107112E-0001	
 3.26650000000000E+0003	 3.45478344495171E-0001	
 3.26850000000000E+0003	 3.47420076883231E-0001	
 3.27050000000000E+0003	 3.49342809271291E-0001	
 3.27250000000000E+0003	 3.51081541659350E-0001	
 3.27450000000000E+0003	 3.52659274047410E-0001	
 3.27650000000000E+0003	 3.54168506435470E-0001	
 3.27850000000000E+0003	 3.55605738823529E-0001	
 3.28050000000000E+0003	 3.56998971211589E-0001	
 3.28250000000000E+0003	 3.58335203599649E-0001	
 3.28450000000000E+0003	 3.59598435987709E-0001	
 3.28650000000000E+0003	 3.60778168375768E-0001	
 3.28850000000000E+0003	 3.61908900763828E-0001	
 3.29050000000000E+0003	 3.63028633151888E-0001	
 3.29250000000000E+0003	 3.64070365539947E-0001	
 3.29450000000000E+0003	 3.64959097928007E-0001	
 3.29650000000000E+0003	 3.65738830316067E-0001	
 3.29850000000000E+0003	 3.66440562704126E-0001	
 3.30050000000000E+0003	 3.67126795092186E-0001	
 3.30250000000000E+0003	 3.67870527480246E-0001	
 3.30450000000000E+0003	 3.68685259868306E-0001	
 3.30650000000000E+0003	 3.69413992256365E-0001	
 3.30850000000000E+0003	 3.69955224644425E-0001	
 3.31050000000000E+0003	 3.70387457032485E-0001	
 3.31250000000000E+0003	 3.70837689420544E-0001	
 3.31450000000000E+0003	 3.71353421808604E-0001	
 3.31650000000000E+0003	 3.71908654196664E-0001	
 3.31850000000000E+0003	 3.72473386584723E-0001	
 3.32050000000000E+0003	 3.73053118972783E-0001	
 3.32250000000000E+0003	 3.73677851360843E-0001	
 3.32450000000000E+0003	 3.74359583748903E-0001	
 3.32650000000000E+0003	 3.75002816136962E-0001	
 3.32850000000000E+0003	 3.75579548525022E-0001	
 3.33050000000000E+0003	 3.76195780913082E-0001	
 3.33250000000000E+0003	 3.76882013301141E-0001	
 3.33450000000000E+0003	 3.77616745689201E-0001	
 3.33650000000000E+0003	 3.78426978077261E-0001	
 3.33850000000000E+0003	 3.79247710465320E-0001	
 3.34050000000000E+0003	 3.79980942853380E-0001	
 3.34250000000000E+0003	 3.80694675241440E-0001	
 3.34450000000000E+0003	 3.81428907629500E-0001	
 3.34650000000000E+0003	 3.82187140017559E-0001	
 3.34850000000000E+0003	 3.83071372405619E-0001	
 3.35050000000000E+0003	 3.83998104793679E-0001	
 3.35250000000000E+0003	 3.84769837181738E-0001	
 3.35450000000000E+0003	 3.85471569569798E-0001	
 3.35650000000000E+0003	 3.86264801957858E-0001	
 3.35850000000000E+0003	 3.87141534345917E-0001	
 3.36050000000000E+0003	 3.88032266733977E-0001	
 3.36250000000000E+0003	 3.88874499122037E-0001	
 3.36450000000000E+0003	 3.89773731510097E-0001	
 3.36650000000000E+0003	 3.90793463898156E-0001	
 3.36850000000000E+0003	 3.91782196286216E-0001	
 3.37050000000000E+0003	 3.92536928674276E-0001	
 3.37250000000000E+0003	 3.93140661062335E-0001	
 3.37450000000000E+0003	 3.93846393450395E-0001	
 3.37650000000000E+0003	 3.94673125838455E-0001	
 3.37850000000000E+0003	 3.95497358226514E-0001	
 3.38050000000000E+0003	 3.96290590614574E-0001	
 3.38250000000000E+0003	 3.97037823002634E-0001	
 3.38450000000000E+0003	 3.97788055390694E-0001	
 3.38650000000000E+0003	 3.98576787778753E-0001	
 3.38850000000000E+0003	 3.99463520166813E-0001	
 3.39050000000000E+0003	 4.00457752554873E-0001	
 3.39250000000000E+0003	 4.01274984942932E-0001	
 3.39450000000000E+0003	 4.01814717330992E-0001	
 3.39650000000000E+0003	 4.02418449719052E-0001	
 3.39850000000000E+0003	 4.03302682107112E-0001	
 3.40050000000000E+0003	 4.04196414495171E-0001	
 3.40250000000000E+0003	 4.04670146883231E-0001	
 3.40450000000000E+0003	 4.04931379271291E-0001	
 3.40650000000000E+0003	 4.05383111659350E-0001	
 3.40850000000000E+0003	 4.05977844047410E-0001	
 3.41050000000000E+0003	 4.06514576435470E-0001	
 3.41250000000000E+0003	 4.06966308823529E-0001	
 3.41450000000000E+0003	 4.07291041211589E-0001	
 3.41650000000000E+0003	 4.07545273599649E-0001	
 3.41850000000000E+0003	 4.07845005987709E-0001	
 3.42050000000000E+0003	 4.08133238375768E-0001	
 3.42250000000000E+0003	 4.08324470763828E-0001	
 3.42450000000000E+0003	 4.08488203151888E-0001	
 3.42650000000000E+0003	 4.08704435539947E-0001	
 3.42850000000000E+0003	 4.08939167928007E-0001	
 3.43050000000000E+0003	 4.09052400316067E-0001	
 3.43250000000000E+0003	 4.09097632704126E-0001	
 3.43450000000000E+0003	 4.09217365092186E-0001	
 3.43650000000000E+0003	 4.09185597480246E-0001	
 3.43850000000000E+0003	 4.08836329868306E-0001	
 3.44050000000000E+0003	 4.08408562256365E-0001	
 3.44250000000000E+0003	 4.08110794644425E-0001	
 3.44450000000000E+0003	 4.07892027032485E-0001	
 3.44650000000000E+0003	 4.07626759420544E-0001	
 3.44850000000000E+0003	 4.07240491808604E-0001	
 3.45050000000000E+0003	 4.06790224196664E-0001	
 3.45250000000000E+0003	 4.06353456584723E-0001	
 3.45450000000000E+0003	 4.05894188972783E-0001	
 3.45650000000000E+0003	 4.05426421360843E-0001	
 3.45850000000000E+0003	 4.05013153748903E-0001	
 3.46050000000000E+0003	 4.04520386136962E-0001	
 3.46250000000000E+0003	 4.03857118525022E-0001	
 3.46450000000000E+0003	 4.03313850913082E-0001	
 3.46650000000000E+0003	 4.02974583301141E-0001	
 3.46850000000000E+0003	 4.02436315689201E-0001	
 3.47050000000000E+0003	 4.01405048077261E-0001	
 3.47250000000000E+0003	 4.00215280465320E-0001	
 3.47450000000000E+0003	 3.99219512853380E-0001	
 3.47650000000000E+0003	 3.98421745241440E-0001	
 3.47850000000000E+0003	 3.97732477629500E-0001	
 3.48050000000000E+0003	 3.96848210017559E-0001	
 3.48250000000000E+0003	 3.95683942405619E-0001	
 3.48450000000000E+0003	 3.94620174793679E-0001	
 3.48650000000000E+0003	 3.93671407181738E-0001	
 3.48850000000000E+0003	 3.92587139569798E-0001	
 3.49050000000000E+0003	 3.91418871957858E-0001	
 3.49250000000000E+0003	 3.90332604345917E-0001	
 3.49450000000000E+0003	 3.89298836733977E-0001	
 3.49650000000000E+0003	 3.88234069122037E-0001	
 3.49850000000000E+0003	 3.87084801510097E-0001	
 3.50050000000000E+0003	 3.85981033898156E-0001	
 3.50250000000000E+0003	 3.84847266286216E-0001	
 3.50450000000000E+0003	 3.83391998674276E-0001	
 3.50650000000000E+0003	 3.81846231062335E-0001	
 3.50850000000000E+0003	 3.80467963450395E-0001	
 3.51050000000000E+0003	 3.79177695838455E-0001	
 3.51250000000000E+0003	 3.77935428226514E-0001	
 3.51450000000000E+0003	 3.76587660614574E-0001	
 3.51650000000000E+0003	 3.75087893002634E-0001	
 3.51850000000000E+0003	 3.73614625390694E-0001	
 3.52050000000000E+0003	 3.72299357778753E-0001	
 3.52250000000000E+0003	 3.71121090166813E-0001	
 3.52450000000000E+0003	 3.69739322554873E-0001	
 3.52650000000000E+0003	 3.68025554942932E-0001	
 3.52850000000000E+0003	 3.66278287330992E-0001	
 3.53050000000000E+0003	 3.64637019719052E-0001	
 3.53250000000000E+0003	 3.63102752107112E-0001	
 3.53450000000000E+0003	 3.61686984495171E-0001	
 3.53650000000000E+0003	 3.60174716883231E-0001	
 3.53850000000000E+0003	 3.58418949271291E-0001	
 3.54050000000000E+0003	 3.56792681659350E-0001	
 3.54250000000000E+0003	 3.55440414047410E-0001	
 3.54450000000000E+0003	 3.54013646435470E-0001	
 3.54650000000000E+0003	 3.52118378823529E-0001	
 3.54850000000000E+0003	 3.49941611211589E-0001	
 3.55050000000000E+0003	 3.47945843599649E-0001	
 3.55250000000000E+0003	 3.46012575987709E-0001	
 3.55450000000000E+0003	 3.44005308375768E-0001	
 3.55650000000000E+0003	 3.42076040763828E-0001	
 3.55850000000000E+0003	 3.40240273151888E-0001	
 3.56050000000000E+0003	 3.38426505539947E-0001	
 3.56250000000000E+0003	 3.36541237928007E-0001	
 3.56450000000000E+0003	 3.34625970316067E-0001	
 3.56650000000000E+0003	 3.32671702704126E-0001	
 3.56850000000000E+0003	 3.30500935092186E-0001	
 3.57050000000000E+0003	 3.28174667480246E-0001	
 3.57250000000000E+0003	 3.25896899868306E-0001	
 3.57450000000000E+0003	 3.23670132256365E-0001	
 3.57650000000000E+0003	 3.21467364644425E-0001	
 3.57850000000000E+0003	 3.19315597032485E-0001	
 3.58050000000000E+0003	 3.17275829420544E-0001	
 3.58250000000000E+0003	 3.15340061808604E-0001	
 3.58450000000000E+0003	 3.13395294196664E-0001	
 3.58650000000000E+0003	 3.11079026584723E-0001	
 3.58850000000000E+0003	 3.08363258972783E-0001	
 3.59050000000000E+0003	 3.05789491360843E-0001	
 3.59250000000000E+0003	 3.03437723748903E-0001	
 3.59450000000000E+0003	 3.01003456136962E-0001	
 3.59650000000000E+0003	 2.98579188525022E-0001	
 3.59850000000000E+0003	 2.96253420913082E-0001	
 3.60050000000000E+0003	 2.93813653301141E-0001	
 3.60250000000000E+0003	 2.91293385689201E-0001	
 3.60450000000000E+0003	 2.88891118077261E-0001	
 3.60650000000000E+0003	 2.86487350465320E-0001	
 3.60850000000000E+0003	 2.83929082853380E-0001	
 3.61050000000000E+0003	 2.81262815241440E-0001	
 3.61250000000000E+0003	 2.78696547629500E-0001	
 3.61450000000000E+0003	 2.76218280017559E-0001	
 3.61650000000000E+0003	 2.73690512405619E-0001	
 3.61850000000000E+0003	 2.70989244793679E-0001	
 3.62050000000000E+0003	 2.68214477181738E-0001	
 3.62250000000000E+0003	 2.65613209569798E-0001	
 3.62450000000000E+0003	 2.63189941957858E-0001	
 3.62650000000000E+0003	 2.60661674345917E-0001	
 3.62850000000000E+0003	 2.57690406733977E-0001	
 3.63050000000000E+0003	 2.54575139122037E-0001	
 3.63250000000000E+0003	 2.51974371510097E-0001	
 3.63450000000000E+0003	 2.49509603898156E-0001	
 3.63650000000000E+0003	 2.46849336286216E-0001	
 3.63850000000000E+0003	 2.44197068674276E-0001	
 3.64050000000000E+0003	 2.41625301062335E-0001	
 3.64250000000000E+0003	 2.39205033450395E-0001	
 3.64450000000000E+0003	 2.36957765838455E-0001	
 3.64650000000000E+0003	 2.34787998226514E-0001	
 3.64850000000000E+0003	 2.32320730614574E-0001	
 3.65050000000000E+0003	 2.29560463002634E-0001	
 3.65250000000000E+0003	 2.26852195390694E-0001	
 3.65450000000000E+0003	 2.24395427778753E-0001	
 3.65650000000000E+0003	 2.22042160166813E-0001	
 3.65850000000000E+0003	 2.19751892554873E-0001	
 3.66050000000000E+0003	 2.17561124942932E-0001	
 3.66250000000000E+0003	 2.15313857330992E-0001	
 3.66450000000000E+0003	 2.13182589719052E-0001	
 3.66650000000000E+0003	 2.11256822107112E-0001	
 3.66850000000000E+0003	 2.09339554495171E-0001	
 3.67050000000000E+0003	 2.07412786883231E-0001	
 3.67250000000000E+0003	 2.05609019271291E-0001	
 3.67450000000000E+0003	 2.04006251659350E-0001	
 3.67650000000000E+0003	 2.02244484047410E-0001	
 3.67850000000000E+0003	 2.00455216435470E-0001	
 3.68050000000000E+0003	 1.98955948823529E-0001	
 3.68250000000000E+0003	 1.97559181211589E-0001	
 3.68450000000000E+0003	 1.96290913599649E-0001	
 3.68650000000000E+0003	 1.95253145987709E-0001	
 3.68850000000000E+0003	 1.94104878375768E-0001	
 3.69050000000000E+0003	 1.92559110763828E-0001	
 3.69250000000000E+0003	 1.91211843151888E-0001	
 3.69450000000000E+0003	 1.90137075539947E-0001	
 3.69650000000000E+0003	 1.89170807928007E-0001	
 3.69850000000000E+0003	 1.88193540316067E-0001	
 3.70050000000000E+0003	 1.87262772704126E-0001	
 3.70250000000000E+0003	 1.86429005092186E-0001	
 3.70450000000000E+0003	 1.85650237480246E-0001	
 3.70650000000000E+0003	 1.84944469868306E-0001	
 3.70850000000000E+0003	 1.84275702256365E-0001	
 3.71050000000000E+0003	 1.83590434644425E-0001	
 3.71250000000000E+0003	 1.82971167032485E-0001	
 3.71450000000000E+0003	 1.82302899420544E-0001	
 3.71650000000000E+0003	 1.81685631808604E-0001	
 3.71850000000000E+0003	 1.81176864196664E-0001	
 3.72050000000000E+0003	 1.80681596584723E-0001	
 3.72250000000000E+0003	 1.80217828972783E-0001	
 3.72450000000000E+0003	 1.79721561360843E-0001	
 3.72650000000000E+0003	 1.79259293748903E-0001	
 3.72850000000000E+0003	 1.78776526136962E-0001	
 3.73050000000000E+0003	 1.78420758525022E-0001	
 3.73250000000000E+0003	 1.78167490913082E-0001	
 3.73450000000000E+0003	 1.77855723301141E-0001	
 3.73650000000000E+0003	 1.77644955689201E-0001	
 3.73850000000000E+0003	 1.77290688077261E-0001	
 3.74050000000000E+0003	 1.76720920465320E-0001	
 3.74250000000000E+0003	 1.76118652853380E-0001	
 3.74450000000000E+0003	 1.75835385241440E-0001	
 3.74650000000000E+0003	 1.75514617629500E-0001	
 3.74850000000000E+0003	 1.75164350017559E-0001	
 3.75050000000000E+0003	 1.74854582405619E-0001	
 3.75250000000000E+0003	 1.74515814793679E-0001	
 3.75450000000000E+0003	 1.74082047181738E-0001	
 3.75650000000000E+0003	 1.73685279569798E-0001	
 3.75850000000000E+0003	 1.73395511957858E-0001	
 3.76050000000000E+0003	 1.73131244345917E-0001	
 3.76250000000000E+0003	 1.72771976733977E-0001	
 3.76450000000000E+0003	 1.72487209122037E-0001	
 3.76650000000000E+0003	 1.72277941510097E-0001	
 3.76850000000000E+0003	 1.72021173898156E-0001	
 3.77050000000000E+0003	 1.71758906286216E-0001	
 3.77250000000000E+0003	 1.71423138674276E-0001	
 3.77450000000000E+0003	 1.71138371062335E-0001	
 3.77650000000000E+0003	 1.70965103450395E-0001	
 3.77850000000000E+0003	 1.70868335838455E-0001	
 3.78050000000000E+0003	 1.70689068226514E-0001	
 3.78250000000000E+0003	 1.70355300614574E-0001	
 3.78450000000000E+0003	 1.70080533002634E-0001	
 3.78650000000000E+0003	 1.69882765390694E-0001	
 3.78850000000000E+0003	 1.69676497778753E-0001	
 3.79050000000000E+0003	 1.69505730166813E-0001	
 3.79250000000000E+0003	 1.69353962554873E-0001	
 3.79450000000000E+0003	 1.69213694942932E-0001	
 3.79650000000000E+0003	 1.69164427330992E-0001	
 3.79850000000000E+0003	 1.68951659719052E-0001	
 3.80050000000000E+0003	 1.68740392107112E-0001	
 3.80250000000000E+0003	 1.68707124495171E-0001	
 3.80450000000000E+0003	 1.68501856883231E-0001	
 3.80650000000000E+0003	 1.68305089271291E-0001	
 3.80850000000000E+0003	 1.68124821659350E-0001	
 3.81050000000000E+0003	 1.67959554047410E-0001	
 3.81250000000000E+0003	 1.67833286435470E-0001	
 3.81450000000000E+0003	 1.67757518823529E-0001	
 3.81650000000000E+0003	 1.67785251211589E-0001	
 3.81850000000000E+0003	 1.67589483599649E-0001	
 3.82050000000000E+0003	 1.67458715987709E-0001	
 3.82250000000000E+0003	 1.67438448375768E-0001	
 3.82450000000000E+0003	 1.67236180763828E-0001	
 3.82650000000000E+0003	 1.67112913151888E-0001	
 3.82850000000000E+0003	 1.67034145539947E-0001	
 3.83050000000000E+0003	 1.66914377928007E-0001	
 3.83250000000000E+0003	 1.66827610316067E-0001	
 3.83450000000000E+0003	 1.66749342704126E-0001	
 3.83650000000000E+0003	 1.66677075092186E-0001	
 3.83850000000000E+0003	 1.66607307480246E-0001	
 3.84050000000000E+0003	 1.66536539868306E-0001	
 3.84250000000000E+0003	 1.66504272256365E-0001	
 3.84450000000000E+0003	 1.66462504644425E-0001	
 3.84650000000000E+0003	 1.66391737032485E-0001	
 3.84850000000000E+0003	 1.66321969420544E-0001	
 3.85050000000000E+0003	 1.66145701808604E-0001	
 3.85250000000000E+0003	 1.65732934196664E-0001	
 3.85450000000000E+0003	 1.65468666584723E-0001	
 3.85650000000000E+0003	 1.65575398972783E-0001	
 3.85850000000000E+0003	 1.65788131360843E-0001	
 3.86050000000000E+0003	 1.65870363748903E-0001	
 3.86250000000000E+0003	 1.65743096136962E-0001	
 3.86450000000000E+0003	 1.65721328525022E-0001	
 3.86650000000000E+0003	 1.65687060913082E-0001	
 3.86850000000000E+0003	 1.65607293301141E-0001	
 3.87050000000000E+0003	 1.65616025689201E-0001	
 3.87250000000000E+0003	 1.65499258077261E-0001	
 3.87450000000000E+0003	 1.65480490465320E-0001	
 3.87650000000000E+0003	 1.65484722853380E-0001	
 3.87850000000000E+0003	 1.65400455241440E-0001	
 3.88050000000000E+0003	 1.65474687629500E-0001	
 3.88250000000000E+0003	 1.65527920017559E-0001	
 3.88450000000000E+0003	 1.65559652405619E-0001	
 3.88650000000000E+0003	 1.65613384793679E-0001	
 3.88850000000000E+0003	 1.65364617181738E-0001	
 3.89050000000000E+0003	 1.65104349569798E-0001	
 3.89250000000000E+0003	 1.65090081957858E-0001	
 3.89450000000000E+0003	 1.65172814345917E-0001	
 3.89650000000000E+0003	 1.65191546733977E-0001	
 3.89850000000000E+0003	 1.65280779122037E-0001	
 3.90050000000000E+0003	 1.65486511510097E-0001	
 3.90250000000000E+0003	 1.65486243898156E-0001	
 3.90450000000000E+0003	 1.65249976286216E-0001	
 3.90650000000000E+0003	 1.65104208674276E-0001	
 3.90850000000000E+0003	 1.65068941062335E-0001	
 3.91050000000000E+0003	 1.65056673450395E-0001	
 3.91250000000000E+0003	 1.65076905838455E-0001	
 3.91450000000000E+0003	 1.65146638226514E-0001	
 3.91650000000000E+0003	 1.65283370614574E-0001	
 3.91850000000000E+0003	 1.65358603002634E-0001	
 3.92050000000000E+0003	 1.65297335390694E-0001	
 3.92250000000000E+0003	 1.65191067778753E-0001	
 3.92450000000000E+0003	 1.65146300166813E-0001	
 3.92650000000000E+0003	 1.65162032554873E-0001	
 3.92850000000000E+0003	 1.65197764942932E-0001	
 3.93050000000000E+0003	 1.65293497330992E-0001	
 3.93250000000000E+0003	 1.65445229719052E-0001	
 3.93450000000000E+0003	 1.65433962107112E-0001	
 3.93650000000000E+0003	 1.65310694495171E-0001	
 3.93850000000000E+0003	 1.65246926883231E-0001	
 3.94050000000000E+0003	 1.65242159271291E-0001	
 3.94250000000000E+0003	 1.65289891659350E-0001	
 3.94450000000000E+0003	 1.65375124047410E-0001	
 3.94650000000000E+0003	 1.65426856435470E-0001	
 3.94850000000000E+0003	 1.65431088823529E-0001	
 3.95050000000000E+0003	 1.65382821211589E-0001	
 3.95250000000000E+0003	 1.65341053599649E-0001	
 3.95450000000000E+0003	 1.65338285987709E-0001	
 3.95650000000000E+0003	 1.65361018375768E-0001	
 3.95850000000000E+0003	 1.65388750763828E-0001	
 3.96050000000000E+0003	 1.65428983151888E-0001	
 3.96250000000000E+0003	 1.65466715539947E-0001	
 3.96450000000000E+0003	 1.65475447928007E-0001	
 3.96650000000000E+0003	 1.65469680316067E-0001	
 3.96850000000000E+0003	 1.65483912704126E-0001	
 3.97050000000000E+0003	 1.65506645092186E-0001	
 3.97250000000000E+0003	 1.65534377480246E-0001	
 3.97450000000000E+0003	 1.65582109868306E-0001	
 3.97650000000000E+0003	 1.65631842256365E-0001	
 3.97850000000000E+0003	 1.65642574644425E-0001	
 3.98050000000000E+0003	 1.65650807032485E-0001	
 3.98250000000000E+0003	 1.65697039420544E-0001	
 3.98450000000000E+0003	 1.65743271808604E-0001	
 3.98650000000000E+0003	 1.65743004196664E-0001	
 3.98850000000000E+0003	 1.65736236584723E-0001	
 3.99050000000000E+0003	 1.65752968972783E-0001	
 3.99250000000000E+0003	 1.65777701360843E-0001	
 3.99450000000000E+0003	 1.65796933748903E-0001	
 3.99650000000000E+0003	 1.65819166136962E-0001	
 3.99850000000000E+0003	 1.65838898525022E-0001	

>1	DATALINE
