*CPCWIN*

>1	DATALINE
DATALINE
1
Operator:

Description:

Remarks:





15.9.2008
11:33


_x	_y
	
	
UNIT	UNIT
 4.50500000000000E+0002	 1.72479654349442E-0001	
 4.52500000000000E+0002	 1.73428416728625E-0001	
 4.54500000000000E+0002	 1.74511179107807E-0001	
 4.56500000000000E+0002	 1.75019941486989E-0001	
 4.58500000000000E+0002	 1.76096703866171E-0001	
 4.60500000000000E+0002	 1.78298466245353E-0001	
 4.62500000000000E+0002	 1.80165228624535E-0001	
 4.64500000000000E+0002	 1.82022491003717E-0001	
 4.66500000000000E+0002	 1.83087253382900E-0001	
 4.68500000000000E+0002	 1.84095015762082E-0001	
 4.70500000000000E+0002	 1.85063278141264E-0001	
 4.72500000000000E+0002	 1.86098040520446E-0001	
 4.74500000000000E+0002	 1.87917302899628E-0001	
 4.76500000000000E+0002	 1.89787065278810E-0001	
 4.78500000000000E+0002	 1.91327327657993E-0001	
 4.80500000000000E+0002	 1.92839090037175E-0001	
 4.82500000000000E+0002	 1.94106352416357E-0001	
 4.84500000000000E+0002	 1.95388614795539E-0001	
 4.86500000000000E+0002	 1.96935877174721E-0001	
 4.88500000000000E+0002	 1.98740139553903E-0001	
 4.90500000000000E+0002	 2.00105901933086E-0001	
 4.92500000000000E+0002	 2.01725664312268E-0001	
 4.94500000000000E+0002	 2.03755926691450E-0001	
 4.96500000000000E+0002	 2.05589189070632E-0001	
 4.98500000000000E+0002	 2.07123951449814E-0001	
 5.00500000000000E+0002	 2.08273213828996E-0001	
 5.02500000000000E+0002	 2.09376476208178E-0001	
 5.04500000000000E+0002	 2.11200238587361E-0001	
 5.06500000000000E+0002	 2.12769000966543E-0001	
 5.08500000000000E+0002	 2.14266763345725E-0001	
 5.10500000000000E+0002	 2.15854025724907E-0001	
 5.12500000000000E+0002	 2.17483788104089E-0001	
 5.14500000000000E+0002	 2.18933550483271E-0001	
 5.16500000000000E+0002	 2.20290812862454E-0001	
 5.18500000000000E+0002	 2.22121075241636E-0001	
 5.20500000000000E+0002	 2.24565837620818E-0001	
 5.22500000000000E+0002	 2.26761600000000E-0001	
 5.24500000000000E+0002	 2.28504862379182E-0001	
 5.26500000000000E+0002	 2.30953624758364E-0001	
 5.28500000000000E+0002	 2.34594887137546E-0001	
 5.30500000000000E+0002	 2.37657149516729E-0001	
 5.32500000000000E+0002	 2.39172911895911E-0001	
 5.34500000000000E+0002	 2.39449674275093E-0001	
 5.36500000000000E+0002	 2.39139936654275E-0001	
 5.38500000000000E+0002	 2.38475699033457E-0001	
 5.40500000000000E+0002	 2.37616461412639E-0001	
 5.42500000000000E+0002	 2.36587223791822E-0001	
 5.44500000000000E+0002	 2.35519486171004E-0001	
 5.46500000000000E+0002	 2.34507748550186E-0001	
 5.48500000000000E+0002	 2.33755510929368E-0001	
 5.50500000000000E+0002	 2.33236773308550E-0001	
 5.52500000000000E+0002	 2.33022535687732E-0001	
 5.54500000000000E+0002	 2.32830298066914E-0001	
 5.56500000000000E+0002	 2.32729560446097E-0001	
 5.58500000000000E+0002	 2.32720822825279E-0001	
 5.60500000000000E+0002	 2.32858585204461E-0001	
 5.62500000000000E+0002	 2.32954347583643E-0001	
 5.64500000000000E+0002	 2.33041609962825E-0001	
 5.66500000000000E+0002	 2.33071872342007E-0001	
 5.68500000000000E+0002	 2.33187134721190E-0001	
 5.70500000000000E+0002	 2.33387397100372E-0001	
 5.72500000000000E+0002	 2.33631159479554E-0001	
 5.74500000000000E+0002	 2.33588921858736E-0001	
 5.76500000000000E+0002	 2.33534684237918E-0001	
 5.78500000000000E+0002	 2.33507446617100E-0001	
 5.80500000000000E+0002	 2.33057708996283E-0001	
 5.82500000000000E+0002	 2.32383971375465E-0001	
 5.84500000000000E+0002	 2.31784733754647E-0001	
 5.86500000000000E+0002	 2.31440996133829E-0001	
 5.88500000000000E+0002	 2.31330258513011E-0001	
 5.90500000000000E+0002	 2.31221520892193E-0001	
 5.92500000000000E+0002	 2.31454783271375E-0001	
 5.94500000000000E+0002	 2.32027545650558E-0001	
 5.96500000000000E+0002	 2.32523808029740E-0001	
 5.98500000000000E+0002	 2.32836570408922E-0001	
 6.00500000000000E+0002	 2.33163332788104E-0001	
 6.02500000000000E+0002	 2.33716095167286E-0001	
 6.04500000000000E+0002	 2.34313857546468E-0001	
 6.06500000000000E+0002	 2.34913119925651E-0001	
 6.08500000000000E+0002	 2.35489382304833E-0001	
 6.10500000000000E+0002	 2.35998144684015E-0001	
 6.12500000000000E+0002	 2.36421407063197E-0001	
 6.14500000000000E+0002	 2.36623169442379E-0001	
 6.16500000000000E+0002	 2.36590931821561E-0001	
 6.18500000000000E+0002	 2.36419694200743E-0001	
 6.20500000000000E+0002	 2.35981456579926E-0001	
 6.22500000000000E+0002	 2.35380218959108E-0001	
 6.24500000000000E+0002	 2.34730481338290E-0001	
 6.26500000000000E+0002	 2.34224743717472E-0001	
 6.28500000000000E+0002	 2.33911006096654E-0001	
 6.30500000000000E+0002	 2.33576268475836E-0001	
 6.32500000000000E+0002	 2.33218530855019E-0001	
 6.34500000000000E+0002	 2.32925293234201E-0001	
 6.36500000000000E+0002	 2.32901055613383E-0001	
 6.38500000000000E+0002	 2.32985817992565E-0001	
 6.40500000000000E+0002	 2.33045080371747E-0001	
 6.42500000000000E+0002	 2.33019342750929E-0001	
 6.44500000000000E+0002	 2.32872605130112E-0001	
 6.46500000000000E+0002	 2.32666367509294E-0001	
 6.48500000000000E+0002	 2.32368129888476E-0001	
 6.50500000000000E+0002	 2.31132892267658E-0001	
 6.52500000000000E+0002	 2.30826154646840E-0001	
 6.54500000000000E+0002	 2.30649417026022E-0001	
 6.56500000000000E+0002	 2.30570679405204E-0001	
 6.58500000000000E+0002	 2.30446941784387E-0001	
 6.60500000000000E+0002	 2.30399704163569E-0001	
 6.62500000000000E+0002	 2.30315966542751E-0001	
 6.64500000000000E+0002	 2.29913728921933E-0001	
 6.66500000000000E+0002	 2.29198991301115E-0001	
 6.68500000000000E+0002	 2.29002253680297E-0001	
 6.70500000000000E+0002	 2.28961516059480E-0001	
 6.72500000000000E+0002	 2.28636278438662E-0001	
 6.74500000000000E+0002	 2.28142040817844E-0001	
 6.76500000000000E+0002	 2.27538803197026E-0001	
 6.78500000000000E+0002	 2.26962565576208E-0001	
 6.80500000000000E+0002	 2.26390327955390E-0001	
 6.82500000000000E+0002	 2.25824090334572E-0001	
 6.84500000000000E+0002	 2.25353352713755E-0001	
 6.86500000000000E+0002	 2.25046615092937E-0001	
 6.88500000000000E+0002	 2.25494877472119E-0001	
 6.90500000000000E+0002	 2.25190639851301E-0001	
 6.92500000000000E+0002	 2.25009902230483E-0001	
 6.94500000000000E+0002	 2.24896164609665E-0001	
 6.96500000000000E+0002	 2.24893926988848E-0001	
 6.98500000000000E+0002	 2.24964189368030E-0001	
 7.00500000000000E+0002	 2.25005451747212E-0001	
 7.02500000000000E+0002	 2.24765214126394E-0001	
 7.04500000000000E+0002	 2.24254976505576E-0001	
 7.06500000000000E+0002	 2.23538238884758E-0001	
 7.08500000000000E+0002	 2.22640001263941E-0001	
 7.10500000000000E+0002	 2.21588263643123E-0001	
 7.12500000000000E+0002	 2.20493526022305E-0001	
 7.14500000000000E+0002	 2.19360788401487E-0001	
 7.16500000000000E+0002	 2.18296550780669E-0001	
 7.18500000000000E+0002	 2.17312813159851E-0001	
 7.20500000000000E+0002	 2.16476575539033E-0001	
 7.22500000000000E+0002	 2.15557337918216E-0001	
 7.24500000000000E+0002	 2.14408600297398E-0001	
 7.26500000000000E+0002	 2.13093362676580E-0001	
 7.28500000000000E+0002	 2.11710625055762E-0001	
 7.30500000000000E+0002	 2.10347887434944E-0001	
 7.32500000000000E+0002	 2.09124149814126E-0001	
 7.34500000000000E+0002	 2.08030912193309E-0001	
 7.36500000000000E+0002	 2.07071174572491E-0001	
 7.38500000000000E+0002	 2.06182936951673E-0001	
 7.40500000000000E+0002	 2.05393699330855E-0001	
 7.42500000000000E+0002	 2.04692961710037E-0001	
 7.44500000000000E+0002	 2.04100724089219E-0001	
 7.46500000000000E+0002	 2.03572986468401E-0001	
 7.48500000000000E+0002	 2.03067748847584E-0001	
 7.50500000000000E+0002	 2.02470011226766E-0001	
 7.52500000000000E+0002	 2.01777273605948E-0001	
 7.54500000000000E+0002	 2.00963535985130E-0001	
 7.56500000000000E+0002	 2.00035798364312E-0001	
 7.58500000000000E+0002	 1.99001060743494E-0001	
 7.60500000000000E+0002	 1.98023323122677E-0001	
 7.62500000000000E+0002	 1.97173085501859E-0001	
 7.64500000000000E+0002	 1.96377347881041E-0001	
 7.66500000000000E+0002	 1.95404110260223E-0001	
 7.68500000000000E+0002	 1.94217372639405E-0001	
 7.70500000000000E+0002	 1.92977135018587E-0001	
 7.72500000000000E+0002	 1.91974397397770E-0001	
 7.74500000000000E+0002	 1.91375659776952E-0001	
 7.76500000000000E+0002	 1.91398422156134E-0001	
 7.78500000000000E+0002	 1.91843184535316E-0001	
 7.80500000000000E+0002	 1.91818946914498E-0001	
 7.82500000000000E+0002	 1.90869709293680E-0001	
 7.84500000000000E+0002	 1.89674971672862E-0001	
 7.86500000000000E+0002	 1.88712734052045E-0001	
 7.88500000000000E+0002	 1.87944496431227E-0001	
 7.90500000000000E+0002	 1.87319758810409E-0001	
 7.92500000000000E+0002	 1.87090521189591E-0001	
 7.94500000000000E+0002	 1.87370283568773E-0001	
 7.96500000000000E+0002	 1.87828545947955E-0001	
 7.98500000000000E+0002	 1.88143308327138E-0001	
 8.00500000000000E+0002	 1.88412570706320E-0001	
 8.02500000000000E+0002	 1.88554333085502E-0001	
 8.04500000000000E+0002	 1.88369595464684E-0001	
 8.06500000000000E+0002	 1.87636857843866E-0001	
 8.08500000000000E+0002	 1.86497120223048E-0001	
 8.10500000000000E+0002	 1.85179882602230E-0001	
 8.12500000000000E+0002	 1.83933144981413E-0001	
 8.14500000000000E+0002	 1.82771407360595E-0001	
 8.16500000000000E+0002	 1.81753169739777E-0001	
 8.18500000000000E+0002	 1.80816932118959E-0001	
 8.20500000000000E+0002	 1.80079194498141E-0001	
 8.22500000000000E+0002	 1.79529456877323E-0001	
 8.24500000000000E+0002	 1.79206719256506E-0001	
 8.26500000000000E+0002	 1.78928981635688E-0001	
 8.28500000000000E+0002	 1.78690244014870E-0001	
 8.30500000000000E+0002	 1.78450006394052E-0001	
 8.32500000000000E+0002	 1.78320268773234E-0001	
 8.34500000000000E+0002	 1.78241031152416E-0001	
 8.36500000000000E+0002	 1.78261293531599E-0001	
 8.38500000000000E+0002	 1.78265055910781E-0001	
 8.40500000000000E+0002	 1.78286318289963E-0001	
 8.42500000000000E+0002	 1.78277080669145E-0001	
 8.44500000000000E+0002	 1.78351843048327E-0001	
 8.46500000000000E+0002	 1.78524105427509E-0001	
 8.48500000000000E+0002	 1.78921867806691E-0001	
 8.50500000000000E+0002	 1.79506130185874E-0001	
 8.52500000000000E+0002	 1.80343392565056E-0001	
 8.54500000000000E+0002	 1.81303654944238E-0001	
 8.56500000000000E+0002	 1.82324417323420E-0001	
 8.58500000000000E+0002	 1.83193179702602E-0001	
 8.60500000000000E+0002	 1.83790442081784E-0001	
 8.62500000000000E+0002	 1.83929204460967E-0001	
 8.64500000000000E+0002	 1.83628966840149E-0001	
 8.66500000000000E+0002	 1.82940229219331E-0001	
 8.68500000000000E+0002	 1.82182991598513E-0001	
 8.70500000000000E+0002	 1.81610753977695E-0001	
 8.72500000000000E+0002	 1.81084016356877E-0001	
 8.74500000000000E+0002	 1.80092778736059E-0001	
 8.76500000000000E+0002	 1.78913541115242E-0001	
 8.78500000000000E+0002	 1.77865303494424E-0001	
 8.80500000000000E+0002	 1.76959065873606E-0001	
 8.82500000000000E+0002	 1.76064828252788E-0001	
 8.84500000000000E+0002	 1.75179090631970E-0001	
 8.86500000000000E+0002	 1.74294353011152E-0001	
 8.88500000000000E+0002	 1.73550115390335E-0001	
 8.90500000000000E+0002	 1.72982877769517E-0001	
 8.92500000000000E+0002	 1.72647640148699E-0001	
 8.94500000000000E+0002	 1.72483402527881E-0001	
 8.96500000000000E+0002	 1.72440164907063E-0001	
 8.98500000000000E+0002	 1.72404427286245E-0001	
 9.00500000000000E+0002	 1.72411689665428E-0001	
 9.02500000000000E+0002	 1.72514452044610E-0001	
 9.04500000000000E+0002	 1.72892714423792E-0001	
 9.06500000000000E+0002	 1.73592476802974E-0001	
 9.08500000000000E+0002	 1.74573239182156E-0001	
 9.10500000000000E+0002	 1.75604001561338E-0001	
 9.12500000000000E+0002	 1.76467763940520E-0001	
 9.14500000000000E+0002	 1.76903026319703E-0001	
 9.16500000000000E+0002	 1.76800288698885E-0001	
 9.18500000000000E+0002	 1.76183551078067E-0001	
 9.20500000000000E+0002	 1.75313813457249E-0001	
 9.22500000000000E+0002	 1.74490575836431E-0001	
 9.24500000000000E+0002	 1.74012338215613E-0001	
 9.26500000000000E+0002	 1.73954100594796E-0001	
 9.28500000000000E+0002	 1.74328362973978E-0001	
 9.30500000000000E+0002	 1.75015125353160E-0001	
 9.32500000000000E+0002	 1.75919387732342E-0001	
 9.34500000000000E+0002	 1.76902650111524E-0001	
 9.36500000000000E+0002	 1.77916412490706E-0001	
 9.38500000000000E+0002	 1.78868674869888E-0001	
 9.40500000000000E+0002	 1.79667937249071E-0001	
 9.42500000000000E+0002	 1.80233199628253E-0001	
 9.44500000000000E+0002	 1.80514962007435E-0001	
 9.46500000000000E+0002	 1.80389724386617E-0001	
 9.48500000000000E+0002	 1.79914986765799E-0001	
 9.50500000000000E+0002	 1.79234249144981E-0001	
 9.52500000000000E+0002	 1.78615011524164E-0001	
 9.54500000000000E+0002	 1.78383773903346E-0001	
 9.56500000000000E+0002	 1.78795536282528E-0001	
 9.58500000000000E+0002	 1.79833798661710E-0001	
 9.60500000000000E+0002	 1.81410061040892E-0001	
 9.62500000000000E+0002	 1.83361823420074E-0001	
 9.64500000000000E+0002	 1.85524585799257E-0001	
 9.66500000000000E+0002	 1.87705848178439E-0001	
 9.68500000000000E+0002	 1.89852110557621E-0001	
 9.70500000000000E+0002	 1.91979872936803E-0001	
 9.72500000000000E+0002	 1.94332635315985E-0001	
 9.74500000000000E+0002	 1.97278397695167E-0001	
 9.76500000000000E+0002	 2.01332660074349E-0001	
 9.78500000000000E+0002	 2.06912422453532E-0001	
 9.80500000000000E+0002	 2.14219184832714E-0001	
 9.82500000000000E+0002	 2.22961947211896E-0001	
 9.84500000000000E+0002	 2.32411709591078E-0001	
 9.86500000000000E+0002	 2.41481971970260E-0001	
 9.88500000000000E+0002	 2.49176734349442E-0001	
 9.90500000000000E+0002	 2.54675496728625E-0001	
 9.92500000000000E+0002	 2.57574259107807E-0001	
 9.94500000000000E+0002	 2.57856021486989E-0001	
 9.96500000000000E+0002	 2.56054283866171E-0001	
 9.98500000000000E+0002	 2.53056046245353E-0001	
 1.00050000000000E+0003	 2.50036308624535E-0001	
 1.00250000000000E+0003	 2.48010071003717E-0001	
 1.00450000000000E+0003	 2.47751333382900E-0001	
 1.00650000000000E+0003	 2.49502095762082E-0001	
 1.00850000000000E+0003	 2.53096858141264E-0001	
 1.01050000000000E+0003	 2.57864120520446E-0001	
 1.01250000000000E+0003	 2.63101382899628E-0001	
 1.01450000000000E+0003	 2.68159645278810E-0001	
 1.01650000000000E+0003	 2.72796907657993E-0001	
 1.01850000000000E+0003	 2.77100670037175E-0001	
 1.02050000000000E+0003	 2.81588432416357E-0001	
 1.02250000000000E+0003	 2.86748194795539E-0001	
 1.02450000000000E+0003	 2.92850957174721E-0001	
 1.02650000000000E+0003	 2.99486219553903E-0001	
 1.02850000000000E+0003	 3.05922981933086E-0001	
 1.03050000000000E+0003	 3.11299244312268E-0001	
 1.03250000000000E+0003	 3.15253506691450E-0001	
 1.03450000000000E+0003	 3.17938769070632E-0001	
 1.03650000000000E+0003	 3.19824531449814E-0001	
 1.03850000000000E+0003	 3.21293793828996E-0001	
 1.04050000000000E+0003	 3.22904556208178E-0001	
 1.04250000000000E+0003	 3.24995318587361E-0001	
 1.04450000000000E+0003	 3.27748580966543E-0001	
 1.04650000000000E+0003	 3.30936843345725E-0001	
 1.04850000000000E+0003	 3.34176605724907E-0001	
 1.05050000000000E+0003	 3.36765368104089E-0001	
 1.05250000000000E+0003	 3.38333630483271E-0001	
 1.05450000000000E+0003	 3.38980392862454E-0001	
 1.05650000000000E+0003	 3.39238155241636E-0001	
 1.05850000000000E+0003	 3.39335917620818E-0001	
 1.06050000000000E+0003	 3.39234180000000E-0001	
 1.06250000000000E+0003	 3.38849942379182E-0001	
 1.06450000000000E+0003	 3.38545704758364E-0001	
 1.06650000000000E+0003	 3.38810967137546E-0001	
 1.06850000000000E+0003	 3.40053229516729E-0001	
 1.07050000000000E+0003	 3.42178991895911E-0001	
 1.07250000000000E+0003	 3.44917754275093E-0001	
 1.07450000000000E+0003	 3.47699016654275E-0001	
 1.07650000000000E+0003	 3.49946779033457E-0001	
 1.07850000000000E+0003	 3.51109041412639E-0001	
 1.08050000000000E+0003	 3.50930803791822E-0001	
 1.08250000000000E+0003	 3.49404066171004E-0001	
 1.08450000000000E+0003	 3.46872328550186E-0001	
 1.08650000000000E+0003	 3.43639590929368E-0001	
 1.08850000000000E+0003	 3.39987853308550E-0001	
 1.09050000000000E+0003	 3.36078615687732E-0001	
 1.09250000000000E+0003	 3.32210878066914E-0001	
 1.09450000000000E+0003	 3.28555140446097E-0001	
 1.09650000000000E+0003	 3.25347902825279E-0001	
 1.09850000000000E+0003	 3.22692165204461E-0001	
 1.10050000000000E+0003	 3.20560427583643E-0001	
 1.10250000000000E+0003	 3.18686689962825E-0001	
 1.10450000000000E+0003	 3.16880952342007E-0001	
 1.10650000000000E+0003	 3.14998214721190E-0001	
 1.10850000000000E+0003	 3.13139977100372E-0001	
 1.11050000000000E+0003	 3.11334739479554E-0001	
 1.11250000000000E+0003	 3.09551501858736E-0001	
 1.11450000000000E+0003	 3.07466764237918E-0001	
 1.11650000000000E+0003	 3.04792026617100E-0001	
 1.11850000000000E+0003	 3.01290288996283E-0001	
 1.12050000000000E+0003	 2.96972551375465E-0001	
 1.12250000000000E+0003	 2.91891313754647E-0001	
 1.12450000000000E+0003	 2.86290076133829E-0001	
 1.12650000000000E+0003	 2.80362838513011E-0001	
 1.12850000000000E+0003	 2.74381600892193E-0001	
 1.13050000000000E+0003	 2.68515363271375E-0001	
 1.13250000000000E+0003	 2.63076125650558E-0001	
 1.13450000000000E+0003	 2.58266388029740E-0001	
 1.13650000000000E+0003	 2.54403150408922E-0001	
 1.13850000000000E+0003	 2.51737412788104E-0001	
 1.14050000000000E+0003	 2.50507175167286E-0001	
 1.14250000000000E+0003	 2.50622437546468E-0001	
 1.14450000000000E+0003	 2.51768699925651E-0001	
 1.14650000000000E+0003	 2.53210462304833E-0001	
 1.14850000000000E+0003	 2.54176724684015E-0001	
 1.15050000000000E+0003	 2.53912487063197E-0001	
 1.15250000000000E+0003	 2.52145749442379E-0001	
 1.15450000000000E+0003	 2.48908011821561E-0001	
 1.15650000000000E+0003	 2.44652274200743E-0001	
 1.15850000000000E+0003	 2.39886036579926E-0001	
 1.16050000000000E+0003	 2.35127798959108E-0001	
 1.16250000000000E+0003	 2.30619561338290E-0001	
 1.16450000000000E+0003	 2.26574823717472E-0001	
 1.16650000000000E+0003	 2.23028586096654E-0001	
 1.16850000000000E+0003	 2.20062348475836E-0001	
 1.17050000000000E+0003	 2.17576110855019E-0001	
 1.17250000000000E+0003	 2.15456373234201E-0001	
 1.17450000000000E+0003	 2.13485135613383E-0001	
 1.17650000000000E+0003	 2.11669397992565E-0001	
 1.17850000000000E+0003	 2.10097160371747E-0001	
 1.18050000000000E+0003	 2.09008422750929E-0001	
 1.18250000000000E+0003	 2.08465185130112E-0001	
 1.18450000000000E+0003	 2.08596947509294E-0001	
 1.18650000000000E+0003	 2.09494709888476E-0001	
 1.18850000000000E+0003	 2.11241972267658E-0001	
 1.19050000000000E+0003	 2.13767234646840E-0001	
 1.19250000000000E+0003	 2.17051497026022E-0001	
 1.19450000000000E+0003	 2.20988259405204E-0001	
 1.19650000000000E+0003	 2.25474521784387E-0001	
 1.19850000000000E+0003	 2.30323784163569E-0001	
 1.20050000000000E+0003	 2.35413046542751E-0001	
 1.20250000000000E+0003	 2.40536808921933E-0001	
 1.20450000000000E+0003	 2.45589571301115E-0001	
 1.20650000000000E+0003	 2.50469833680297E-0001	
 1.20850000000000E+0003	 2.55192096059480E-0001	
 1.21050000000000E+0003	 2.59759358438662E-0001	
 1.21250000000000E+0003	 2.64375120817844E-0001	
 1.21450000000000E+0003	 2.69173883197026E-0001	
 1.21650000000000E+0003	 2.74529145576208E-0001	
 1.21850000000000E+0003	 2.80801407955390E-0001	
 1.22050000000000E+0003	 2.87149670334572E-0001	
 1.22250000000000E+0003	 2.91673932713755E-0001	
 1.22450000000000E+0003	 2.93986695092937E-0001	
 1.22650000000000E+0003	 2.95286957472119E-0001	
 1.22850000000000E+0003	 2.96606219851301E-0001	
 1.23050000000000E+0003	 2.97803482230483E-0001	
 1.23250000000000E+0003	 2.98401244609665E-0001	
 1.23450000000000E+0003	 2.98061006988848E-0001	
 1.23650000000000E+0003	 2.96774269368030E-0001	
 1.23850000000000E+0003	 2.94555031747212E-0001	
 1.24050000000000E+0003	 2.91598294126394E-0001	
 1.24250000000000E+0003	 2.88126556505576E-0001	
 1.24450000000000E+0003	 2.84472818884758E-0001	
 1.24650000000000E+0003	 2.80784581263941E-0001	
 1.24850000000000E+0003	 2.77136843643123E-0001	
 1.25050000000000E+0003	 2.73477606022305E-0001	
 1.25250000000000E+0003	 2.69814368401487E-0001	
 1.25450000000000E+0003	 2.66103630780669E-0001	
 1.25650000000000E+0003	 2.62412893159851E-0001	
 1.25850000000000E+0003	 2.58714655539033E-0001	
 1.26050000000000E+0003	 2.55085917918216E-0001	
 1.26250000000000E+0003	 2.51568180297398E-0001	
 1.26450000000000E+0003	 2.48173442676580E-0001	
 1.26650000000000E+0003	 2.44911705055762E-0001	
 1.26850000000000E+0003	 2.41934467434944E-0001	
 1.27050000000000E+0003	 2.39275229814126E-0001	
 1.27250000000000E+0003	 2.36991492193309E-0001	
 1.27450000000000E+0003	 2.34985754572491E-0001	
 1.27650000000000E+0003	 2.33199516951673E-0001	
 1.27850000000000E+0003	 2.31596279330855E-0001	
 1.28050000000000E+0003	 2.30193541710037E-0001	
 1.28250000000000E+0003	 2.28844304089219E-0001	
 1.28450000000000E+0003	 2.27463066468401E-0001	
 1.28650000000000E+0003	 2.26058828847584E-0001	
 1.28850000000000E+0003	 2.24870091226766E-0001	
 1.29050000000000E+0003	 2.23995353605948E-0001	
 1.29250000000000E+0003	 2.23345615985130E-0001	
 1.29450000000000E+0003	 2.22823378364312E-0001	
 1.29650000000000E+0003	 2.22538640743494E-0001	
 1.29850000000000E+0003	 2.22564403122677E-0001	
 1.30050000000000E+0003	 2.22848665501859E-0001	
 1.30250000000000E+0003	 2.23231927881041E-0001	
 1.30450000000000E+0003	 2.23652190260223E-0001	
 1.30650000000000E+0003	 2.24043452639405E-0001	
 1.30850000000000E+0003	 2.24483715018587E-0001	
 1.31050000000000E+0003	 2.24892977397770E-0001	
 1.31250000000000E+0003	 2.25237239776952E-0001	
 1.31450000000000E+0003	 2.25619502156134E-0001	
 1.31650000000000E+0003	 2.25967764535316E-0001	
 1.31850000000000E+0003	 2.26149526914498E-0001	
 1.32050000000000E+0003	 2.26380289293680E-0001	
 1.32250000000000E+0003	 2.26543551672862E-0001	
 1.32450000000000E+0003	 2.26520314052045E-0001	
 1.32650000000000E+0003	 2.26376576431227E-0001	
 1.32850000000000E+0003	 2.26249838810409E-0001	
 1.33050000000000E+0003	 2.26128601189591E-0001	
 1.33250000000000E+0003	 2.26021863568773E-0001	
 1.33450000000000E+0003	 2.25620125947955E-0001	
 1.33650000000000E+0003	 2.24722888327138E-0001	
 1.33850000000000E+0003	 2.23730150706320E-0001	
 1.34050000000000E+0003	 2.23583913085502E-0001	
 1.34250000000000E+0003	 2.24068175464684E-0001	
 1.34450000000000E+0003	 2.24213937843866E-0001	
 1.34650000000000E+0003	 2.24216700223048E-0001	
 1.34850000000000E+0003	 2.24836962602230E-0001	
 1.35050000000000E+0003	 2.26392224981413E-0001	
 1.35250000000000E+0003	 2.29066487360595E-0001	
 1.35450000000000E+0003	 2.32631749739777E-0001	
 1.35650000000000E+0003	 2.36649512118959E-0001	
 1.35850000000000E+0003	 2.40202774498141E-0001	
 1.36050000000000E+0003	 2.42936536877323E-0001	
 1.36250000000000E+0003	 2.45850799256506E-0001	
 1.36450000000000E+0003	 2.49781061635688E-0001	
 1.36650000000000E+0003	 2.53476324014870E-0001	
 1.36850000000000E+0003	 2.55577586394052E-0001	
 1.37050000000000E+0003	 2.55842848773234E-0001	
 1.37250000000000E+0003	 2.54758111152416E-0001	
 1.37450000000000E+0003	 2.53083873531599E-0001	
 1.37650000000000E+0003	 2.51880635910781E-0001	
 1.37850000000000E+0003	 2.50703398289963E-0001	
 1.38050000000000E+0003	 2.49564160669145E-0001	
 1.38250000000000E+0003	 2.48838923048327E-0001	
 1.38450000000000E+0003	 2.48222685427509E-0001	
 1.38650000000000E+0003	 2.47580447806691E-0001	
 1.38850000000000E+0003	 2.47625710185874E-0001	
 1.39050000000000E+0003	 2.48341472565056E-0001	
 1.39250000000000E+0003	 2.48823734944238E-0001	
 1.39450000000000E+0003	 2.48908497323420E-0001	
 1.39650000000000E+0003	 2.49524259702602E-0001	
 1.39850000000000E+0003	 2.50947522081784E-0001	
 1.40050000000000E+0003	 2.52281784460967E-0001	
 1.40250000000000E+0003	 2.52995046840149E-0001	
 1.40450000000000E+0003	 2.52815309219331E-0001	
 1.40650000000000E+0003	 2.52488071598513E-0001	
 1.40850000000000E+0003	 2.52269333977695E-0001	
 1.41050000000000E+0003	 2.51615596356877E-0001	
 1.41250000000000E+0003	 2.51058358736059E-0001	
 1.41450000000000E+0003	 2.50181121115242E-0001	
 1.41650000000000E+0003	 2.48732383494424E-0001	
 1.41850000000000E+0003	 2.47711645873606E-0001	
 1.42050000000000E+0003	 2.47032408252788E-0001	
 1.42250000000000E+0003	 2.46262170631970E-0001	
 1.42450000000000E+0003	 2.44611933011152E-0001	
 1.42650000000000E+0003	 2.42591695390335E-0001	
 1.42850000000000E+0003	 2.40601957769517E-0001	
 1.43050000000000E+0003	 2.38644720148699E-0001	
 1.43250000000000E+0003	 2.37280982527881E-0001	
 1.43450000000000E+0003	 2.36500744907063E-0001	
 1.43650000000000E+0003	 2.36465007286245E-0001	
 1.43850000000000E+0003	 2.37753269665428E-0001	
 1.44050000000000E+0003	 2.39664532044610E-0001	
 1.44250000000000E+0003	 2.40700294423792E-0001	
 1.44450000000000E+0003	 2.41148556802974E-0001	
 1.44650000000000E+0003	 2.41436819182156E-0001	
 1.44850000000000E+0003	 2.41956081561338E-0001	
 1.45050000000000E+0003	 2.43063843940520E-0001	
 1.45250000000000E+0003	 2.43430606319703E-0001	
 1.45450000000000E+0003	 2.42861868698885E-0001	
 1.45650000000000E+0003	 2.41751631078067E-0001	
 1.45850000000000E+0003	 2.39928893457249E-0001	
 1.46050000000000E+0003	 2.38939155836431E-0001	
 1.46250000000000E+0003	 2.37205418215613E-0001	
 1.46450000000000E+0003	 2.34044180594796E-0001	
 1.46650000000000E+0003	 2.30375442973978E-0001	
 1.46850000000000E+0003	 2.26924205353160E-0001	
 1.47050000000000E+0003	 2.22876967732342E-0001	
 1.47250000000000E+0003	 2.17570730111524E-0001	
 1.47450000000000E+0003	 2.13019492490706E-0001	
 1.47650000000000E+0003	 2.10675254869888E-0001	
 1.47850000000000E+0003	 2.09310517249071E-0001	
 1.48050000000000E+0003	 2.08330279628253E-0001	
 1.48250000000000E+0003	 2.07473542007435E-0001	
 1.48450000000000E+0003	 2.07015804386617E-0001	
 1.48650000000000E+0003	 2.06560566765799E-0001	
 1.48850000000000E+0003	 2.06405329144981E-0001	
 1.49050000000000E+0003	 2.08303091524164E-0001	
 1.49250000000000E+0003	 2.11740853903346E-0001	
 1.49450000000000E+0003	 2.15541616282528E-0001	
 1.49650000000000E+0003	 2.18757378661710E-0001	
 1.49850000000000E+0003	 2.21940641040892E-0001	
 1.50050000000000E+0003	 2.25396403420074E-0001	
 1.50250000000000E+0003	 2.28755165799257E-0001	
 1.50450000000000E+0003	 2.32497928178439E-0001	
 1.50650000000000E+0003	 2.36220690557621E-0001	
 1.50850000000000E+0003	 2.41385452936803E-0001	
 1.51050000000000E+0003	 2.49334715315985E-0001	
 1.51250000000000E+0003	 2.57342477695167E-0001	
 1.51450000000000E+0003	 2.64433740074349E-0001	
 1.51650000000000E+0003	 2.70689002453532E-0001	
 1.51850000000000E+0003	 2.76195264832714E-0001	
 1.52050000000000E+0003	 2.82079527211896E-0001	
 1.52250000000000E+0003	 2.87796289591078E-0001	
 1.52450000000000E+0003	 2.93805551970260E-0001	
 1.52650000000000E+0003	 3.00209314349442E-0001	
 1.52850000000000E+0003	 3.06702076728625E-0001	
 1.53050000000000E+0003	 3.12445839107807E-0001	
 1.53250000000000E+0003	 3.17837601486989E-0001	
 1.53450000000000E+0003	 3.23036863866171E-0001	
 1.53650000000000E+0003	 3.27895626245353E-0001	
 1.53850000000000E+0003	 3.33008888624535E-0001	
 1.54050000000000E+0003	 3.36388651003717E-0001	
 1.54250000000000E+0003	 3.39384413382900E-0001	
 1.54450000000000E+0003	 3.42616675762082E-0001	
 1.54650000000000E+0003	 3.45034938141264E-0001	
 1.54850000000000E+0003	 3.45456200520446E-0001	
 1.55050000000000E+0003	 3.43328962899628E-0001	
 1.55250000000000E+0003	 3.40500725278810E-0001	
 1.55450000000000E+0003	 3.35437487657993E-0001	
 1.55650000000000E+0003	 3.29867750037175E-0001	
 1.55850000000000E+0003	 3.24612512416357E-0001	
 1.56050000000000E+0003	 3.17725274795539E-0001	
 1.56250000000000E+0003	 3.13856537174721E-0001	
 1.56450000000000E+0003	 3.09955799553903E-0001	
 1.56650000000000E+0003	 3.04930061933086E-0001	
 1.56850000000000E+0003	 3.01109324312268E-0001	
 1.57050000000000E+0003	 2.96755086691450E-0001	
 1.57250000000000E+0003	 2.93244849070632E-0001	
 1.57450000000000E+0003	 2.91364611449814E-0001	
 1.57650000000000E+0003	 2.88312873828996E-0001	
 1.57850000000000E+0003	 2.84851636208178E-0001	
 1.58050000000000E+0003	 2.83234398587361E-0001	
 1.58250000000000E+0003	 2.81572160966543E-0001	
 1.58450000000000E+0003	 2.80487423345725E-0001	
 1.58650000000000E+0003	 2.79908685724907E-0001	
 1.58850000000000E+0003	 2.80113948104089E-0001	
 1.59050000000000E+0003	 2.80933710483271E-0001	
 1.59250000000000E+0003	 2.82638472862454E-0001	
 1.59450000000000E+0003	 2.84926735241636E-0001	
 1.59650000000000E+0003	 2.87872497620818E-0001	
 1.59850000000000E+0003	 2.91212760000000E-0001	
 1.60050000000000E+0003	 2.95113022379182E-0001	
 1.60250000000000E+0003	 2.99514784758364E-0001	
 1.60450000000000E+0003	 3.04784047137546E-0001	
 1.60650000000000E+0003	 3.10694309516729E-0001	
 1.60850000000000E+0003	 3.17652571895911E-0001	
 1.61050000000000E+0003	 3.25641334275093E-0001	
 1.61250000000000E+0003	 3.34184096654275E-0001	
 1.61450000000000E+0003	 3.43582859033457E-0001	
 1.61650000000000E+0003	 3.55199121412639E-0001	
 1.61850000000000E+0003	 3.66757383791822E-0001	
 1.62050000000000E+0003	 3.77776146171004E-0001	
 1.62250000000000E+0003	 3.90137908550186E-0001	
 1.62450000000000E+0003	 4.03384670929368E-0001	
 1.62650000000000E+0003	 4.16160933308550E-0001	
 1.62850000000000E+0003	 4.28613195687732E-0001	
 1.63050000000000E+0003	 4.40041458066914E-0001	
 1.63250000000000E+0003	 4.49602720446097E-0001	
 1.63450000000000E+0003	 4.59131482825279E-0001	
 1.63650000000000E+0003	 4.68226245204461E-0001	
 1.63850000000000E+0003	 4.75871007583643E-0001	
 1.64050000000000E+0003	 4.82106769962825E-0001	
 1.64250000000000E+0003	 4.86844032342007E-0001	
 1.64450000000000E+0003	 4.91066294721190E-0001	
 1.64650000000000E+0003	 4.95477057100372E-0001	
 1.64850000000000E+0003	 4.99194319479554E-0001	
 1.65050000000000E+0003	 5.03711081858736E-0001	
 1.65250000000000E+0003	 5.08995344237918E-0001	
 1.65450000000000E+0003	 5.11127106617100E-0001	
 1.65650000000000E+0003	 5.12216368996283E-0001	
 1.65850000000000E+0003	 5.11165131375465E-0001	
 1.66050000000000E+0003	 5.07621893754647E-0001	
 1.66250000000000E+0003	 5.02224656133829E-0001	
 1.66450000000000E+0003	 4.95001918513011E-0001	
 1.66650000000000E+0003	 4.88025180892193E-0001	
 1.66850000000000E+0003	 4.80636943271375E-0001	
 1.67050000000000E+0003	 4.71950205650558E-0001	
 1.67250000000000E+0003	 4.64565968029740E-0001	
 1.67450000000000E+0003	 4.58147230408922E-0001	
 1.67650000000000E+0003	 4.50039492788104E-0001	
 1.67850000000000E+0003	 4.42838255167286E-0001	
 1.68050000000000E+0003	 4.35185517546468E-0001	
 1.68250000000000E+0003	 4.29009779925651E-0001	
 1.68450000000000E+0003	 4.22506542304833E-0001	
 1.68650000000000E+0003	 4.15791804684015E-0001	
 1.68850000000000E+0003	 4.11299067063197E-0001	
 1.69050000000000E+0003	 4.06697329442379E-0001	
 1.69250000000000E+0003	 4.02250591821561E-0001	
 1.69450000000000E+0003	 3.99248354200743E-0001	
 1.69650000000000E+0003	 3.93993116579926E-0001	
 1.69850000000000E+0003	 3.91131378959108E-0001	
 1.70050000000000E+0003	 3.89393141338290E-0001	
 1.70250000000000E+0003	 3.87178403717472E-0001	
 1.70450000000000E+0003	 3.86315166096654E-0001	
 1.70650000000000E+0003	 3.83739428475836E-0001	
 1.70850000000000E+0003	 3.80103190855019E-0001	
 1.71050000000000E+0003	 3.74810453234201E-0001	
 1.71250000000000E+0003	 3.67298215613383E-0001	
 1.71450000000000E+0003	 3.57801977992565E-0001	
 1.71650000000000E+0003	 3.46341240371747E-0001	
 1.71850000000000E+0003	 3.31624502750929E-0001	
 1.72050000000000E+0003	 3.17674765130112E-0001	
 1.72250000000000E+0003	 3.06031027509294E-0001	
 1.72450000000000E+0003	 2.94701789888476E-0001	
 1.72650000000000E+0003	 2.85458552267658E-0001	
 1.72850000000000E+0003	 2.77863314646840E-0001	
 1.73050000000000E+0003	 2.71319077026022E-0001	
 1.73250000000000E+0003	 2.67701839405204E-0001	
 1.73450000000000E+0003	 2.64318601784387E-0001	
 1.73650000000000E+0003	 2.61772864163569E-0001	
 1.73850000000000E+0003	 2.61521126542751E-0001	
 1.74050000000000E+0003	 2.60562388921933E-0001	
 1.74250000000000E+0003	 2.59799651301115E-0001	
 1.74450000000000E+0003	 2.59253413680297E-0001	
 1.74650000000000E+0003	 2.58383176059480E-0001	
 1.74850000000000E+0003	 2.56708438438662E-0001	
 1.75050000000000E+0003	 2.54725700817844E-0001	
 1.75250000000000E+0003	 2.52139963197026E-0001	
 1.75450000000000E+0003	 2.49088725576208E-0001	
 1.75650000000000E+0003	 2.44794987955390E-0001	
 1.75850000000000E+0003	 2.39533750334572E-0001	
 1.76050000000000E+0003	 2.35238512713755E-0001	
 1.76250000000000E+0003	 2.30407275092937E-0001	
 1.76450000000000E+0003	 2.25922537472119E-0001	
 1.76650000000000E+0003	 2.21976299851301E-0001	
 1.76850000000000E+0003	 2.17415062230483E-0001	
 1.77050000000000E+0003	 2.14611324609665E-0001	
 1.77250000000000E+0003	 2.12173086988848E-0001	
 1.77450000000000E+0003	 2.09392349368030E-0001	
 1.77650000000000E+0003	 2.07551611747212E-0001	
 1.77850000000000E+0003	 2.05770874126394E-0001	
 1.78050000000000E+0003	 2.03855636505576E-0001	
 1.78250000000000E+0003	 2.02131398884758E-0001	
 1.78450000000000E+0003	 2.00807161263941E-0001	
 1.78650000000000E+0003	 1.99472923643123E-0001	
 1.78850000000000E+0003	 1.97877686022305E-0001	
 1.79050000000000E+0003	 1.96451948401487E-0001	
 1.79250000000000E+0003	 1.95239210780669E-0001	
 1.79450000000000E+0003	 1.94304473159851E-0001	
 1.79650000000000E+0003	 1.93567735539033E-0001	
 1.79850000000000E+0003	 1.92668997918216E-0001	
 1.80050000000000E+0003	 1.91395260297398E-0001	
 1.80250000000000E+0003	 1.90624022676580E-0001	
 1.80450000000000E+0003	 1.90396285055762E-0001	
 1.80650000000000E+0003	 1.89784547434944E-0001	
 1.80850000000000E+0003	 1.88827309814126E-0001	
 1.81050000000000E+0003	 1.88055572193309E-0001	
 1.81250000000000E+0003	 1.87376834572491E-0001	
 1.81450000000000E+0003	 1.86988096951673E-0001	
 1.81650000000000E+0003	 1.86338859330855E-0001	
 1.81850000000000E+0003	 1.85721621710037E-0001	
 1.82050000000000E+0003	 1.85020884089219E-0001	
 1.82250000000000E+0003	 1.84087146468401E-0001	
 1.82450000000000E+0003	 1.83118408847584E-0001	
 1.82650000000000E+0003	 1.82224171226766E-0001	
 1.82850000000000E+0003	 1.82144933605948E-0001	
 1.83050000000000E+0003	 1.81703195985130E-0001	
 1.83250000000000E+0003	 1.81457458364312E-0001	
 1.83450000000000E+0003	 1.81438220743494E-0001	
 1.83650000000000E+0003	 1.81021983122677E-0001	
 1.83850000000000E+0003	 1.80499745501859E-0001	
 1.84050000000000E+0003	 1.79559507881041E-0001	
 1.84250000000000E+0003	 1.79065770260223E-0001	
 1.84450000000000E+0003	 1.78507032639405E-0001	
 1.84650000000000E+0003	 1.78175295018587E-0001	
 1.84850000000000E+0003	 1.78427057397770E-0001	
 1.85050000000000E+0003	 1.78489319776952E-0001	
 1.85250000000000E+0003	 1.78368582156134E-0001	
 1.85450000000000E+0003	 1.78059344535316E-0001	
 1.85650000000000E+0003	 1.77691606914498E-0001	
 1.85850000000000E+0003	 1.77334869293680E-0001	
 1.86050000000000E+0003	 1.76993131672862E-0001	
 1.86250000000000E+0003	 1.76694394052045E-0001	
 1.86450000000000E+0003	 1.76090156431227E-0001	
 1.86650000000000E+0003	 1.75427918810409E-0001	
 1.86850000000000E+0003	 1.74990681189591E-0001	
 1.87050000000000E+0003	 1.74987443568773E-0001	
 1.87250000000000E+0003	 1.75440205947955E-0001	
 1.87450000000000E+0003	 1.75593468327138E-0001	
 1.87650000000000E+0003	 1.75386230706320E-0001	
 1.87850000000000E+0003	 1.75195493085502E-0001	
 1.88050000000000E+0003	 1.75005755464684E-0001	
 1.88250000000000E+0003	 1.74877517843866E-0001	
 1.88450000000000E+0003	 1.74605280223048E-0001	
 1.88650000000000E+0003	 1.74237542602230E-0001	
 1.88850000000000E+0003	 1.73982304981413E-0001	
 1.89050000000000E+0003	 1.73768567360595E-0001	
 1.89250000000000E+0003	 1.73842329739777E-0001	
 1.89450000000000E+0003	 1.73890092118959E-0001	
 1.89650000000000E+0003	 1.73779854498141E-0001	
 1.89850000000000E+0003	 1.73852616877323E-0001	
 1.90050000000000E+0003	 1.73795879256506E-0001	
 1.90250000000000E+0003	 1.73699141635688E-0001	
 1.90450000000000E+0003	 1.73536404014870E-0001	
 1.90650000000000E+0003	 1.73330666394052E-0001	
 1.90850000000000E+0003	 1.73146928773234E-0001	
 1.91050000000000E+0003	 1.73104691152416E-0001	
 1.91250000000000E+0003	 1.73135453531599E-0001	
 1.91450000000000E+0003	 1.72904215910781E-0001	
 1.91650000000000E+0003	 1.72733978289963E-0001	
 1.91850000000000E+0003	 1.72474240669145E-0001	
 1.92050000000000E+0003	 1.72380003048327E-0001	
 1.92250000000000E+0003	 1.72492765427509E-0001	
 1.92450000000000E+0003	 1.72587527806691E-0001	
 1.92650000000000E+0003	 1.72913290185874E-0001	
 1.92850000000000E+0003	 1.72980552565056E-0001	
 1.93050000000000E+0003	 1.72953314944238E-0001	
 1.93250000000000E+0003	 1.72916077323420E-0001	
 1.93450000000000E+0003	 1.72906839702602E-0001	
 1.93650000000000E+0003	 1.72902102081784E-0001	
 1.93850000000000E+0003	 1.72703864460967E-0001	
 1.94050000000000E+0003	 1.72450626840149E-0001	
 1.94250000000000E+0003	 1.72271389219331E-0001	
 1.94450000000000E+0003	 1.72416651598513E-0001	
 1.94650000000000E+0003	 1.72753413977695E-0001	
 1.94850000000000E+0003	 1.72844176356877E-0001	
 1.95050000000000E+0003	 1.72874438736059E-0001	
 1.95250000000000E+0003	 1.72835201115242E-0001	
 1.95450000000000E+0003	 1.72784463494424E-0001	
 1.95650000000000E+0003	 1.72751725873606E-0001	
 1.95850000000000E+0003	 1.72827988252788E-0001	
 1.96050000000000E+0003	 1.72888250631970E-0001	
 1.96250000000000E+0003	 1.72787013011152E-0001	
 1.96450000000000E+0003	 1.72638275390335E-0001	
 1.96650000000000E+0003	 1.72527537769517E-0001	
 1.96850000000000E+0003	 1.72571300148699E-0001	
 1.97050000000000E+0003	 1.72797562527881E-0001	
 1.97250000000000E+0003	 1.72903324907063E-0001	
 1.97450000000000E+0003	 1.72921087286245E-0001	
 1.97650000000000E+0003	 1.72940349665428E-0001	
 1.97850000000000E+0003	 1.72961112044610E-0001	
 1.98050000000000E+0003	 1.72991874423792E-0001	
 1.98250000000000E+0003	 1.73023636802974E-0001	
 1.98450000000000E+0003	 1.73012899182156E-0001	
 1.98650000000000E+0003	 1.72955661561338E-0001	
 1.98850000000000E+0003	 1.72793423940520E-0001	
 1.99050000000000E+0003	 1.72733186319703E-0001	
 1.99250000000000E+0003	 1.72789948698885E-0001	
 1.99450000000000E+0003	 1.73071211078067E-0001	
 1.99650000000000E+0003	 1.73332973457249E-0001	
 1.99850000000000E+0003	 1.73402735836431E-0001	
 2.00050000000000E+0003	 1.73460498215613E-0001	
 2.00250000000000E+0003	 1.73533760594796E-0001	
 2.00450000000000E+0003	 1.73592022973978E-0001	
 2.00650000000000E+0003	 1.73653785353160E-0001	
 2.00850000000000E+0003	 1.73717047732342E-0001	
 2.01050000000000E+0003	 1.73808310111524E-0001	
 2.01250000000000E+0003	 1.73848072490706E-0001	
 2.01450000000000E+0003	 1.73825334869888E-0001	
 2.01650000000000E+0003	 1.73791097249071E-0001	
 2.01850000000000E+0003	 1.73901859628253E-0001	
 2.02050000000000E+0003	 1.74145622007435E-0001	
 2.02250000000000E+0003	 1.74307884386617E-0001	
 2.02450000000000E+0003	 1.74404146765799E-0001	
 2.02650000000000E+0003	 1.74502909144981E-0001	
 2.02850000000000E+0003	 1.74603171524164E-0001	
 2.03050000000000E+0003	 1.74711433903346E-0001	
 2.03250000000000E+0003	 1.74783196282528E-0001	
 2.03450000000000E+0003	 1.74870458661710E-0001	
 2.03650000000000E+0003	 1.74940221040892E-0001	
 2.03850000000000E+0003	 1.74981983420074E-0001	
 2.04050000000000E+0003	 1.75005245799257E-0001	
 2.04250000000000E+0003	 1.75094008178439E-0001	
 2.04450000000000E+0003	 1.75233770557621E-0001	
 2.04650000000000E+0003	 1.75348532936803E-0001	
 2.04850000000000E+0003	 1.75432795315985E-0001	
 2.05050000000000E+0003	 1.75516557695167E-0001	
 2.05250000000000E+0003	 1.75585320074349E-0001	
 2.05450000000000E+0003	 1.75662582453532E-0001	
 2.05650000000000E+0003	 1.75727844832714E-0001	
 2.05850000000000E+0003	 1.75795607211896E-0001	
 2.06050000000000E+0003	 1.75815369591078E-0001	
 2.06250000000000E+0003	 1.75807131970260E-0001	
 2.06450000000000E+0003	 1.75803894349442E-0001	
 2.06650000000000E+0003	 1.75885156728625E-0001	
 2.06850000000000E+0003	 1.76025419107807E-0001	
 2.07050000000000E+0003	 1.76111681486989E-0001	
 2.07250000000000E+0003	 1.76150943866171E-0001	
 2.07450000000000E+0003	 1.76192706245353E-0001	
 2.07650000000000E+0003	 1.76224968624535E-0001	
 2.07850000000000E+0003	 1.76282231003717E-0001	
 2.08050000000000E+0003	 1.76321993382900E-0001	
 2.08250000000000E+0003	 1.76367755762082E-0001	
 2.08450000000000E+0003	 1.76395018141264E-0001	
 2.08650000000000E+0003	 1.76413780520446E-0001	
 2.08850000000000E+0003	 1.76414542899628E-0001	
 2.09050000000000E+0003	 1.76451805278810E-0001	
 2.09250000000000E+0003	 1.76518067657993E-0001	
 2.09450000000000E+0003	 1.76582330037175E-0001	
 2.09650000000000E+0003	 1.76615592416357E-0001	
 2.09850000000000E+0003	 1.76645354795539E-0001	
 2.10050000000000E+0003	 1.76665117174721E-0001	
 2.10250000000000E+0003	 1.76679879553903E-0001	
 2.10450000000000E+0003	 1.76695641933086E-0001	
 2.10650000000000E+0003	 1.76709904312268E-0001	
 2.10850000000000E+0003	 1.76723166691450E-0001	
 2.11050000000000E+0003	 1.76725929070632E-0001	
 2.11250000000000E+0003	 1.76719191449814E-0001	
 2.11450000000000E+0003	 1.76704453828996E-0001	
 2.11650000000000E+0003	 1.76709216208178E-0001	
 2.11850000000000E+0003	 1.76716478587361E-0001	
 2.12050000000000E+0003	 1.76707740966543E-0001	
 2.12250000000000E+0003	 1.76694003345725E-0001	
 2.12450000000000E+0003	 1.76686765724907E-0001	
 2.12650000000000E+0003	 1.76677028104089E-0001	
 2.12850000000000E+0003	 1.76664790483271E-0001	
 2.13050000000000E+0003	 1.76651552862454E-0001	
 2.13250000000000E+0003	 1.76626815241636E-0001	
 2.13450000000000E+0003	 1.76600577620818E-0001	
 2.13650000000000E+0003	 1.76573340000000E-0001	
 2.13850000000000E+0003	 1.76557602379182E-0001	
 2.14050000000000E+0003	 1.76534364758364E-0001	
 2.14250000000000E+0003	 1.76507627137546E-0001	
 2.14450000000000E+0003	 1.76460889516729E-0001	
 2.14650000000000E+0003	 1.76421151895911E-0001	
 2.14850000000000E+0003	 1.76372914275093E-0001	
 2.15050000000000E+0003	 1.76325676654275E-0001	
 2.15250000000000E+0003	 1.76265439033457E-0001	
 2.15450000000000E+0003	 1.76210701412639E-0001	
 2.15650000000000E+0003	 1.76137963791822E-0001	
 2.15850000000000E+0003	 1.76059726171004E-0001	
 2.16050000000000E+0003	 1.75972988550186E-0001	
 2.16250000000000E+0003	 1.75891750929368E-0001	
 2.16450000000000E+0003	 1.75803013308550E-0001	
 2.16650000000000E+0003	 1.75717275687732E-0001	
 2.16850000000000E+0003	 1.75632038066914E-0001	
 2.17050000000000E+0003	 1.75540800446097E-0001	
 2.17250000000000E+0003	 1.75428062825279E-0001	
 2.17450000000000E+0003	 1.75321825204461E-0001	
 2.17650000000000E+0003	 1.75219587583643E-0001	
 2.17850000000000E+0003	 1.75122849962825E-0001	
 2.18050000000000E+0003	 1.75024612342007E-0001	
 2.18250000000000E+0003	 1.74931374721190E-0001	
 2.18450000000000E+0003	 1.74832137100372E-0001	
 2.18650000000000E+0003	 1.74738399479554E-0001	
 2.18850000000000E+0003	 1.74644161858736E-0001	
 2.19050000000000E+0003	 1.74551924237918E-0001	
 2.19250000000000E+0003	 1.74450686617100E-0001	
 2.19450000000000E+0003	 1.74357948996283E-0001	
 2.19650000000000E+0003	 1.74265211375465E-0001	
 2.19850000000000E+0003	 1.74173473754647E-0001	
 2.20050000000000E+0003	 1.74079236133829E-0001	
 2.20250000000000E+0003	 1.73992498513011E-0001	
 2.20450000000000E+0003	 1.73900260892193E-0001	
 2.20650000000000E+0003	 1.73813523271375E-0001	
 2.20850000000000E+0003	 1.73726285650558E-0001	
 2.21050000000000E+0003	 1.73648048029740E-0001	
 2.21250000000000E+0003	 1.73568810408922E-0001	
 2.21450000000000E+0003	 1.73490572788104E-0001	
 2.21650000000000E+0003	 1.73406835167286E-0001	
 2.21850000000000E+0003	 1.73331597546468E-0001	
 2.22050000000000E+0003	 1.73252859925651E-0001	
 2.22250000000000E+0003	 1.73172622304833E-0001	
 2.22450000000000E+0003	 1.73086384684015E-0001	
 2.22650000000000E+0003	 1.73011647063197E-0001	
 2.22850000000000E+0003	 1.72936409442379E-0001	
 2.23050000000000E+0003	 1.72866171821561E-0001	
 2.23250000000000E+0003	 1.72792934200743E-0001	
 2.23450000000000E+0003	 1.72722696579926E-0001	
 2.23650000000000E+0003	 1.72652458959108E-0001	
 2.23850000000000E+0003	 1.72594721338290E-0001	
 2.24050000000000E+0003	 1.72530983717472E-0001	
 2.24250000000000E+0003	 1.72468246096654E-0001	
 2.24450000000000E+0003	 1.72409008475836E-0001	
 2.24650000000000E+0003	 1.72360770855019E-0001	
 2.24850000000000E+0003	 1.72309033234201E-0001	
 2.25050000000000E+0003	 1.72267295613383E-0001	
 2.25250000000000E+0003	 1.72229557992565E-0001	
 2.25450000000000E+0003	 1.72199820371747E-0001	
 2.25650000000000E+0003	 1.72173582750929E-0001	
 2.25850000000000E+0003	 1.72155845130112E-0001	
 2.26050000000000E+0003	 1.72143107509294E-0001	
 2.26250000000000E+0003	 1.72142369888476E-0001	
 2.26450000000000E+0003	 1.72140632267658E-0001	
 2.26650000000000E+0003	 1.72134894646840E-0001	
 2.26850000000000E+0003	 1.72117657026022E-0001	
 2.27050000000000E+0003	 1.72098419405204E-0001	
 2.27250000000000E+0003	 1.72060181784387E-0001	
 2.27450000000000E+0003	 1.72006444163569E-0001	
 2.27650000000000E+0003	 1.71930706542751E-0001	
 2.27850000000000E+0003	 1.71837968921933E-0001	
 2.28050000000000E+0003	 1.71713731301115E-0001	
 2.28250000000000E+0003	 1.71535993680297E-0001	
 2.28450000000000E+0003	 1.71315756059480E-0001	
 2.28650000000000E+0003	 1.71182518438662E-0001	
 2.28850000000000E+0003	 1.71124780817844E-0001	
 2.29050000000000E+0003	 1.71070543197026E-0001	
 2.29250000000000E+0003	 1.70981305576208E-0001	
 2.29450000000000E+0003	 1.70872067955390E-0001	
 2.29650000000000E+0003	 1.70742830334572E-0001	
 2.29850000000000E+0003	 1.70614592713755E-0001	
 2.30050000000000E+0003	 1.70503855092937E-0001	
 2.30250000000000E+0003	 1.70362617472119E-0001	
 2.30450000000000E+0003	 1.70084379851301E-0001	
 2.30650000000000E+0003	 1.69854642230483E-0001	
 2.30850000000000E+0003	 1.69740404609665E-0001	
 2.31050000000000E+0003	 1.69650666988848E-0001	
 2.31250000000000E+0003	 1.69570429368030E-0001	
 2.31450000000000E+0003	 1.69282191747212E-0001	
 2.31650000000000E+0003	 1.68503454126394E-0001	
 2.31850000000000E+0003	 1.67826216505576E-0001	
 2.32050000000000E+0003	 1.67826978884758E-0001	
 2.32250000000000E+0003	 1.68228741263941E-0001	
 2.32450000000000E+0003	 1.68631003643123E-0001	
 2.32650000000000E+0003	 1.68618766022305E-0001	
 2.32850000000000E+0003	 1.68374528401487E-0001	
 2.33050000000000E+0003	 1.68902290780669E-0001	
 2.33250000000000E+0003	 1.69778553159851E-0001	
 2.33450000000000E+0003	 1.70037315539033E-0001	
 2.33650000000000E+0003	 1.70086077918216E-0001	
 2.33850000000000E+0003	 1.70340340297398E-0001	
 2.34050000000000E+0003	 1.70702102676580E-0001	
 2.34250000000000E+0003	 1.71428865055762E-0001	
 2.34450000000000E+0003	 1.73147127434944E-0001	
 2.34650000000000E+0003	 1.76135389814126E-0001	
 2.34850000000000E+0003	 1.75906652193309E-0001	
 2.35050000000000E+0003	 1.70927414572491E-0001	
 2.35250000000000E+0003	 1.67212676951673E-0001	
 2.35450000000000E+0003	 1.67186439330855E-0001	
 2.35650000000000E+0003	 1.68480701710037E-0001	
 2.35850000000000E+0003	 1.69846464089219E-0001	
 2.36050000000000E+0003	 1.70896726468401E-0001	
 2.36250000000000E+0003	 1.71404488847584E-0001	
 2.36450000000000E+0003	 1.71636251226766E-0001	
 2.36650000000000E+0003	 1.71671013605948E-0001	
 2.36850000000000E+0003	 1.71625275985130E-0001	
 2.37050000000000E+0003	 1.71796038364312E-0001	
 2.37250000000000E+0003	 1.72427300743494E-0001	
 2.37450000000000E+0003	 1.73412063122677E-0001	
 2.37650000000000E+0003	 1.73221825501859E-0001	
 2.37850000000000E+0003	 1.72441587881041E-0001	
 2.38050000000000E+0003	 1.72131850260223E-0001	
 2.38250000000000E+0003	 1.71942112639405E-0001	
 2.38450000000000E+0003	 1.71879875018587E-0001	
 2.38650000000000E+0003	 1.71913637397770E-0001	
 2.38850000000000E+0003	 1.71992899776952E-0001	
 2.39050000000000E+0003	 1.72076662156134E-0001	
 2.39250000000000E+0003	 1.72149424535316E-0001	
 2.39450000000000E+0003	 1.72217186914498E-0001	
 2.39650000000000E+0003	 1.72287449293680E-0001	
 2.39850000000000E+0003	 1.72351711672862E-0001	
 2.40050000000000E+0003	 1.72406474052045E-0001	
 2.40250000000000E+0003	 1.72437736431227E-0001	
 2.40450000000000E+0003	 1.72448998810409E-0001	
 2.40650000000000E+0003	 1.72453761189591E-0001	
 2.40850000000000E+0003	 1.72454523568773E-0001	
 2.41050000000000E+0003	 1.72451785947955E-0001	
 2.41250000000000E+0003	 1.72451548327138E-0001	
 2.41450000000000E+0003	 1.72454810706320E-0001	
 2.41650000000000E+0003	 1.72456573085502E-0001	
 2.41850000000000E+0003	 1.72455835464684E-0001	
 2.42050000000000E+0003	 1.72455097843866E-0001	
 2.42250000000000E+0003	 1.72453360223048E-0001	
 2.42450000000000E+0003	 1.72451622602230E-0001	
 2.42650000000000E+0003	 1.72454384981413E-0001	
 2.42850000000000E+0003	 1.72459647360595E-0001	
 2.43050000000000E+0003	 1.72458409739777E-0001	
 2.43250000000000E+0003	 1.72447172118959E-0001	
 2.43450000000000E+0003	 1.72448934498141E-0001	
 2.43650000000000E+0003	 1.72459196877323E-0001	
 2.43850000000000E+0003	 1.72463959256506E-0001	
 2.44050000000000E+0003	 1.72466221635688E-0001	
 2.44250000000000E+0003	 1.72472484014870E-0001	
 2.44450000000000E+0003	 1.72470746394052E-0001	
 2.44650000000000E+0003	 1.72466008773234E-0001	
 2.44850000000000E+0003	 1.72464271152416E-0001	
 2.45050000000000E+0003	 1.72464533531599E-0001	
 2.45250000000000E+0003	 1.72460795910781E-0001	
 2.45450000000000E+0003	 1.72459058289963E-0001	
 2.45650000000000E+0003	 1.72450820669145E-0001	
 2.45850000000000E+0003	 1.72447083048327E-0001	
 2.46050000000000E+0003	 1.72447845427509E-0001	
 2.46250000000000E+0003	 1.72454107806691E-0001	
 2.46450000000000E+0003	 1.72454870185874E-0001	
 2.46650000000000E+0003	 1.72462132565056E-0001	
 2.46850000000000E+0003	 1.72474394944238E-0001	
 2.47050000000000E+0003	 1.72492157323420E-0001	
 2.47250000000000E+0003	 1.72507919702602E-0001	
 2.47450000000000E+0003	 1.72527182081784E-0001	
 2.47650000000000E+0003	 1.72549444460967E-0001	
 2.47850000000000E+0003	 1.72575206840149E-0001	
 2.48050000000000E+0003	 1.72607969219331E-0001	
 2.48250000000000E+0003	 1.72647731598513E-0001	
 2.48450000000000E+0003	 1.72684493977695E-0001	
 2.48650000000000E+0003	 1.72718256356877E-0001	
 2.48850000000000E+0003	 1.72753518736059E-0001	
 2.49050000000000E+0003	 1.72795281115242E-0001	
 2.49250000000000E+0003	 1.72834543494424E-0001	
 2.49450000000000E+0003	 1.72875305873606E-0001	
 2.49650000000000E+0003	 1.72917568252788E-0001	
 2.49850000000000E+0003	 1.72963330631970E-0001	
 2.50050000000000E+0003	 1.73007093011152E-0001	
 2.50250000000000E+0003	 1.73053355390335E-0001	
 2.50450000000000E+0003	 1.73104117769517E-0001	
 2.50650000000000E+0003	 1.73158380148699E-0001	
 2.50850000000000E+0003	 1.73205642527881E-0001	
 2.51050000000000E+0003	 1.73248904907063E-0001	
 2.51250000000000E+0003	 1.73292667286245E-0001	
 2.51450000000000E+0003	 1.73335929665428E-0001	
 2.51650000000000E+0003	 1.73377692044610E-0001	
 2.51850000000000E+0003	 1.73425954423792E-0001	
 2.52050000000000E+0003	 1.73466216802974E-0001	
 2.52250000000000E+0003	 1.73501479182156E-0001	
 2.52450000000000E+0003	 1.73535741561338E-0001	
 2.52650000000000E+0003	 1.73568003940520E-0001	
 2.52850000000000E+0003	 1.73595266319703E-0001	
 2.53050000000000E+0003	 1.73620528698885E-0001	
 2.53250000000000E+0003	 1.73644791078067E-0001	
 2.53450000000000E+0003	 1.73669053457249E-0001	
 2.53650000000000E+0003	 1.73691315836431E-0001	
 2.53850000000000E+0003	 1.73711578215613E-0001	
 2.54050000000000E+0003	 1.73721840594796E-0001	
 2.54250000000000E+0003	 1.73730102973978E-0001	
 2.54450000000000E+0003	 1.73733365353160E-0001	
 2.54650000000000E+0003	 1.73733627732342E-0001	
 2.54850000000000E+0003	 1.73726890111524E-0001	
 2.55050000000000E+0003	 1.73722652490706E-0001	
 2.55250000000000E+0003	 1.73719414869888E-0001	
 2.55450000000000E+0003	 1.73717677249071E-0001	
 2.55650000000000E+0003	 1.73711439628253E-0001	
 2.55850000000000E+0003	 1.73701202007435E-0001	
 2.56050000000000E+0003	 1.73688964386617E-0001	
 2.56250000000000E+0003	 1.73686226765799E-0001	
 2.56450000000000E+0003	 1.73679489144981E-0001	
 2.56650000000000E+0003	 1.73671751524164E-0001	
 2.56850000000000E+0003	 1.73666513903346E-0001	
 2.57050000000000E+0003	 1.73671776282528E-0001	
 2.57250000000000E+0003	 1.73687038661710E-0001	
 2.57450000000000E+0003	 1.73707301040892E-0001	
 2.57650000000000E+0003	 1.73733563420074E-0001	
 2.57850000000000E+0003	 1.73768325799257E-0001	
 2.58050000000000E+0003	 1.73809088178439E-0001	
 2.58250000000000E+0003	 1.73857850557621E-0001	
 2.58450000000000E+0003	 1.73913112936803E-0001	
 2.58650000000000E+0003	 1.73976375315985E-0001	
 2.58850000000000E+0003	 1.74046137695167E-0001	
 2.59050000000000E+0003	 1.74123900074349E-0001	
 2.59250000000000E+0003	 1.74204162453532E-0001	
 2.59450000000000E+0003	 1.74289424832714E-0001	
 2.59650000000000E+0003	 1.74370687211896E-0001	
 2.59850000000000E+0003	 1.74452449591078E-0001	
 2.60050000000000E+0003	 1.74538711970260E-0001	
 2.60250000000000E+0003	 1.74629974349442E-0001	
 2.60450000000000E+0003	 1.74727736728625E-0001	
 2.60650000000000E+0003	 1.74833999107807E-0001	
 2.60850000000000E+0003	 1.74932761486989E-0001	
 2.61050000000000E+0003	 1.75028023866171E-0001	
 2.61250000000000E+0003	 1.75127286245353E-0001	
 2.61450000000000E+0003	 1.75224548624535E-0001	
 2.61650000000000E+0003	 1.75316811003717E-0001	
 2.61850000000000E+0003	 1.75419073382900E-0001	
 2.62050000000000E+0003	 1.75521835762082E-0001	
 2.62250000000000E+0003	 1.75627098141264E-0001	
 2.62450000000000E+0003	 1.75734860520446E-0001	
 2.62650000000000E+0003	 1.75839622899628E-0001	
 2.62850000000000E+0003	 1.75942885278810E-0001	
 2.63050000000000E+0003	 1.76048147657993E-0001	
 2.63250000000000E+0003	 1.76150410037175E-0001	
 2.63450000000000E+0003	 1.76255172416357E-0001	
 2.63650000000000E+0003	 1.76362434795539E-0001	
 2.63850000000000E+0003	 1.76475697174721E-0001	
 2.64050000000000E+0003	 1.76578959553903E-0001	
 2.64250000000000E+0003	 1.76678721933086E-0001	
 2.64450000000000E+0003	 1.76777984312268E-0001	
 2.64650000000000E+0003	 1.76881246691450E-0001	
 2.64850000000000E+0003	 1.76984509070632E-0001	
 2.65050000000000E+0003	 1.77091771449814E-0001	
 2.65250000000000E+0003	 1.77196533828996E-0001	
 2.65450000000000E+0003	 1.77300796208178E-0001	
 2.65650000000000E+0003	 1.77405058587361E-0001	
 2.65850000000000E+0003	 1.77514820966543E-0001	
 2.66050000000000E+0003	 1.77616583345725E-0001	
 2.66250000000000E+0003	 1.77724345724907E-0001	
 2.66450000000000E+0003	 1.77845608104089E-0001	
 2.66650000000000E+0003	 1.77968370483271E-0001	
 2.66850000000000E+0003	 1.78083632862454E-0001	
 2.67050000000000E+0003	 1.78201395241636E-0001	
 2.67250000000000E+0003	 1.78324657620818E-0001	
 2.67450000000000E+0003	 1.78456920000000E-0001	
 2.67650000000000E+0003	 1.78590182379182E-0001	
 2.67850000000000E+0003	 1.78733444758364E-0001	
 2.68050000000000E+0003	 1.78869207137546E-0001	
 2.68250000000000E+0003	 1.78989969516729E-0001	
 2.68450000000000E+0003	 1.79110731895911E-0001	
 2.68650000000000E+0003	 1.79251494275093E-0001	
 2.68850000000000E+0003	 1.79393756654275E-0001	
 2.69050000000000E+0003	 1.79539519033457E-0001	
 2.69250000000000E+0003	 1.79688781412639E-0001	
 2.69450000000000E+0003	 1.79843543791822E-0001	
 2.69650000000000E+0003	 1.80004306171004E-0001	
 2.69850000000000E+0003	 1.80178068550186E-0001	
 2.70050000000000E+0003	 1.80353830929368E-0001	
 2.70250000000000E+0003	 1.80538593308550E-0001	
 2.70450000000000E+0003	 1.80732355687732E-0001	
 2.70650000000000E+0003	 1.80944618066914E-0001	
 2.70850000000000E+0003	 1.81168880446097E-0001	
 2.71050000000000E+0003	 1.81405142825279E-0001	
 2.71250000000000E+0003	 1.81643905204461E-0001	
 2.71450000000000E+0003	 1.81899667583643E-0001	
 2.71650000000000E+0003	 1.82164929962825E-0001	
 2.71850000000000E+0003	 1.82434192342007E-0001	
 2.72050000000000E+0003	 1.82703954721190E-0001	
 2.72250000000000E+0003	 1.82980217100372E-0001	
 2.72450000000000E+0003	 1.83259479479554E-0001	
 2.72650000000000E+0003	 1.83541741858736E-0001	
 2.72850000000000E+0003	 1.83794004237918E-0001	
 2.73050000000000E+0003	 1.84037766617100E-0001	
 2.73250000000000E+0003	 1.84290028996283E-0001	
 2.73450000000000E+0003	 1.84538291375465E-0001	
 2.73650000000000E+0003	 1.84771553754647E-0001	
 2.73850000000000E+0003	 1.84991816133829E-0001	
 2.74050000000000E+0003	 1.85195078513011E-0001	
 2.74250000000000E+0003	 1.85400340892193E-0001	
 2.74450000000000E+0003	 1.85603603271375E-0001	
 2.74650000000000E+0003	 1.85811865650558E-0001	
 2.74850000000000E+0003	 1.86009128029740E-0001	
 2.75050000000000E+0003	 1.86187890408922E-0001	
 2.75250000000000E+0003	 1.86363652788104E-0001	
 2.75450000000000E+0003	 1.86560915167286E-0001	
 2.75650000000000E+0003	 1.86771177546468E-0001	
 2.75850000000000E+0003	 1.86981939925651E-0001	
 2.76050000000000E+0003	 1.87193702304833E-0001	
 2.76250000000000E+0003	 1.87425464684015E-0001	
 2.76450000000000E+0003	 1.87671727063197E-0001	
 2.76650000000000E+0003	 1.87920989442379E-0001	
 2.76850000000000E+0003	 1.88166251821561E-0001	
 2.77050000000000E+0003	 1.88420014200743E-0001	
 2.77250000000000E+0003	 1.88685276579926E-0001	
 2.77450000000000E+0003	 1.88964538959108E-0001	
 2.77650000000000E+0003	 1.89220801338290E-0001	
 2.77850000000000E+0003	 1.89469063717472E-0001	
 2.78050000000000E+0003	 1.89738326096654E-0001	
 2.78250000000000E+0003	 1.90027088475836E-0001	
 2.78450000000000E+0003	 1.90328850855019E-0001	
 2.78650000000000E+0003	 1.90652613234201E-0001	
 2.78850000000000E+0003	 1.91007875613383E-0001	
 2.79050000000000E+0003	 1.91356137992565E-0001	
 2.79250000000000E+0003	 1.91683900371747E-0001	
 2.79450000000000E+0003	 1.92029662750929E-0001	
 2.79650000000000E+0003	 1.92405925130112E-0001	
 2.79850000000000E+0003	 1.92798187509294E-0001	
 2.80050000000000E+0003	 1.93166949888476E-0001	
 2.80250000000000E+0003	 1.93537712267658E-0001	
 2.80450000000000E+0003	 1.93936974646840E-0001	
 2.80650000000000E+0003	 1.94361237026022E-0001	
 2.80850000000000E+0003	 1.94810499405204E-0001	
 2.81050000000000E+0003	 1.95267761784387E-0001	
 2.81250000000000E+0003	 1.95710024163569E-0001	
 2.81450000000000E+0003	 1.96168786542751E-0001	
 2.81650000000000E+0003	 1.96651048921933E-0001	
 2.81850000000000E+0003	 1.97145811301115E-0001	
 2.82050000000000E+0003	 1.97656573680297E-0001	
 2.82250000000000E+0003	 1.98191336059480E-0001	
 2.82450000000000E+0003	 1.98743098438662E-0001	
 2.82650000000000E+0003	 1.99315860817844E-0001	
 2.82850000000000E+0003	 1.99928623197026E-0001	
 2.83050000000000E+0003	 2.00587385576208E-0001	
 2.83250000000000E+0003	 2.01288647955390E-0001	
 2.83450000000000E+0003	 2.02049410334572E-0001	
 2.83650000000000E+0003	 2.02905672713755E-0001	
 2.83850000000000E+0003	 2.03891935092937E-0001	
 2.84050000000000E+0003	 2.04969697472119E-0001	
 2.84250000000000E+0003	 2.06255459851301E-0001	
 2.84450000000000E+0003	 2.07927722230483E-0001	
 2.84650000000000E+0003	 2.10033484609665E-0001	
 2.84850000000000E+0003	 2.12458746988848E-0001	
 2.85050000000000E+0003	 2.14957509368030E-0001	
 2.85250000000000E+0003	 2.17214771747212E-0001	
 2.85450000000000E+0003	 2.18931534126394E-0001	
 2.85650000000000E+0003	 2.20018296505576E-0001	
 2.85850000000000E+0003	 2.20696558884758E-0001	
 2.86050000000000E+0003	 2.21263821263941E-0001	
 2.86250000000000E+0003	 2.21943583643123E-0001	
 2.86450000000000E+0003	 2.22877846022305E-0001	
 2.86650000000000E+0003	 2.24078608401487E-0001	
 2.86850000000000E+0003	 2.25469870780669E-0001	
 2.87050000000000E+0003	 2.26979133159851E-0001	
 2.87250000000000E+0003	 2.28448895539033E-0001	
 2.87450000000000E+0003	 2.29564157918216E-0001	
 2.87650000000000E+0003	 2.30209920297398E-0001	
 2.87850000000000E+0003	 2.30597682676580E-0001	
 2.88050000000000E+0003	 2.30879445055762E-0001	
 2.88250000000000E+0003	 2.31154707434944E-0001	
 2.88450000000000E+0003	 2.31511469814126E-0001	
 2.88650000000000E+0003	 2.32018732193309E-0001	
 2.88850000000000E+0003	 2.32671994572491E-0001	
 2.89050000000000E+0003	 2.33452256951673E-0001	
 2.89250000000000E+0003	 2.34349519330855E-0001	
 2.89450000000000E+0003	 2.35371281710037E-0001	
 2.89650000000000E+0003	 2.36441044089219E-0001	
 2.89850000000000E+0003	 2.37500806468401E-0001	
 2.90050000000000E+0003	 2.38610068847584E-0001	
 2.90250000000000E+0003	 2.39829831226766E-0001	
 2.90450000000000E+0003	 2.41174593605948E-0001	
 2.90650000000000E+0003	 2.42685355985130E-0001	
 2.90850000000000E+0003	 2.44434118364312E-0001	
 2.91050000000000E+0003	 2.46498380743494E-0001	
 2.91250000000000E+0003	 2.48903643122677E-0001	
 2.91450000000000E+0003	 2.51530405501859E-0001	
 2.91650000000000E+0003	 2.54287667881041E-0001	
 2.91850000000000E+0003	 2.57172430260223E-0001	
 2.92050000000000E+0003	 2.60054192639405E-0001	
 2.92250000000000E+0003	 2.62765955018587E-0001	
 2.92450000000000E+0003	 2.65099217397770E-0001	
 2.92650000000000E+0003	 2.66941979776952E-0001	
 2.92850000000000E+0003	 2.68284242156134E-0001	
 2.93050000000000E+0003	 2.69063504535316E-0001	
 2.93250000000000E+0003	 2.69315266914498E-0001	
 2.93450000000000E+0003	 2.69257529293680E-0001	
 2.93650000000000E+0003	 2.68924291672862E-0001	
 2.93850000000000E+0003	 2.68264054052045E-0001	
 2.94050000000000E+0003	 2.67311316431227E-0001	
 2.94250000000000E+0003	 2.66244578810409E-0001	
 2.94450000000000E+0003	 2.65149841189591E-0001	
 2.94650000000000E+0003	 2.64098603568773E-0001	
 2.94850000000000E+0003	 2.63280865947955E-0001	
 2.95050000000000E+0003	 2.62926628327138E-0001	
 2.95250000000000E+0003	 2.63063890706320E-0001	
 2.95450000000000E+0003	 2.63441153085502E-0001	
 2.95650000000000E+0003	 2.63906915464684E-0001	
 2.95850000000000E+0003	 2.64344177843866E-0001	
 2.96050000000000E+0003	 2.64514940223048E-0001	
 2.96250000000000E+0003	 2.64227702602230E-0001	
 2.96450000000000E+0003	 2.63386964981413E-0001	
 2.96650000000000E+0003	 2.62006727360595E-0001	
 2.96850000000000E+0003	 2.60196989739777E-0001	
 2.97050000000000E+0003	 2.58263752118959E-0001	
 2.97250000000000E+0003	 2.56506014498141E-0001	
 2.97450000000000E+0003	 2.54856776877323E-0001	
 2.97650000000000E+0003	 2.53205039256506E-0001	
 2.97850000000000E+0003	 2.51675301635688E-0001	
 2.98050000000000E+0003	 2.50256064014870E-0001	
 2.98250000000000E+0003	 2.48851826394052E-0001	
 2.98450000000000E+0003	 2.47527588773234E-0001	
 2.98650000000000E+0003	 2.46349851152416E-0001	
 2.98850000000000E+0003	 2.45331113531599E-0001	
 2.99050000000000E+0003	 2.44519875910781E-0001	
 2.99250000000000E+0003	 2.43841138289963E-0001	
 2.99450000000000E+0003	 2.43225900669145E-0001	
 2.99650000000000E+0003	 2.42824663048327E-0001	
 2.99850000000000E+0003	 2.42637425427509E-0001	
 3.00050000000000E+0003	 2.42562187806691E-0001	
 3.00250000000000E+0003	 2.42640450185874E-0001	
 3.00450000000000E+0003	 2.42814712565056E-0001	
 3.00650000000000E+0003	 2.43038474944238E-0001	
 3.00850000000000E+0003	 2.43353737323420E-0001	
 3.01050000000000E+0003	 2.43786499702602E-0001	
 3.01250000000000E+0003	 2.44235262081784E-0001	
 3.01450000000000E+0003	 2.44645524460967E-0001	
 3.01650000000000E+0003	 2.45127286840149E-0001	
 3.01850000000000E+0003	 2.45789049219331E-0001	
 3.02050000000000E+0003	 2.46540311598513E-0001	
 3.02250000000000E+0003	 2.47382073977695E-0001	
 3.02450000000000E+0003	 2.48354336356877E-0001	
 3.02650000000000E+0003	 2.49352098736059E-0001	
 3.02850000000000E+0003	 2.50412861115242E-0001	
 3.03050000000000E+0003	 2.51569623494424E-0001	
 3.03250000000000E+0003	 2.52788885873606E-0001	
 3.03450000000000E+0003	 2.54047148252788E-0001	
 3.03650000000000E+0003	 2.55259910631970E-0001	
 3.03850000000000E+0003	 2.56554673011152E-0001	
 3.04050000000000E+0003	 2.58006435390335E-0001	
 3.04250000000000E+0003	 2.59468197769517E-0001	
 3.04450000000000E+0003	 2.60838960148699E-0001	
 3.04650000000000E+0003	 2.62182222527881E-0001	
 3.04850000000000E+0003	 2.63592484907063E-0001	
 3.05050000000000E+0003	 2.65103247286245E-0001	
 3.05250000000000E+0003	 2.66596509665428E-0001	
 3.05450000000000E+0003	 2.68062272044610E-0001	
 3.05650000000000E+0003	 2.69531534423792E-0001	
 3.05850000000000E+0003	 2.70983296802974E-0001	
 3.06050000000000E+0003	 2.72380559182156E-0001	
 3.06250000000000E+0003	 2.73743321561338E-0001	
 3.06450000000000E+0003	 2.75068583940520E-0001	
 3.06650000000000E+0003	 2.76365846319703E-0001	
 3.06850000000000E+0003	 2.77554108698885E-0001	
 3.07050000000000E+0003	 2.78602371078067E-0001	
 3.07250000000000E+0003	 2.79620133457249E-0001	
 3.07450000000000E+0003	 2.80665395836431E-0001	
 3.07650000000000E+0003	 2.81760158215613E-0001	
 3.07850000000000E+0003	 2.82827920594796E-0001	
 3.08050000000000E+0003	 2.83745182973978E-0001	
 3.08250000000000E+0003	 2.84585445353160E-0001	
 3.08450000000000E+0003	 2.85428707732342E-0001	
 3.08650000000000E+0003	 2.86238470111524E-0001	
 3.08850000000000E+0003	 2.87034232490706E-0001	
 3.09050000000000E+0003	 2.87820994869888E-0001	
 3.09250000000000E+0003	 2.88531257249071E-0001	
 3.09450000000000E+0003	 2.89247019628253E-0001	
 3.09650000000000E+0003	 2.90025282007435E-0001	
 3.09850000000000E+0003	 2.90847044386617E-0001	
 3.10050000000000E+0003	 2.91657306765799E-0001	
 3.10250000000000E+0003	 2.92450069144981E-0001	
 3.10450000000000E+0003	 2.93316831524164E-0001	
 3.10650000000000E+0003	 2.94292593903346E-0001	
 3.10850000000000E+0003	 2.95319856282528E-0001	
 3.11050000000000E+0003	 2.96308618661710E-0001	
 3.11250000000000E+0003	 2.97360381040892E-0001	
 3.11450000000000E+0003	 2.98622143420074E-0001	
 3.11650000000000E+0003	 2.99954905799257E-0001	
 3.11850000000000E+0003	 3.01254168178439E-0001	
 3.12050000000000E+0003	 3.02512930557621E-0001	
 3.12250000000000E+0003	 3.03726692936803E-0001	
 3.12450000000000E+0003	 3.05041955315985E-0001	
 3.12650000000000E+0003	 3.06524217695167E-0001	
 3.12850000000000E+0003	 3.08120980074349E-0001	
 3.13050000000000E+0003	 3.09764742453532E-0001	
 3.13250000000000E+0003	 3.11395504832714E-0001	
 3.13450000000000E+0003	 3.13107267211896E-0001	
 3.13650000000000E+0003	 3.14960029591078E-0001	
 3.13850000000000E+0003	 3.16894791970260E-0001	
 3.14050000000000E+0003	 3.18753554349442E-0001	
 3.14250000000000E+0003	 3.20542816728625E-0001	
 3.14450000000000E+0003	 3.22439579107807E-0001	
 3.14650000000000E+0003	 3.24468841486989E-0001	
 3.14850000000000E+0003	 3.26599603866171E-0001	
 3.15050000000000E+0003	 3.28896366245353E-0001	
 3.15250000000000E+0003	 3.31200628624535E-0001	
 3.15450000000000E+0003	 3.33294891003717E-0001	
 3.15650000000000E+0003	 3.35378153382900E-0001	
 3.15850000000000E+0003	 3.37618415762082E-0001	
 3.16050000000000E+0003	 3.39948678141264E-0001	
 3.16250000000000E+0003	 3.42327940520446E-0001	
 3.16450000000000E+0003	 3.44749202899628E-0001	
 3.16650000000000E+0003	 3.47199965278810E-0001	
 3.16850000000000E+0003	 3.49668227657993E-0001	
 3.17050000000000E+0003	 3.52156990037175E-0001	
 3.17250000000000E+0003	 3.54664252416357E-0001	
 3.17450000000000E+0003	 3.57182014795539E-0001	
 3.17650000000000E+0003	 3.59704777174721E-0001	
 3.17850000000000E+0003	 3.62227039553903E-0001	
 3.18050000000000E+0003	 3.64755801933086E-0001	
 3.18250000000000E+0003	 3.67259564312268E-0001	
 3.18450000000000E+0003	 3.69731826691450E-0001	
 3.18650000000000E+0003	 3.72214089070632E-0001	
 3.18850000000000E+0003	 3.74684851449814E-0001	
 3.19050000000000E+0003	 3.77094113828996E-0001	
 3.19250000000000E+0003	 3.79469376208178E-0001	
 3.19450000000000E+0003	 3.81817638587361E-0001	
 3.19650000000000E+0003	 3.84120400966543E-0001	
 3.19850000000000E+0003	 3.86393163345725E-0001	
 3.20050000000000E+0003	 3.88665925724907E-0001	
 3.20250000000000E+0003	 3.90912688104089E-0001	
 3.20450000000000E+0003	 3.93122950483271E-0001	
 3.20650000000000E+0003	 3.95299712862454E-0001	
 3.20850000000000E+0003	 3.97437475241636E-0001	
 3.21050000000000E+0003	 3.99562237620818E-0001	
 3.21250000000000E+0003	 4.01717500000000E-0001	
 3.21450000000000E+0003	 4.03856762379182E-0001	
 3.21650000000000E+0003	 4.05994024758364E-0001	
 3.21850000000000E+0003	 4.08129787137546E-0001	
 3.22050000000000E+0003	 4.10241549516729E-0001	
 3.22250000000000E+0003	 4.12363311895911E-0001	
 3.22450000000000E+0003	 4.14516074275093E-0001	
 3.22650000000000E+0003	 4.16679336654275E-0001	
 3.22850000000000E+0003	 4.18884599033457E-0001	
 3.23050000000000E+0003	 4.21220361412639E-0001	
 3.23250000000000E+0003	 4.23668623791822E-0001	
 3.23450000000000E+0003	 4.25961386171004E-0001	
 3.23650000000000E+0003	 4.28083148550186E-0001	
 3.23850000000000E+0003	 4.30310910929368E-0001	
 3.24050000000000E+0003	 4.32679673308550E-0001	
 3.24250000000000E+0003	 4.35124435687732E-0001	
 3.24450000000000E+0003	 4.37665198066914E-0001	
 3.24650000000000E+0003	 4.40271460446097E-0001	
 3.24850000000000E+0003	 4.42798222825279E-0001	
 3.25050000000000E+0003	 4.45261485204461E-0001	
 3.25250000000000E+0003	 4.47833247583643E-0001	
 3.25450000000000E+0003	 4.50519509962825E-0001	
 3.25650000000000E+0003	 4.53218272342007E-0001	
 3.25850000000000E+0003	 4.55871034721190E-0001	
 3.26050000000000E+0003	 4.58552797100372E-0001	
 3.26250000000000E+0003	 4.61255059479554E-0001	
 3.26450000000000E+0003	 4.63945321858736E-0001	
 3.26650000000000E+0003	 4.66641084237918E-0001	
 3.26850000000000E+0003	 4.69386846617100E-0001	
 3.27050000000000E+0003	 4.72072108996283E-0001	
 3.27250000000000E+0003	 4.74485371375465E-0001	
 3.27450000000000E+0003	 4.76703133754647E-0001	
 3.27650000000000E+0003	 4.78874896133829E-0001	
 3.27850000000000E+0003	 4.80976158513011E-0001	
 3.28050000000000E+0003	 4.82994920892193E-0001	
 3.28250000000000E+0003	 4.84892683271375E-0001	
 3.28450000000000E+0003	 4.86693445650558E-0001	
 3.28650000000000E+0003	 4.88398208029740E-0001	
 3.28850000000000E+0003	 4.90012970408922E-0001	
 3.29050000000000E+0003	 4.91601232788104E-0001	
 3.29250000000000E+0003	 4.93077495167286E-0001	
 3.29450000000000E+0003	 4.94347757546468E-0001	
 3.29650000000000E+0003	 4.95481019925651E-0001	
 3.29850000000000E+0003	 4.96509282304833E-0001	
 3.30050000000000E+0003	 4.97523044684015E-0001	
 3.30250000000000E+0003	 4.98603307063197E-0001	
 3.30450000000000E+0003	 4.99761569442379E-0001	
 3.30650000000000E+0003	 5.00777831821561E-0001	
 3.30850000000000E+0003	 5.01514594200743E-0001	
 3.31050000000000E+0003	 5.02144856579926E-0001	
 3.31250000000000E+0003	 5.02840618959108E-0001	
 3.31450000000000E+0003	 5.03606381338290E-0001	
 3.31650000000000E+0003	 5.04401643717472E-0001	
 3.31850000000000E+0003	 5.05188406096654E-0001	
 3.32050000000000E+0003	 5.06002668475836E-0001	
 3.32250000000000E+0003	 5.06871430855019E-0001	
 3.32450000000000E+0003	 5.07802193234201E-0001	
 3.32650000000000E+0003	 5.08694455613383E-0001	
 3.32850000000000E+0003	 5.09525217992565E-0001	
 3.33050000000000E+0003	 5.10399980371747E-0001	
 3.33250000000000E+0003	 5.11339242750929E-0001	
 3.33450000000000E+0003	 5.12330005130112E-0001	
 3.33650000000000E+0003	 5.13430267509294E-0001	
 3.33850000000000E+0003	 5.14563529888476E-0001	
 3.34050000000000E+0003	 5.15586792267658E-0001	
 3.34250000000000E+0003	 5.16563554646840E-0001	
 3.34450000000000E+0003	 5.17578317026022E-0001	
 3.34650000000000E+0003	 5.18633579405204E-0001	
 3.34850000000000E+0003	 5.19843341784387E-0001	
 3.35050000000000E+0003	 5.21072604163569E-0001	
 3.35250000000000E+0003	 5.22082866542751E-0001	
 3.35450000000000E+0003	 5.23024128921933E-0001	
 3.35650000000000E+0003	 5.24106391301115E-0001	
 3.35850000000000E+0003	 5.25293153680297E-0001	
 3.36050000000000E+0003	 5.26475916059480E-0001	
 3.36250000000000E+0003	 5.27598178438662E-0001	
 3.36450000000000E+0003	 5.28825440817844E-0001	
 3.36650000000000E+0003	 5.30206703197026E-0001	
 3.36850000000000E+0003	 5.31539465576208E-0001	
 3.37050000000000E+0003	 5.32528727955390E-0001	
 3.37250000000000E+0003	 5.33307990334572E-0001	
 3.37450000000000E+0003	 5.34232252713755E-0001	
 3.37650000000000E+0003	 5.35317015092937E-0001	
 3.37850000000000E+0003	 5.36382777472119E-0001	
 3.38050000000000E+0003	 5.37401039851301E-0001	
 3.38250000000000E+0003	 5.38375302230483E-0001	
 3.38450000000000E+0003	 5.39340564609665E-0001	
 3.38650000000000E+0003	 5.40350326988848E-0001	
 3.38850000000000E+0003	 5.41522589368030E-0001	
 3.39050000000000E+0003	 5.42824851747212E-0001	
 3.39250000000000E+0003	 5.43812114126394E-0001	
 3.39450000000000E+0003	 5.44448376505576E-0001	
 3.39650000000000E+0003	 5.45232138884758E-0001	
 3.39850000000000E+0003	 5.46377901263941E-0001	
 3.40050000000000E+0003	 5.47518663643123E-0001	
 3.40250000000000E+0003	 5.48040926022305E-0001	
 3.40450000000000E+0003	 5.48320688401487E-0001	
 3.40650000000000E+0003	 5.48865950780669E-0001	
 3.40850000000000E+0003	 5.49563713159851E-0001	
 3.41050000000000E+0003	 5.50173975539033E-0001	
 3.41250000000000E+0003	 5.50659237918216E-0001	
 3.41450000000000E+0003	 5.50972500297398E-0001	
 3.41650000000000E+0003	 5.51218262676580E-0001	
 3.41850000000000E+0003	 5.51493025055762E-0001	
 3.42050000000000E+0003	 5.51699787434944E-0001	
 3.42250000000000E+0003	 5.51832049814126E-0001	
 3.42450000000000E+0003	 5.51991312193309E-0001	
 3.42650000000000E+0003	 5.52179074572491E-0001	
 3.42850000000000E+0003	 5.52381836951673E-0001	
 3.43050000000000E+0003	 5.52430099330855E-0001	
 3.43250000000000E+0003	 5.52409861710037E-0001	
 3.43450000000000E+0003	 5.52479124089219E-0001	
 3.43650000000000E+0003	 5.52298386468401E-0001	
 3.43850000000000E+0003	 5.51691648847584E-0001	
 3.44050000000000E+0003	 5.51037911226766E-0001	
 3.44250000000000E+0003	 5.50516173605948E-0001	
 3.44450000000000E+0003	 5.50135435985130E-0001	
 3.44650000000000E+0003	 5.49672698364312E-0001	
 3.44850000000000E+0003	 5.49080460743494E-0001	
 3.45050000000000E+0003	 5.48527223122677E-0001	
 3.45250000000000E+0003	 5.47887485501859E-0001	
 3.45450000000000E+0003	 5.47196247881041E-0001	
 3.45650000000000E+0003	 5.46525010260223E-0001	
 3.45850000000000E+0003	 5.45902772639405E-0001	
 3.46050000000000E+0003	 5.45163035018587E-0001	
 3.46250000000000E+0003	 5.44227297397770E-0001	
 3.46450000000000E+0003	 5.43551559776952E-0001	
 3.46650000000000E+0003	 5.43141322156134E-0001	
 3.46850000000000E+0003	 5.42389084535316E-0001	
 3.47050000000000E+0003	 5.40916846914498E-0001	
 3.47250000000000E+0003	 5.39245609293680E-0001	
 3.47450000000000E+0003	 5.37881371672862E-0001	
 3.47650000000000E+0003	 5.36821134052045E-0001	
 3.47850000000000E+0003	 5.35884896431227E-0001	
 3.48050000000000E+0003	 5.34585158810409E-0001	
 3.48250000000000E+0003	 5.32946421189591E-0001	
 3.48450000000000E+0003	 5.31586683568773E-0001	
 3.48650000000000E+0003	 5.30309945947955E-0001	
 3.48850000000000E+0003	 5.28799708327138E-0001	
 3.49050000000000E+0003	 5.27270470706320E-0001	
 3.49250000000000E+0003	 5.25827233085502E-0001	
 3.49450000000000E+0003	 5.24389995464684E-0001	
 3.49650000000000E+0003	 5.22907257843866E-0001	
 3.49850000000000E+0003	 5.21329020223048E-0001	
 3.50050000000000E+0003	 5.19770282602230E-0001	
 3.50250000000000E+0003	 5.18055544981413E-0001	
 3.50450000000000E+0003	 5.16027307360595E-0001	
 3.50650000000000E+0003	 5.14048569739777E-0001	
 3.50850000000000E+0003	 5.12133332118959E-0001	
 3.51050000000000E+0003	 5.10302594498141E-0001	
 3.51250000000000E+0003	 5.08725856877323E-0001	
 3.51450000000000E+0003	 5.06883619256506E-0001	
 3.51650000000000E+0003	 5.04769881635688E-0001	
 3.51850000000000E+0003	 5.02674144014870E-0001	
 3.52050000000000E+0003	 5.00819406394052E-0001	
 3.52250000000000E+0003	 4.99013168773234E-0001	
 3.52450000000000E+0003	 4.96854931152416E-0001	
 3.52650000000000E+0003	 4.94492693531599E-0001	
 3.52850000000000E+0003	 4.92175955910781E-0001	
 3.53050000000000E+0003	 4.90057718289963E-0001	
 3.53250000000000E+0003	 4.88047480669145E-0001	
 3.53450000000000E+0003	 4.86100743048327E-0001	
 3.53650000000000E+0003	 4.83884505427509E-0001	
 3.53850000000000E+0003	 4.81441767806691E-0001	
 3.54050000000000E+0003	 4.79237530185874E-0001	
 3.54250000000000E+0003	 4.77224792565056E-0001	
 3.54450000000000E+0003	 4.74940054944238E-0001	
 3.54650000000000E+0003	 4.72099317323420E-0001	
 3.54850000000000E+0003	 4.69287079702602E-0001	
 3.55050000000000E+0003	 4.66784342081784E-0001	
 3.55250000000000E+0003	 4.64031104460967E-0001	
 3.55450000000000E+0003	 4.61320366840149E-0001	
 3.55650000000000E+0003	 4.58811629219331E-0001	
 3.55850000000000E+0003	 4.56234391598513E-0001	
 3.56050000000000E+0003	 4.53584153977695E-0001	
 3.56250000000000E+0003	 4.50822416356877E-0001	
 3.56450000000000E+0003	 4.47987678736059E-0001	
 3.56650000000000E+0003	 4.44902441115242E-0001	
 3.56850000000000E+0003	 4.42130203494424E-0001	
 3.57050000000000E+0003	 4.39647465873606E-0001	
 3.57250000000000E+0003	 4.36614728252788E-0001	
 3.57450000000000E+0003	 4.33449990631970E-0001	
 3.57650000000000E+0003	 4.30475753011152E-0001	
 3.57850000000000E+0003	 4.27544015390335E-0001	
 3.58050000000000E+0003	 4.24692777769517E-0001	
 3.58250000000000E+0003	 4.21988040148699E-0001	
 3.58450000000000E+0003	 4.19345302527881E-0001	
 3.58650000000000E+0003	 4.15943564907063E-0001	
 3.58850000000000E+0003	 4.12086827286245E-0001	
 3.59050000000000E+0003	 4.09078089665428E-0001	
 3.59250000000000E+0003	 4.05973852044610E-0001	
 3.59450000000000E+0003	 4.02371114423792E-0001	
 3.59650000000000E+0003	 3.99055376802974E-0001	
 3.59850000000000E+0003	 3.96020639182156E-0001	
 3.60050000000000E+0003	 3.92758901561338E-0001	
 3.60250000000000E+0003	 3.89416163940520E-0001	
 3.60450000000000E+0003	 3.86150426319703E-0001	
 3.60650000000000E+0003	 3.82761688698885E-0001	
 3.60850000000000E+0003	 3.79160451078067E-0001	
 3.61050000000000E+0003	 3.75821213457249E-0001	
 3.61250000000000E+0003	 3.72154475836431E-0001	
 3.61450000000000E+0003	 3.68003738215613E-0001	
 3.61650000000000E+0003	 3.64805000594796E-0001	
 3.61850000000000E+0003	 3.61380262973978E-0001	
 3.62050000000000E+0003	 3.57476025353160E-0001	
 3.62250000000000E+0003	 3.54006787732342E-0001	
 3.62450000000000E+0003	 3.50386550111524E-0001	
 3.62650000000000E+0003	 3.47475812490706E-0001	
 3.62850000000000E+0003	 3.43771074869888E-0001	
 3.63050000000000E+0003	 3.39751837249071E-0001	
 3.63250000000000E+0003	 3.36211599628253E-0001	
 3.63450000000000E+0003	 3.31752362007435E-0001	
 3.63650000000000E+0003	 3.27765624386617E-0001	
 3.63850000000000E+0003	 3.23896886765799E-0001	
 3.64050000000000E+0003	 3.20020149144981E-0001	
 3.64250000000000E+0003	 3.16204411524164E-0001	
 3.64450000000000E+0003	 3.12841673903346E-0001	
 3.64650000000000E+0003	 3.09650936282528E-0001	
 3.64850000000000E+0003	 3.05977198661710E-0001	
 3.65050000000000E+0003	 3.02603461040892E-0001	
 3.65250000000000E+0003	 2.98656223420074E-0001	
 3.65450000000000E+0003	 2.95116985799257E-0001	
 3.65650000000000E+0003	 2.91198748178439E-0001	
 3.65850000000000E+0003	 2.87762510557621E-0001	
 3.66050000000000E+0003	 2.84251272936803E-0001	
 3.66250000000000E+0003	 2.80397035315985E-0001	
 3.66450000000000E+0003	 2.77034797695167E-0001	
 3.66650000000000E+0003	 2.74127560074349E-0001	
 3.66850000000000E+0003	 2.71559322453532E-0001	
 3.67050000000000E+0003	 2.68234584832714E-0001	
 3.67250000000000E+0003	 2.65934347211896E-0001	
 3.67450000000000E+0003	 2.63714609591078E-0001	
 3.67650000000000E+0003	 2.60112871970260E-0001	
 3.67850000000000E+0003	 2.57852134349442E-0001	
 3.68050000000000E+0003	 2.54598396728625E-0001	
 3.68250000000000E+0003	 2.51925159107807E-0001	
 3.68450000000000E+0003	 2.49719421486989E-0001	
 3.68650000000000E+0003	 2.48545183866171E-0001	
 3.68850000000000E+0003	 2.46810946245353E-0001	
 3.69050000000000E+0003	 2.44597708624535E-0001	
 3.69250000000000E+0003	 2.42259471003717E-0001	
 3.69450000000000E+0003	 2.40041233382900E-0001	
 3.69650000000000E+0003	 2.38083995762082E-0001	
 3.69850000000000E+0003	 2.36445758141264E-0001	
 3.70050000000000E+0003	 2.35075020520446E-0001	
 3.70250000000000E+0003	 2.33346782899628E-0001	
 3.70450000000000E+0003	 2.32068045278810E-0001	
 3.70650000000000E+0003	 2.30935307657993E-0001	
 3.70850000000000E+0003	 2.29773070037175E-0001	
 3.71050000000000E+0003	 2.28697832416357E-0001	
 3.71250000000000E+0003	 2.27691094795539E-0001	
 3.71450000000000E+0003	 2.26288357174721E-0001	
 3.71650000000000E+0003	 2.24440619553903E-0001	
 3.71850000000000E+0003	 2.22782381933086E-0001	
 3.72050000000000E+0003	 2.21870644312268E-0001	
 3.72250000000000E+0003	 2.20888906691450E-0001	
 3.72450000000000E+0003	 2.20063669070632E-0001	
 3.72650000000000E+0003	 2.19237931449814E-0001	
 3.72850000000000E+0003	 2.18535693828996E-0001	
 3.73050000000000E+0003	 2.18604456208178E-0001	
 3.73250000000000E+0003	 2.17687718587361E-0001	
 3.73450000000000E+0003	 2.16731980966543E-0001	
 3.73650000000000E+0003	 2.15865743345725E-0001	
 3.73850000000000E+0003	 2.15463005724907E-0001	
 3.74050000000000E+0003	 2.14114268104089E-0001	
 3.74250000000000E+0003	 2.14123030483271E-0001	
 3.74450000000000E+0003	 2.13033792862454E-0001	
 3.74650000000000E+0003	 2.12434055241636E-0001	
 3.74850000000000E+0003	 2.12174317620818E-0001	
 3.75050000000000E+0003	 2.10962080000000E-0001	
 3.75250000000000E+0003	 2.10734342379182E-0001	
 3.75450000000000E+0003	 2.09669104758364E-0001	
 3.75650000000000E+0003	 2.08231867137546E-0001	
 3.75850000000000E+0003	 2.07051629516729E-0001	
 3.76050000000000E+0003	 2.06321891895911E-0001	
 3.76250000000000E+0003	 2.05854654275093E-0001	
 3.76450000000000E+0003	 2.05352416654275E-0001	
 3.76650000000000E+0003	 2.04434179033457E-0001	
 3.76850000000000E+0003	 2.04313441412639E-0001	
 3.77050000000000E+0003	 2.03553203791822E-0001	
 3.77250000000000E+0003	 2.03033966171004E-0001	
 3.77450000000000E+0003	 2.02376228550186E-0001	
 3.77650000000000E+0003	 2.01753490929368E-0001	
 3.77850000000000E+0003	 2.01408753308550E-0001	
 3.78050000000000E+0003	 2.00657515687732E-0001	
 3.78250000000000E+0003	 2.00258278066914E-0001	
 3.78450000000000E+0003	 1.99564040446097E-0001	
 3.78650000000000E+0003	 1.98955302825279E-0001	
 3.78850000000000E+0003	 1.98625565204461E-0001	
 3.79050000000000E+0003	 1.98144327583643E-0001	
 3.79250000000000E+0003	 1.97574089962825E-0001	
 3.79450000000000E+0003	 1.97358852342007E-0001	
 3.79650000000000E+0003	 1.96655114721190E-0001	
 3.79850000000000E+0003	 1.96276877100372E-0001	
 3.80050000000000E+0003	 1.96635139479554E-0001	
 3.80250000000000E+0003	 1.95820901858736E-0001	
 3.80450000000000E+0003	 1.96034164237918E-0001	
 3.80650000000000E+0003	 1.95492926617100E-0001	
 3.80850000000000E+0003	 1.94716688996283E-0001	
 3.81050000000000E+0003	 1.94370951375465E-0001	
 3.81250000000000E+0003	 1.93350713754647E-0001	
 3.81450000000000E+0003	 1.93561976133829E-0001	
 3.81650000000000E+0003	 1.93023738513011E-0001	
 3.81850000000000E+0003	 1.93350500892193E-0001	
 3.82050000000000E+0003	 1.93116263271375E-0001	
 3.82250000000000E+0003	 1.91953525650558E-0001	
 3.82450000000000E+0003	 1.91968288029740E-0001	
 3.82650000000000E+0003	 1.90923550408922E-0001	
 3.82850000000000E+0003	 1.90325812788104E-0001	
 3.83050000000000E+0003	 1.90409075167286E-0001	
 3.83250000000000E+0003	 1.90032837546468E-0001	
 3.83450000000000E+0003	 1.90033099925651E-0001	
 3.83650000000000E+0003	 1.90090362304833E-0001	
 3.83850000000000E+0003	 1.89736124684015E-0001	
 3.84050000000000E+0003	 1.89364387063197E-0001	
 3.84250000000000E+0003	 1.88762149442379E-0001	
 3.84450000000000E+0003	 1.88010411821561E-0001	
 3.84650000000000E+0003	 1.87590174200743E-0001	
 3.84850000000000E+0003	 1.87238436579926E-0001	
 3.85050000000000E+0003	 1.87790698959108E-0001	
 3.85250000000000E+0003	 1.88491461338290E-0001	
 3.85450000000000E+0003	 1.88727223717472E-0001	
 3.85650000000000E+0003	 1.88837986096654E-0001	
 3.85850000000000E+0003	 1.86816248475836E-0001	
 3.86050000000000E+0003	 1.85660510855019E-0001	
 3.86250000000000E+0003	 1.85344273234201E-0001	
 3.86450000000000E+0003	 1.85183535613383E-0001	
 3.86650000000000E+0003	 1.84911297992565E-0001	
 3.86850000000000E+0003	 1.85405060371747E-0001	
 3.87050000000000E+0003	 1.84495322750929E-0001	
 3.87250000000000E+0003	 1.84680085130112E-0001	
 3.87450000000000E+0003	 1.84063347509294E-0001	
 3.87650000000000E+0003	 1.83427109888476E-0001	
 3.87850000000000E+0003	 1.83710372267658E-0001	
 3.88050000000000E+0003	 1.82870634646840E-0001	
 3.88250000000000E+0003	 1.82637397026022E-0001	
 3.88450000000000E+0003	 1.83183159405204E-0001	
 3.88650000000000E+0003	 1.82573921784387E-0001	
 3.88850000000000E+0003	 1.82758184163569E-0001	
 3.89050000000000E+0003	 1.82463446542751E-0001	
 3.89250000000000E+0003	 1.81635208921933E-0001	
 3.89450000000000E+0003	 1.81553971301115E-0001	
 3.89650000000000E+0003	 1.81390233680297E-0001	
 3.89850000000000E+0003	 1.81212996059480E-0001	
 3.90050000000000E+0003	 1.80914258438662E-0001	
 3.90250000000000E+0003	 1.81257020817844E-0001	
 3.90450000000000E+0003	 1.81043283197026E-0001	
 3.90650000000000E+0003	 1.80613545576208E-0001	
 3.90850000000000E+0003	 1.80183807955390E-0001	
 3.91050000000000E+0003	 1.79723070334572E-0001	
 3.91250000000000E+0003	 1.79382332713755E-0001	
 3.91450000000000E+0003	 1.79302095092937E-0001	
 3.91650000000000E+0003	 1.79115857472119E-0001	
 3.91850000000000E+0003	 1.78997619851301E-0001	
 3.92050000000000E+0003	 1.78891882230483E-0001	
 3.92250000000000E+0003	 1.78676644609665E-0001	
 3.92450000000000E+0003	 1.78349406988848E-0001	
 3.92650000000000E+0003	 1.78064669368030E-0001	
 3.92850000000000E+0003	 1.78059931747212E-0001	
 3.93050000000000E+0003	 1.77794194126394E-0001	
 3.93250000000000E+0003	 1.77584456505576E-0001	
 3.93450000000000E+0003	 1.77538718884758E-0001	
 3.93650000000000E+0003	 1.77486481263941E-0001	
 3.93850000000000E+0003	 1.77149243643123E-0001	
 3.94050000000000E+0003	 1.77032506022305E-0001	
 3.94250000000000E+0003	 1.76744768401487E-0001	
 3.94450000000000E+0003	 1.76496030780669E-0001	
 3.94650000000000E+0003	 1.76501293159851E-0001	
 3.94850000000000E+0003	 1.76238055539033E-0001	
 3.95050000000000E+0003	 1.76045317918216E-0001	
 3.95250000000000E+0003	 1.75965580297398E-0001	
 3.95450000000000E+0003	 1.75806842676580E-0001	
 3.95650000000000E+0003	 1.75612105055762E-0001	
 3.95850000000000E+0003	 1.75416867434944E-0001	
 3.96050000000000E+0003	 1.75262629814126E-0001	
 3.96250000000000E+0003	 1.75072892193309E-0001	
 3.96450000000000E+0003	 1.74969654572491E-0001	
 3.96650000000000E+0003	 1.74849416951673E-0001	
 3.96850000000000E+0003	 1.74666179330855E-0001	
 3.97050000000000E+0003	 1.74495441710037E-0001	
 3.97250000000000E+0003	 1.74352204089219E-0001	
 3.97450000000000E+0003	 1.74191466468401E-0001	
 3.97650000000000E+0003	 1.74065228847584E-0001	
 3.97850000000000E+0003	 1.73939991226766E-0001	
 3.98050000000000E+0003	 1.73803253605948E-0001	
 3.98250000000000E+0003	 1.73677515985130E-0001	
 3.98450000000000E+0003	 1.73564778364312E-0001	
 3.98650000000000E+0003	 1.73376540743494E-0001	
 3.98850000000000E+0003	 1.73195803122677E-0001	
 3.99050000000000E+0003	 1.73009065501859E-0001	
 3.99250000000000E+0003	 1.72870827881041E-0001	
 3.99450000000000E+0003	 1.72741590260223E-0001	
 3.99650000000000E+0003	 1.72595352639405E-0001	
 3.99850000000000E+0003	 1.72481115018587E-0001	

>1	DATALINE
