*CPCWIN*

>1	DATALINE
DATALINE
1
Operator:

Description:

Remarks:





15.9.2008
11:34


_x	_y
	
	
UNIT	UNIT
 4.50500000000000E+0002	 1.21684272812398E-0001	
 4.52500000000000E+0002	 1.22129470140784E-0001	
 4.54500000000000E+0002	 1.22517667469169E-0001	
 4.56500000000000E+0002	 1.22520864797555E-0001	
 4.58500000000000E+0002	 1.22828062125941E-0001	
 4.60500000000000E+0002	 1.23896759454327E-0001	
 4.62500000000000E+0002	 1.24704956782713E-0001	
 4.64500000000000E+0002	 1.25435154111099E-0001	
 4.66500000000000E+0002	 1.25883851439485E-0001	
 4.68500000000000E+0002	 1.26302048767871E-0001	
 4.70500000000000E+0002	 1.26723746096257E-0001	
 4.72500000000000E+0002	 1.27073443424643E-0001	
 4.74500000000000E+0002	 1.27750140753028E-0001	
 4.76500000000000E+0002	 1.28527338081414E-0001	
 4.78500000000000E+0002	 1.29229535409800E-0001	
 4.80500000000000E+0002	 1.29930232738186E-0001	
 4.82500000000000E+0002	 1.30512430066572E-0001	
 4.84500000000000E+0002	 1.31133127394958E-0001	
 4.86500000000000E+0002	 1.31863824723344E-0001	
 4.88500000000000E+0002	 1.32750022051730E-0001	
 4.90500000000000E+0002	 1.33474219380116E-0001	
 4.92500000000000E+0002	 1.34270416708502E-0001	
 4.94500000000000E+0002	 1.35160614036887E-0001	
 4.96500000000000E+0002	 1.36002311365273E-0001	
 4.98500000000000E+0002	 1.36724008693659E-0001	
 5.00500000000000E+0002	 1.37218206022045E-0001	
 5.02500000000000E+0002	 1.37721903350431E-0001	
 5.04500000000000E+0002	 1.38696600678817E-0001	
 5.06500000000000E+0002	 1.39510798007203E-0001	
 5.08500000000000E+0002	 1.40250995335589E-0001	
 5.10500000000000E+0002	 1.41043192663975E-0001	
 5.12500000000000E+0002	 1.41941389992361E-0001	
 5.14500000000000E+0002	 1.42662587320746E-0001	
 5.16500000000000E+0002	 1.43127284649132E-0001	
 5.18500000000000E+0002	 1.43745981977518E-0001	
 5.20500000000000E+0002	 1.44610679305904E-0001	
 5.22500000000000E+0002	 1.45264376634290E-0001	
 5.24500000000000E+0002	 1.45424573962676E-0001	
 5.26500000000000E+0002	 1.45731271291062E-0001	
 5.28500000000000E+0002	 1.46469968619448E-0001	
 5.30500000000000E+0002	 1.46936665947834E-0001	
 5.32500000000000E+0002	 1.47162363276220E-0001	
 5.34500000000000E+0002	 1.47306060604605E-0001	
 5.36500000000000E+0002	 1.47361757932991E-0001	
 5.38500000000000E+0002	 1.47369955261377E-0001	
 5.40500000000000E+0002	 1.47242152589763E-0001	
 5.42500000000000E+0002	 1.46998849918149E-0001	
 5.44500000000000E+0002	 1.46666047246535E-0001	
 5.46500000000000E+0002	 1.46342744574921E-0001	
 5.48500000000000E+0002	 1.46056941903307E-0001	
 5.50500000000000E+0002	 1.45866139231693E-0001	
 5.52500000000000E+0002	 1.45732836560079E-0001	
 5.54500000000000E+0002	 1.45546533888464E-0001	
 5.56500000000000E+0002	 1.45384231216850E-0001	
 5.58500000000000E+0002	 1.45297428545236E-0001	
 5.60500000000000E+0002	 1.45107625873622E-0001	
 5.62500000000000E+0002	 1.44767823202008E-0001	
 5.64500000000000E+0002	 1.44378020530394E-0001	
 5.66500000000000E+0002	 1.44023217858780E-0001	
 5.68500000000000E+0002	 1.43674415187166E-0001	
 5.70500000000000E+0002	 1.43431112515552E-0001	
 5.72500000000000E+0002	 1.43219309843938E-0001	
 5.74500000000000E+0002	 1.42907007172323E-0001	
 5.76500000000000E+0002	 1.42577704500709E-0001	
 5.78500000000000E+0002	 1.42386401829095E-0001	
 5.80500000000000E+0002	 1.42045599157481E-0001	
 5.82500000000000E+0002	 1.41538296485867E-0001	
 5.84500000000000E+0002	 1.41047493814253E-0001	
 5.86500000000000E+0002	 1.40713691142639E-0001	
 5.88500000000000E+0002	 1.40432388471025E-0001	
 5.90500000000000E+0002	 1.40138585799411E-0001	
 5.92500000000000E+0002	 1.40016283127797E-0001	
 5.94500000000000E+0002	 1.40117480456182E-0001	
 5.96500000000000E+0002	 1.40240177784568E-0001	
 5.98500000000000E+0002	 1.40240375112954E-0001	
 6.00500000000000E+0002	 1.40193572441340E-0001	
 6.02500000000000E+0002	 1.40215769769726E-0001	
 6.04500000000000E+0002	 1.40240467098112E-0001	
 6.06500000000000E+0002	 1.40314664426498E-0001	
 6.08500000000000E+0002	 1.40400361754884E-0001	
 6.10500000000000E+0002	 1.40523559083270E-0001	
 6.12500000000000E+0002	 1.40647256411656E-0001	
 6.14500000000000E+0002	 1.40685953740041E-0001	
 6.16500000000000E+0002	 1.40658151068427E-0001	
 6.18500000000000E+0002	 1.40581848396813E-0001	
 6.20500000000000E+0002	 1.40389045725199E-0001	
 6.22500000000000E+0002	 1.40083243053585E-0001	
 6.24500000000000E+0002	 1.39720940381971E-0001	
 6.26500000000000E+0002	 1.39386137710357E-0001	
 6.28500000000000E+0002	 1.39069835038743E-0001	
 6.30500000000000E+0002	 1.38704032367129E-0001	
 6.32500000000000E+0002	 1.38283229695515E-0001	
 6.34500000000000E+0002	 1.37843427023900E-0001	
 6.36500000000000E+0002	 1.37527624352286E-0001	
 6.38500000000000E+0002	 1.37314321680672E-0001	
 6.40500000000000E+0002	 1.37107519009058E-0001	
 6.42500000000000E+0002	 1.36849716337444E-0001	
 6.44500000000000E+0002	 1.36537413665830E-0001	
 6.46500000000000E+0002	 1.36232110994216E-0001	
 6.48500000000000E+0002	 1.35914308322602E-0001	
 6.50500000000000E+0002	 1.35587005650988E-0001	
 6.52500000000000E+0002	 1.35287702979374E-0001	
 6.54500000000000E+0002	 1.35034400307759E-0001	
 6.56500000000000E+0002	 1.34828597636145E-0001	
 6.58500000000000E+0002	 1.34607794964531E-0001	
 6.60500000000000E+0002	 1.34430992292917E-0001	
 6.62500000000000E+0002	 1.34299189621303E-0001	
 6.64500000000000E+0002	 1.34421386949689E-0001	
 6.66500000000000E+0002	 1.34823084278075E-0001	
 6.68500000000000E+0002	 1.34543281606461E-0001	
 6.70500000000000E+0002	 1.33476478934847E-0001	
 6.72500000000000E+0002	 1.32795676263233E-0001	
 6.74500000000000E+0002	 1.32287873591618E-0001	
 6.76500000000000E+0002	 1.31807570920004E-0001	
 6.78500000000000E+0002	 1.31329768248390E-0001	
 6.80500000000000E+0002	 1.30867965576776E-0001	
 6.82500000000000E+0002	 1.30454662905162E-0001	
 6.84500000000000E+0002	 1.30096360233548E-0001	
 6.86500000000000E+0002	 1.29765057561934E-0001	
 6.88500000000000E+0002	 1.29468754890320E-0001	
 6.90500000000000E+0002	 1.29251952218706E-0001	
 6.92500000000000E+0002	 1.29122149547092E-0001	
 6.94500000000000E+0002	 1.29063846875477E-0001	
 6.96500000000000E+0002	 1.29090544203863E-0001	
 6.98500000000000E+0002	 1.29102741532249E-0001	
 7.00500000000000E+0002	 1.28920938860635E-0001	
 7.02500000000000E+0002	 1.28483636189021E-0001	
 7.04500000000000E+0002	 1.27868833517407E-0001	
 7.06500000000000E+0002	 1.27216030845793E-0001	
 7.08500000000000E+0002	 1.26588728174179E-0001	
 7.10500000000000E+0002	 1.26086925502565E-0001	
 7.12500000000000E+0002	 1.25552622830951E-0001	
 7.14500000000000E+0002	 1.24788820159336E-0001	
 7.16500000000000E+0002	 1.23927017487722E-0001	
 7.18500000000000E+0002	 1.23250214816108E-0001	
 7.20500000000000E+0002	 1.22590912144494E-0001	
 7.22500000000000E+0002	 1.21910609472880E-0001	
 7.24500000000000E+0002	 1.21061806801266E-0001	
 7.26500000000000E+0002	 1.20061504129652E-0001	
 7.28500000000000E+0002	 1.18960701458038E-0001	
 7.30500000000000E+0002	 1.17939398786424E-0001	
 7.32500000000000E+0002	 1.17015596114810E-0001	
 7.34500000000000E+0002	 1.16253293443195E-0001	
 7.36500000000000E+0002	 1.15596490771581E-0001	
 7.38500000000000E+0002	 1.15064188099967E-0001	
 7.40500000000000E+0002	 1.14599885428353E-0001	
 7.42500000000000E+0002	 1.14241582756739E-0001	
 7.44500000000000E+0002	 1.13941780085125E-0001	
 7.46500000000000E+0002	 1.13673477413511E-0001	
 7.48500000000000E+0002	 1.13375674741897E-0001	
 7.50500000000000E+0002	 1.13033372070283E-0001	
 7.52500000000000E+0002	 1.12602569398669E-0001	
 7.54500000000000E+0002	 1.12096266727054E-0001	
 7.56500000000000E+0002	 1.11539964055440E-0001	
 7.58500000000000E+0002	 1.10958661383826E-0001	
 7.60500000000000E+0002	 1.10456858712212E-0001	
 7.62500000000000E+0002	 1.10036556040598E-0001	
 7.64500000000000E+0002	 1.09670253368984E-0001	
 7.66500000000000E+0002	 1.09202950697370E-0001	
 7.68500000000000E+0002	 1.08640648025756E-0001	
 7.70500000000000E+0002	 1.08073845354142E-0001	
 7.72500000000000E+0002	 1.07699542682528E-0001	
 7.74500000000000E+0002	 1.07592240010913E-0001	
 7.76500000000000E+0002	 1.07969937339299E-0001	
 7.78500000000000E+0002	 1.08566634667685E-0001	
 7.80500000000000E+0002	 1.08809331996071E-0001	
 7.82500000000000E+0002	 1.08373529324457E-0001	
 7.84500000000000E+0002	 1.07725226652843E-0001	
 7.86500000000000E+0002	 1.07118423981229E-0001	
 7.88500000000000E+0002	 1.06691621309615E-0001	
 7.90500000000000E+0002	 1.06381818638001E-0001	
 7.92500000000000E+0002	 1.06345015966387E-0001	
 7.94500000000000E+0002	 1.06559713294772E-0001	
 7.96500000000000E+0002	 1.06872410623158E-0001	
 7.98500000000000E+0002	 1.06931607951544E-0001	
 8.00500000000000E+0002	 1.06831305279930E-0001	
 8.02500000000000E+0002	 1.06704502608316E-0001	
 8.04500000000000E+0002	 1.06662199936702E-0001	
 8.06500000000000E+0002	 1.06572397265088E-0001	
 8.08500000000000E+0002	 1.06412594593474E-0001	
 8.10500000000000E+0002	 1.06164291921860E-0001	
 8.12500000000000E+0002	 1.05902489250246E-0001	
 8.14500000000000E+0002	 1.05614186578631E-0001	
 8.16500000000000E+0002	 1.05334883907017E-0001	
 8.18500000000000E+0002	 1.05049581235403E-0001	
 8.20500000000000E+0002	 1.04815278563789E-0001	
 8.22500000000000E+0002	 1.04623475892175E-0001	
 8.24500000000000E+0002	 1.04470173220561E-0001	
 8.26500000000000E+0002	 1.04289870548947E-0001	
 8.28500000000000E+0002	 1.04085567877333E-0001	
 8.30500000000000E+0002	 1.03832265205719E-0001	
 8.32500000000000E+0002	 1.03567462534105E-0001	
 8.34500000000000E+0002	 1.03307659862490E-0001	
 8.36500000000000E+0002	 1.03079357190876E-0001	
 8.38500000000000E+0002	 1.02912054519262E-0001	
 8.40500000000000E+0002	 1.02845251847648E-0001	
 8.42500000000000E+0002	 1.02876449176034E-0001	
 8.44500000000000E+0002	 1.03060646504420E-0001	
 8.46500000000000E+0002	 1.03425343832806E-0001	
 8.48500000000000E+0002	 1.03918541161192E-0001	
 8.50500000000000E+0002	 1.04431738489578E-0001	
 8.52500000000000E+0002	 1.05045935817964E-0001	
 8.54500000000000E+0002	 1.05689633146349E-0001	
 8.56500000000000E+0002	 1.06312830474735E-0001	
 8.58500000000000E+0002	 1.06819027803121E-0001	
 8.60500000000000E+0002	 1.07194725131507E-0001	
 8.62500000000000E+0002	 1.07369922459893E-0001	
 8.64500000000000E+0002	 1.07405119788279E-0001	
 8.66500000000000E+0002	 1.07399817116665E-0001	
 8.68500000000000E+0002	 1.07916014445051E-0001	
 8.70500000000000E+0002	 1.09594711773437E-0001	
 8.72500000000000E+0002	 1.11197909101823E-0001	
 8.74500000000000E+0002	 1.10564106430208E-0001	
 8.76500000000000E+0002	 1.08698303758594E-0001	
 8.78500000000000E+0002	 1.07050001086980E-0001	
 8.80500000000000E+0002	 1.05860198415366E-0001	
 8.82500000000000E+0002	 1.04934395743752E-0001	
 8.84500000000000E+0002	 1.04207093072138E-0001	
 8.86500000000000E+0002	 1.03562790400524E-0001	
 8.88500000000000E+0002	 1.03066487728910E-0001	
 8.90500000000000E+0002	 1.02649685057296E-0001	
 8.92500000000000E+0002	 1.02355882385682E-0001	
 8.94500000000000E+0002	 1.02122079714067E-0001	
 8.96500000000000E+0002	 1.01963277042453E-0001	
 8.98500000000000E+0002	 1.01811474370839E-0001	
 9.00500000000000E+0002	 1.01727671699225E-0001	
 9.02500000000000E+0002	 1.01740369027611E-0001	
 9.04500000000000E+0002	 1.01959566355997E-0001	
 9.06500000000000E+0002	 1.02384263684383E-0001	
 9.08500000000000E+0002	 1.03019461012769E-0001	
 9.10500000000000E+0002	 1.03712658341155E-0001	
 9.12500000000000E+0002	 1.04342855669541E-0001	
 9.14500000000000E+0002	 1.04759552997926E-0001	
 9.16500000000000E+0002	 1.04921750326312E-0001	
 9.18500000000000E+0002	 1.04859947654698E-0001	
 9.20500000000000E+0002	 1.04712144983084E-0001	
 9.22500000000000E+0002	 1.04600842311470E-0001	
 9.24500000000000E+0002	 1.04636039639856E-0001	
 9.26500000000000E+0002	 1.04865236968242E-0001	
 9.28500000000000E+0002	 1.05247434296628E-0001	
 9.30500000000000E+0002	 1.05711131625014E-0001	
 9.32500000000000E+0002	 1.06189328953400E-0001	
 9.34500000000000E+0002	 1.06664526281785E-0001	
 9.36500000000000E+0002	 1.07125223610171E-0001	
 9.38500000000000E+0002	 1.07580420938557E-0001	
 9.40500000000000E+0002	 1.08004118266943E-0001	
 9.42500000000000E+0002	 1.08418315595329E-0001	
 9.44500000000000E+0002	 1.08837012923715E-0001	
 9.46500000000000E+0002	 1.09277710252101E-0001	
 9.48500000000000E+0002	 1.09753907580487E-0001	
 9.50500000000000E+0002	 1.10338104908873E-0001	
 9.52500000000000E+0002	 1.11117302237259E-0001	
 9.54500000000000E+0002	 1.12142999565644E-0001	
 9.56500000000000E+0002	 1.13403196894030E-0001	
 9.58500000000000E+0002	 1.14808894222416E-0001	
 9.60500000000000E+0002	 1.16272591550802E-0001	
 9.62500000000000E+0002	 1.17654788879188E-0001	
 9.64500000000000E+0002	 1.18882986207574E-0001	
 9.66500000000000E+0002	 1.19874683535960E-0001	
 9.68500000000000E+0002	 1.20637880864346E-0001	
 9.70500000000000E+0002	 1.21175078192732E-0001	
 9.72500000000000E+0002	 1.21666275521118E-0001	
 9.74500000000000E+0002	 1.22235972849503E-0001	
 9.76500000000000E+0002	 1.23159670177889E-0001	
 9.78500000000000E+0002	 1.24560367506275E-0001	
 9.80500000000000E+0002	 1.26598564834661E-0001	
 9.82500000000000E+0002	 1.29152262163047E-0001	
 9.84500000000000E+0002	 1.32058459491433E-0001	
 9.86500000000000E+0002	 1.34953156819819E-0001	
 9.88500000000000E+0002	 1.37672854148205E-0001	
 9.90500000000000E+0002	 1.39949051476591E-0001	
 9.92500000000000E+0002	 1.41707748804977E-0001	
 9.94500000000000E+0002	 1.42851946133362E-0001	
 9.96500000000000E+0002	 1.43579143461748E-0001	
 9.98500000000000E+0002	 1.44071840790134E-0001	
 1.00050000000000E+0003	 1.44677038118520E-0001	
 1.00250000000000E+0003	 1.45578735446906E-0001	
 1.00450000000000E+0003	 1.46982432775292E-0001	
 1.00650000000000E+0003	 1.48946130103678E-0001	
 1.00850000000000E+0003	 1.51452827432064E-0001	
 1.01050000000000E+0003	 1.54269024760450E-0001	
 1.01250000000000E+0003	 1.57176722088836E-0001	
 1.01450000000000E+0003	 1.60019919417221E-0001	
 1.01650000000000E+0003	 1.62738116745607E-0001	
 1.01850000000000E+0003	 1.65381314073993E-0001	
 1.02050000000000E+0003	 1.68012511402379E-0001	
 1.02250000000000E+0003	 1.70736708730765E-0001	
 1.02450000000000E+0003	 1.73587906059151E-0001	
 1.02650000000000E+0003	 1.76550603387537E-0001	
 1.02850000000000E+0003	 1.79435800715923E-0001	
 1.03050000000000E+0003	 1.82108498044309E-0001	
 1.03250000000000E+0003	 1.84355695372695E-0001	
 1.03450000000000E+0003	 1.86188392701080E-0001	
 1.03650000000000E+0003	 1.87656590029466E-0001	
 1.03850000000000E+0003	 1.88922787357852E-0001	
 1.04050000000000E+0003	 1.90109984686238E-0001	
 1.04250000000000E+0003	 1.91442182014624E-0001	
 1.04450000000000E+0003	 1.92951379343010E-0001	
 1.04650000000000E+0003	 1.94673076671396E-0001	
 1.04850000000000E+0003	 1.96493773999782E-0001	
 1.05050000000000E+0003	 1.98270471328168E-0001	
 1.05250000000000E+0003	 1.99830168656554E-0001	
 1.05450000000000E+0003	 2.01122865984939E-0001	
 1.05650000000000E+0003	 2.02081063313325E-0001	
 1.05850000000000E+0003	 2.02693760641711E-0001	
 1.06050000000000E+0003	 2.02935957970097E-0001	
 1.06250000000000E+0003	 2.02851155298483E-0001	
 1.06450000000000E+0003	 2.02600352626869E-0001	
 1.06650000000000E+0003	 2.02381549955255E-0001	
 1.06850000000000E+0003	 2.02328747283641E-0001	
 1.07050000000000E+0003	 2.02422944612027E-0001	
 1.07250000000000E+0003	 2.02642641940413E-0001	
 1.07450000000000E+0003	 2.02886339268798E-0001	
 1.07650000000000E+0003	 2.03066036597184E-0001	
 1.07850000000000E+0003	 2.03009733925570E-0001	
 1.08050000000000E+0003	 2.02640931253956E-0001	
 1.08250000000000E+0003	 2.01891128582342E-0001	
 1.08450000000000E+0003	 2.00762325910728E-0001	
 1.08650000000000E+0003	 1.99182023239114E-0001	
 1.08850000000000E+0003	 1.97181220567500E-0001	
 1.09050000000000E+0003	 1.94858417895886E-0001	
 1.09250000000000E+0003	 1.92497115224272E-0001	
 1.09450000000000E+0003	 1.90351812552657E-0001	
 1.09650000000000E+0003	 1.88560009881043E-0001	
 1.09850000000000E+0003	 1.87047707209429E-0001	
 1.10050000000000E+0003	 1.85760404537815E-0001	
 1.10250000000000E+0003	 1.84624601866201E-0001	
 1.10450000000000E+0003	 1.83594299194587E-0001	
 1.10650000000000E+0003	 1.82657496522973E-0001	
 1.10850000000000E+0003	 1.81870193851359E-0001	
 1.11050000000000E+0003	 1.81241891179745E-0001	
 1.11250000000000E+0003	 1.80680088508131E-0001	
 1.11450000000000E+0003	 1.79956785836516E-0001	
 1.11650000000000E+0003	 1.78877983164902E-0001	
 1.11850000000000E+0003	 1.77338180493288E-0001	
 1.12050000000000E+0003	 1.75331377821674E-0001	
 1.12250000000000E+0003	 1.72901575150060E-0001	
 1.12450000000000E+0003	 1.70119772478446E-0001	
 1.12650000000000E+0003	 1.67047469806832E-0001	
 1.12850000000000E+0003	 1.63778667135218E-0001	
 1.13050000000000E+0003	 1.60397364463604E-0001	
 1.13250000000000E+0003	 1.57109561791990E-0001	
 1.13450000000000E+0003	 1.54121759120375E-0001	
 1.13650000000000E+0003	 1.51559456448761E-0001	
 1.13850000000000E+0003	 1.49498153777147E-0001	
 1.14050000000000E+0003	 1.48011851105533E-0001	
 1.14250000000000E+0003	 1.47077548433919E-0001	
 1.14450000000000E+0003	 1.46574245762305E-0001	
 1.14650000000000E+0003	 1.46274443090691E-0001	
 1.14850000000000E+0003	 1.45959140419077E-0001	
 1.15050000000000E+0003	 1.45455337747463E-0001	
 1.15250000000000E+0003	 1.44701535075849E-0001	
 1.15450000000000E+0003	 1.43686232404234E-0001	
 1.15650000000000E+0003	 1.42480929732620E-0001	
 1.15850000000000E+0003	 1.41184627061006E-0001	
 1.16050000000000E+0003	 1.39903824389392E-0001	
 1.16250000000000E+0003	 1.38694021717778E-0001	
 1.16450000000000E+0003	 1.37577719046164E-0001	
 1.16650000000000E+0003	 1.36565416374550E-0001	
 1.16850000000000E+0003	 1.35681113702936E-0001	
 1.17050000000000E+0003	 1.34895811031322E-0001	
 1.17250000000000E+0003	 1.34129508359708E-0001	
 1.17450000000000E+0003	 1.33293205688093E-0001	
 1.17650000000000E+0003	 1.32442403016479E-0001	
 1.17850000000000E+0003	 1.31681600344865E-0001	
 1.18050000000000E+0003	 1.31165297673251E-0001	
 1.18250000000000E+0003	 1.30987495001637E-0001	
 1.18450000000000E+0003	 1.31220692330023E-0001	
 1.18650000000000E+0003	 1.31886889658409E-0001	
 1.18850000000000E+0003	 1.33034086986795E-0001	
 1.19050000000000E+0003	 1.34633284315181E-0001	
 1.19250000000000E+0003	 1.36677481643567E-0001	
 1.19450000000000E+0003	 1.39087678971952E-0001	
 1.19650000000000E+0003	 1.41833376300338E-0001	
 1.19850000000000E+0003	 1.44784573628724E-0001	
 1.20050000000000E+0003	 1.47822770957110E-0001	
 1.20250000000000E+0003	 1.50811968285496E-0001	
 1.20450000000000E+0003	 1.53695165613882E-0001	
 1.20650000000000E+0003	 1.56364362942268E-0001	
 1.20850000000000E+0003	 1.58767060270654E-0001	
 1.21050000000000E+0003	 1.60904257599040E-0001	
 1.21250000000000E+0003	 1.62897454927426E-0001	
 1.21450000000000E+0003	 1.64787152255811E-0001	
 1.21650000000000E+0003	 1.66534849584197E-0001	
 1.21850000000000E+0003	 1.67979046912583E-0001	
 1.22050000000000E+0003	 1.69087244240969E-0001	
 1.22250000000000E+0003	 1.69982941569355E-0001	
 1.22450000000000E+0003	 1.70772638897741E-0001	
 1.22650000000000E+0003	 1.71514836226127E-0001	
 1.22850000000000E+0003	 1.72212033554513E-0001	
 1.23050000000000E+0003	 1.72828230882899E-0001	
 1.23250000000000E+0003	 1.73311928211285E-0001	
 1.23450000000000E+0003	 1.73623625539670E-0001	
 1.23650000000000E+0003	 1.73683822868056E-0001	
 1.23850000000000E+0003	 1.73485520196442E-0001	
 1.24050000000000E+0003	 1.73009217524828E-0001	
 1.24250000000000E+0003	 1.72256414853214E-0001	
 1.24450000000000E+0003	 1.71215612181600E-0001	
 1.24650000000000E+0003	 1.69925809509986E-0001	
 1.24850000000000E+0003	 1.68382006838372E-0001	
 1.25050000000000E+0003	 1.66655204166758E-0001	
 1.25250000000000E+0003	 1.64787901495144E-0001	
 1.25450000000000E+0003	 1.62845598823529E-0001	
 1.25650000000000E+0003	 1.60859796151915E-0001	
 1.25850000000000E+0003	 1.58817493480301E-0001	
 1.26050000000000E+0003	 1.56693190808687E-0001	
 1.26250000000000E+0003	 1.54481388137073E-0001	
 1.26450000000000E+0003	 1.52218085465459E-0001	
 1.26650000000000E+0003	 1.49992282793845E-0001	
 1.26850000000000E+0003	 1.47935480122231E-0001	
 1.27050000000000E+0003	 1.46090177450617E-0001	
 1.27250000000000E+0003	 1.44517374779003E-0001	
 1.27450000000000E+0003	 1.43162572107388E-0001	
 1.27650000000000E+0003	 1.41987269435774E-0001	
 1.27850000000000E+0003	 1.40929466764160E-0001	
 1.28050000000000E+0003	 1.39995664092546E-0001	
 1.28250000000000E+0003	 1.39030861420932E-0001	
 1.28450000000000E+0003	 1.37981558749318E-0001	
 1.28650000000000E+0003	 1.36834756077704E-0001	
 1.28850000000000E+0003	 1.35773953406090E-0001	
 1.29050000000000E+0003	 1.34847150734476E-0001	
 1.29250000000000E+0003	 1.34062848062862E-0001	
 1.29450000000000E+0003	 1.33331045391247E-0001	
 1.29650000000000E+0003	 1.32742242719633E-0001	
 1.29850000000000E+0003	 1.32334440048019E-0001	
 1.30050000000000E+0003	 1.32127637376405E-0001	
 1.30250000000000E+0003	 1.32016834704791E-0001	
 1.30450000000000E+0003	 1.32000032033177E-0001	
 1.30650000000000E+0003	 1.32023729361563E-0001	
 1.30850000000000E+0003	 1.32108426689949E-0001	
 1.31050000000000E+0003	 1.32175624018335E-0001	
 1.31250000000000E+0003	 1.32191821346721E-0001	
 1.31450000000000E+0003	 1.32175018675106E-0001	
 1.31650000000000E+0003	 1.32057716003492E-0001	
 1.31850000000000E+0003	 1.31816413331878E-0001	
 1.32050000000000E+0003	 1.31558610660264E-0001	
 1.32250000000000E+0003	 1.31268307988650E-0001	
 1.32450000000000E+0003	 1.30932005317036E-0001	
 1.32650000000000E+0003	 1.30611702645422E-0001	
 1.32850000000000E+0003	 1.30371399973808E-0001	
 1.33050000000000E+0003	 1.30213097302194E-0001	
 1.33250000000000E+0003	 1.30095294630580E-0001	
 1.33450000000000E+0003	 1.29844991958965E-0001	
 1.33650000000000E+0003	 1.29289189287351E-0001	
 1.33850000000000E+0003	 1.28605886615737E-0001	
 1.34050000000000E+0003	 1.28264583944123E-0001	
 1.34250000000000E+0003	 1.28198281272509E-0001	
 1.34450000000000E+0003	 1.27913478600895E-0001	
 1.34650000000000E+0003	 1.27410175929281E-0001	
 1.34850000000000E+0003	 1.26975873257667E-0001	
 1.35050000000000E+0003	 1.26721570586053E-0001	
 1.35250000000000E+0003	 1.26641267914439E-0001	
 1.35450000000000E+0003	 1.26704465242824E-0001	
 1.35650000000000E+0003	 1.26941162571210E-0001	
 1.35850000000000E+0003	 1.27251359899596E-0001	
 1.36050000000000E+0003	 1.27525057227982E-0001	
 1.36250000000000E+0003	 1.28272254556368E-0001	
 1.36450000000000E+0003	 1.30126951884754E-0001	
 1.36650000000000E+0003	 1.32404649213140E-0001	
 1.36850000000000E+0003	 1.34472346541526E-0001	
 1.37050000000000E+0003	 1.36125043869912E-0001	
 1.37250000000000E+0003	 1.37222741198298E-0001	
 1.37450000000000E+0003	 1.38274938526683E-0001	
 1.37650000000000E+0003	 1.39548635855069E-0001	
 1.37850000000000E+0003	 1.40590833183455E-0001	
 1.38050000000000E+0003	 1.41404530511841E-0001	
 1.38250000000000E+0003	 1.42187227840227E-0001	
 1.38450000000000E+0003	 1.42673425168613E-0001	
 1.38650000000000E+0003	 1.42767122496999E-0001	
 1.38850000000000E+0003	 1.43137819825385E-0001	
 1.39050000000000E+0003	 1.43775517153771E-0001	
 1.39250000000000E+0003	 1.44161714482156E-0001	
 1.39450000000000E+0003	 1.44397411810542E-0001	
 1.39650000000000E+0003	 1.44926109138928E-0001	
 1.39850000000000E+0003	 1.45715806467314E-0001	
 1.40050000000000E+0003	 1.46731003795700E-0001	
 1.40250000000000E+0003	 1.47361701124086E-0001	
 1.40450000000000E+0003	 1.47544898452472E-0001	
 1.40650000000000E+0003	 1.47787095780858E-0001	
 1.40850000000000E+0003	 1.48076793109244E-0001	
 1.41050000000000E+0003	 1.48107490437630E-0001	
 1.41250000000000E+0003	 1.48003187766015E-0001	
 1.41450000000000E+0003	 1.47630885094401E-0001	
 1.41650000000000E+0003	 1.46584582422787E-0001	
 1.41850000000000E+0003	 1.45629279751173E-0001	
 1.42050000000000E+0003	 1.45310477079559E-0001	
 1.42250000000000E+0003	 1.44879174407945E-0001	
 1.42450000000000E+0003	 1.44310371736331E-0001	
 1.42650000000000E+0003	 1.43665069064717E-0001	
 1.42850000000000E+0003	 1.43001766393103E-0001	
 1.43050000000000E+0003	 1.42625463721489E-0001	
 1.43250000000000E+0003	 1.42698161049874E-0001	
 1.43450000000000E+0003	 1.42662858378260E-0001	
 1.43650000000000E+0003	 1.43029555706646E-0001	
 1.43850000000000E+0003	 1.44494253035032E-0001	
 1.44050000000000E+0003	 1.46134450363418E-0001	
 1.44250000000000E+0003	 1.47507647691804E-0001	
 1.44450000000000E+0003	 1.48467345020190E-0001	
 1.44650000000000E+0003	 1.49181542348576E-0001	
 1.44850000000000E+0003	 1.50105239676962E-0001	
 1.45050000000000E+0003	 1.51290437005348E-0001	
 1.45250000000000E+0003	 1.52110634333733E-0001	
 1.45450000000000E+0003	 1.51960831662119E-0001	
 1.45650000000000E+0003	 1.51237528990505E-0001	
 1.45850000000000E+0003	 1.50515726318891E-0001	
 1.46050000000000E+0003	 1.50080923647277E-0001	
 1.46250000000000E+0003	 1.49396120975663E-0001	
 1.46450000000000E+0003	 1.47918818304049E-0001	
 1.46650000000000E+0003	 1.46405515632435E-0001	
 1.46850000000000E+0003	 1.44642712960821E-0001	
 1.47050000000000E+0003	 1.41826910289207E-0001	
 1.47250000000000E+0003	 1.38249607617592E-0001	
 1.47450000000000E+0003	 1.35151304945978E-0001	
 1.47650000000000E+0003	 1.33299502274364E-0001	
 1.47850000000000E+0003	 1.32474199602750E-0001	
 1.48050000000000E+0003	 1.31964896931136E-0001	
 1.48250000000000E+0003	 1.31688594259522E-0001	
 1.48450000000000E+0003	 1.31517791587908E-0001	
 1.48650000000000E+0003	 1.31336988916294E-0001	
 1.48850000000000E+0003	 1.31333686244680E-0001	
 1.49050000000000E+0003	 1.32654383573066E-0001	
 1.49250000000000E+0003	 1.35054080901451E-0001	
 1.49450000000000E+0003	 1.37490278229837E-0001	
 1.49650000000000E+0003	 1.39810475558223E-0001	
 1.49850000000000E+0003	 1.42060672886609E-0001	
 1.50050000000000E+0003	 1.44728870214995E-0001	
 1.50250000000000E+0003	 1.47489567543381E-0001	
 1.50450000000000E+0003	 1.49743264871767E-0001	
 1.50650000000000E+0003	 1.52728462200153E-0001	
 1.50850000000000E+0003	 1.56718659528539E-0001	
 1.51050000000000E+0003	 1.61194356856925E-0001	
 1.51250000000000E+0003	 1.66288554185310E-0001	
 1.51450000000000E+0003	 1.70348251513696E-0001	
 1.51650000000000E+0003	 1.73623448842082E-0001	
 1.51850000000000E+0003	 1.76347646170468E-0001	
 1.52050000000000E+0003	 1.79037843498854E-0001	
 1.52250000000000E+0003	 1.82209540827240E-0001	
 1.52450000000000E+0003	 1.84803238155626E-0001	
 1.52650000000000E+0003	 1.87865935484012E-0001	
 1.52850000000000E+0003	 1.90973632812398E-0001	
 1.53050000000000E+0003	 1.93406330140784E-0001	
 1.53250000000000E+0003	 1.95130527469169E-0001	
 1.53450000000000E+0003	 1.97203224797555E-0001	
 1.53650000000000E+0003	 1.98748422125941E-0001	
 1.53850000000000E+0003	 2.00011619454327E-0001	
 1.54050000000000E+0003	 2.00691816782713E-0001	
 1.54250000000000E+0003	 2.00479514111099E-0001	
 1.54450000000000E+0003	 2.00823211439485E-0001	
 1.54650000000000E+0003	 2.01071908767871E-0001	
 1.54850000000000E+0003	 2.00248606096257E-0001	
 1.55050000000000E+0003	 1.98248303424643E-0001	
 1.55250000000000E+0003	 1.95760000753028E-0001	
 1.55450000000000E+0003	 1.92491198081414E-0001	
 1.55650000000000E+0003	 1.88200895409800E-0001	
 1.55850000000000E+0003	 1.83937592738186E-0001	
 1.56050000000000E+0003	 1.80427790066572E-0001	
 1.56250000000000E+0003	 1.78006987394958E-0001	
 1.56450000000000E+0003	 1.75663184723344E-0001	
 1.56650000000000E+0003	 1.72648382051730E-0001	
 1.56850000000000E+0003	 1.69777579380116E-0001	
 1.57050000000000E+0003	 1.67289276708502E-0001	
 1.57250000000000E+0003	 1.65232974036887E-0001	
 1.57450000000000E+0003	 1.63779671365273E-0001	
 1.57650000000000E+0003	 1.62439368693659E-0001	
 1.57850000000000E+0003	 1.60162566022045E-0001	
 1.58050000000000E+0003	 1.58766763350431E-0001	
 1.58250000000000E+0003	 1.57898960678817E-0001	
 1.58450000000000E+0003	 1.57354158007203E-0001	
 1.58650000000000E+0003	 1.57218855335589E-0001	
 1.58850000000000E+0003	 1.57660052663975E-0001	
 1.59050000000000E+0003	 1.58541749992361E-0001	
 1.59250000000000E+0003	 1.59945947320746E-0001	
 1.59450000000000E+0003	 1.61669144649132E-0001	
 1.59650000000000E+0003	 1.63790841977518E-0001	
 1.59850000000000E+0003	 1.66042039305904E-0001	
 1.60050000000000E+0003	 1.68583736634290E-0001	
 1.60250000000000E+0003	 1.71383433962676E-0001	
 1.60450000000000E+0003	 1.74622131291062E-0001	
 1.60650000000000E+0003	 1.78147828619448E-0001	
 1.60850000000000E+0003	 1.82347525947834E-0001	
 1.61050000000000E+0003	 1.87188223276220E-0001	
 1.61250000000000E+0003	 1.92500420604605E-0001	
 1.61450000000000E+0003	 1.97885117932991E-0001	
 1.61650000000000E+0003	 2.05073815261377E-0001	
 1.61850000000000E+0003	 2.12140012589763E-0001	
 1.62050000000000E+0003	 2.17852709918149E-0001	
 1.62250000000000E+0003	 2.24384907246535E-0001	
 1.62450000000000E+0003	 2.31347604574921E-0001	
 1.62650000000000E+0003	 2.37443301903307E-0001	
 1.62850000000000E+0003	 2.43408499231693E-0001	
 1.63050000000000E+0003	 2.48778196560079E-0001	
 1.63250000000000E+0003	 2.52733893888464E-0001	
 1.63450000000000E+0003	 2.56158591216850E-0001	
 1.63650000000000E+0003	 2.60200788545236E-0001	
 1.63850000000000E+0003	 2.63426485873622E-0001	
 1.64050000000000E+0003	 2.66344183202008E-0001	
 1.64250000000000E+0003	 2.68527880530394E-0001	
 1.64450000000000E+0003	 2.69864577858780E-0001	
 1.64650000000000E+0003	 2.71233775187166E-0001	
 1.64850000000000E+0003	 2.72563972515552E-0001	
 1.65050000000000E+0003	 2.73914169843938E-0001	
 1.65250000000000E+0003	 2.75758867172323E-0001	
 1.65450000000000E+0003	 2.76449564500709E-0001	
 1.65650000000000E+0003	 2.76137761829095E-0001	
 1.65850000000000E+0003	 2.75981459157481E-0001	
 1.66050000000000E+0003	 2.74275656485867E-0001	
 1.66250000000000E+0003	 2.71676353814253E-0001	
 1.66450000000000E+0003	 2.68635551142639E-0001	
 1.66650000000000E+0003	 2.65378748471025E-0001	
 1.66850000000000E+0003	 2.61690445799411E-0001	
 1.67050000000000E+0003	 2.57791143127797E-0001	
 1.67250000000000E+0003	 2.54289840456182E-0001	
 1.67450000000000E+0003	 2.51126537784568E-0001	
 1.67650000000000E+0003	 2.47663735112954E-0001	
 1.67850000000000E+0003	 2.44437932441340E-0001	
 1.68050000000000E+0003	 2.40932629769726E-0001	
 1.68250000000000E+0003	 2.36941827098112E-0001	
 1.68450000000000E+0003	 2.33694524426498E-0001	
 1.68650000000000E+0003	 2.29984221754884E-0001	
 1.68850000000000E+0003	 2.26448419083270E-0001	
 1.69050000000000E+0003	 2.23104616411656E-0001	
 1.69250000000000E+0003	 2.19285813740041E-0001	
 1.69450000000000E+0003	 2.15531511068427E-0001	
 1.69650000000000E+0003	 2.10558208396813E-0001	
 1.69850000000000E+0003	 2.04719405725199E-0001	
 1.70050000000000E+0003	 1.99314603053585E-0001	
 1.70250000000000E+0003	 1.94290300381971E-0001	
 1.70450000000000E+0003	 1.90774997710357E-0001	
 1.70650000000000E+0003	 1.87376195038743E-0001	
 1.70850000000000E+0003	 1.84093392367129E-0001	
 1.71050000000000E+0003	 1.81183089695515E-0001	
 1.71250000000000E+0003	 1.77825787023900E-0001	
 1.71450000000000E+0003	 1.74334484352286E-0001	
 1.71650000000000E+0003	 1.71221681680672E-0001	
 1.71850000000000E+0003	 1.68244379009058E-0001	
 1.72050000000000E+0003	 1.65299576337444E-0001	
 1.72250000000000E+0003	 1.63186773665830E-0001	
 1.72450000000000E+0003	 1.60881970994216E-0001	
 1.72650000000000E+0003	 1.58507168322602E-0001	
 1.72850000000000E+0003	 1.56158365650988E-0001	
 1.73050000000000E+0003	 1.53915062979374E-0001	
 1.73250000000000E+0003	 1.52333260307759E-0001	
 1.73450000000000E+0003	 1.51619957636145E-0001	
 1.73650000000000E+0003	 1.50558154964531E-0001	
 1.73850000000000E+0003	 1.50114352292917E-0001	
 1.74050000000000E+0003	 1.49837049621303E-0001	
 1.74250000000000E+0003	 1.49129246949689E-0001	
 1.74450000000000E+0003	 1.48466444278075E-0001	
 1.74650000000000E+0003	 1.47358641606461E-0001	
 1.74850000000000E+0003	 1.45694338934847E-0001	
 1.75050000000000E+0003	 1.43941536263233E-0001	
 1.75250000000000E+0003	 1.42146733591618E-0001	
 1.75450000000000E+0003	 1.39826930920004E-0001	
 1.75650000000000E+0003	 1.37084628248390E-0001	
 1.75850000000000E+0003	 1.33898825576776E-0001	
 1.76050000000000E+0003	 1.30813022905162E-0001	
 1.76250000000000E+0003	 1.27860220233548E-0001	
 1.76450000000000E+0003	 1.24965417561934E-0001	
 1.76650000000000E+0003	 1.22316114890320E-0001	
 1.76850000000000E+0003	 1.19398312218706E-0001	
 1.77050000000000E+0003	 1.16824009547092E-0001	
 1.77250000000000E+0003	 1.15280206875477E-0001	
 1.77450000000000E+0003	 1.13583904203863E-0001	
 1.77650000000000E+0003	 1.12130101532249E-0001	
 1.77850000000000E+0003	 1.10904798860635E-0001	
 1.78050000000000E+0003	 1.09628996189021E-0001	
 1.78250000000000E+0003	 1.08437693517407E-0001	
 1.78450000000000E+0003	 1.07408890845793E-0001	
 1.78650000000000E+0003	 1.06579588174179E-0001	
 1.78850000000000E+0003	 1.05573285502565E-0001	
 1.79050000000000E+0003	 1.04341482830951E-0001	
 1.79250000000000E+0003	 1.03483180159336E-0001	
 1.79450000000000E+0003	 1.02898877487722E-0001	
 1.79650000000000E+0003	 1.02359574816108E-0001	
 1.79850000000000E+0003	 1.01673272144494E-0001	
 1.80050000000000E+0003	 1.00766469472880E-0001	
 1.80250000000000E+0003	 1.00121666801266E-0001	
 1.80450000000000E+0003	 9.98143641296519E-0002	
 1.80650000000000E+0003	 9.94350614580378E-0002	
 1.80850000000000E+0003	 9.87587587864237E-0002	
 1.81050000000000E+0003	 9.81519561148096E-0002	
 1.81250000000000E+0003	 9.76986534431955E-0002	
 1.81450000000000E+0003	 9.73353507715814E-0002	
 1.81650000000000E+0003	 9.69010480999673E-0002	
 1.81850000000000E+0003	 9.64537454283532E-0002	
 1.82050000000000E+0003	 9.60244427567391E-0002	
 1.82250000000000E+0003	 9.53681400851250E-0002	
 1.82450000000000E+0003	 9.46313374135109E-0002	
 1.82650000000000E+0003	 9.40315347418968E-0002	
 1.82850000000000E+0003	 9.35807320702827E-0002	
 1.83050000000000E+0003	 9.34464293986686E-0002	
 1.83250000000000E+0003	 9.32486267270545E-0002	
 1.83450000000000E+0003	 9.32168240554404E-0002	
 1.83650000000000E+0003	 9.30245213838263E-0002	
 1.83850000000000E+0003	 9.27322187122122E-0002	
 1.84050000000000E+0003	 9.22089160405981E-0002	
 1.84250000000000E+0003	 9.15201133689840E-0002	
 1.84450000000000E+0003	 9.11533106973699E-0002	
 1.84650000000000E+0003	 9.08670080257558E-0002	
 1.84850000000000E+0003	 9.09352053541417E-0002	
 1.85050000000000E+0003	 9.10359026825276E-0002	
 1.85250000000000E+0003	 9.09216000109135E-0002	
 1.85450000000000E+0003	 9.07277973392994E-0002	
 1.85650000000000E+0003	 9.04724946676853E-0002	
 1.85850000000000E+0003	 9.02286919960712E-0002	
 1.86050000000000E+0003	 8.99903893244571E-0002	
 1.86250000000000E+0003	 8.97795866528430E-0002	
 1.86450000000000E+0003	 8.94452839812289E-0002	
 1.86650000000000E+0003	 8.88849813096148E-0002	
 1.86850000000000E+0003	 8.84721786380007E-0002	
 1.87050000000000E+0003	 8.84033759663866E-0002	
 1.87250000000000E+0003	 8.85685732947725E-0002	
 1.87450000000000E+0003	 8.87407706231584E-0002	
 1.87650000000000E+0003	 8.86479679515443E-0002	
 1.87850000000000E+0003	 8.84926652799302E-0002	
 1.88050000000000E+0003	 8.83398626083161E-0002	
 1.88250000000000E+0003	 8.81975599367020E-0002	
 1.88450000000000E+0003	 8.80557572650879E-0002	
 1.88650000000000E+0003	 8.77894545934738E-0002	
 1.88850000000000E+0003	 8.74741519218597E-0002	
 1.89050000000000E+0003	 8.73423492502456E-0002	
 1.89250000000000E+0003	 8.72750465786315E-0002	
 1.89450000000000E+0003	 8.72832439070174E-0002	
 1.89650000000000E+0003	 8.72329412354033E-0002	
 1.89850000000000E+0003	 8.71746385637892E-0002	
 1.90050000000000E+0003	 8.71138358921751E-0002	
 1.90250000000000E+0003	 8.70185332205610E-0002	
 1.90450000000000E+0003	 8.69057305489469E-0002	
 1.90650000000000E+0003	 8.67399278773328E-0002	
 1.90850000000000E+0003	 8.65716252057187E-0002	
 1.91050000000000E+0003	 8.64958225341046E-0002	
 1.91250000000000E+0003	 8.64585198624905E-0002	
 1.91450000000000E+0003	 8.63157171908764E-0002	
 1.91650000000000E+0003	 8.60219145192623E-0002	
 1.91850000000000E+0003	 8.58871118476482E-0002	
 1.92050000000000E+0003	 8.57378091760341E-0002	
 1.92250000000000E+0003	 8.57655065044199E-0002	
 1.92450000000000E+0003	 8.58367038328058E-0002	
 1.92650000000000E+0003	 8.59009011611917E-0002	
 1.92850000000000E+0003	 8.59390984895776E-0002	
 1.93050000000000E+0003	 8.58892958179635E-0002	
 1.93250000000000E+0003	 8.58229931463494E-0002	
 1.93450000000000E+0003	 8.57661904747353E-0002	
 1.93650000000000E+0003	 8.57198878031212E-0002	
 1.93850000000000E+0003	 8.56225851315071E-0002	
 1.94050000000000E+0003	 8.53637824598930E-0002	
 1.94250000000000E+0003	 8.51944797882789E-0002	
 1.94450000000000E+0003	 8.52091771166648E-0002	
 1.94650000000000E+0003	 8.53513744450507E-0002	
 1.94850000000000E+0003	 8.54400717734366E-0002	
 1.95050000000000E+0003	 8.54287691018225E-0002	
 1.95250000000000E+0003	 8.53984664302084E-0002	
 1.95450000000000E+0003	 8.53526637585943E-0002	
 1.95650000000000E+0003	 8.53243610869802E-0002	
 1.95850000000000E+0003	 8.53000584153661E-0002	
 1.96050000000000E+0003	 8.52812557437520E-0002	
 1.96250000000000E+0003	 8.52339530721379E-0002	
 1.96450000000000E+0003	 8.51246504005238E-0002	
 1.96650000000000E+0003	 8.50198477289097E-0002	
 1.96850000000000E+0003	 8.50120450572956E-0002	
 1.97050000000000E+0003	 8.50607423856815E-0002	
 1.97250000000000E+0003	 8.51169397140674E-0002	
 1.97450000000000E+0003	 8.51066370424533E-0002	
 1.97650000000000E+0003	 8.50878343708392E-0002	
 1.97850000000000E+0003	 8.50660316992251E-0002	
 1.98050000000000E+0003	 8.50457290276110E-0002	
 1.98250000000000E+0003	 8.50269263559969E-0002	
 1.98450000000000E+0003	 8.49986236843828E-0002	
 1.98650000000000E+0003	 8.49443210127687E-0002	
 1.98850000000000E+0003	 8.48510183411546E-0002	
 1.99050000000000E+0003	 8.47222156695405E-0002	
 1.99250000000000E+0003	 8.47034129979264E-0002	
 1.99450000000000E+0003	 8.47821103263123E-0002	
 1.99650000000000E+0003	 8.48948076546982E-0002	
 1.99850000000000E+0003	 8.49475049830841E-0002	
 2.00050000000000E+0003	 8.49437023114700E-0002	
 2.00250000000000E+0003	 8.49438996398559E-0002	
 2.00450000000000E+0003	 8.49410969682418E-0002	
 2.00650000000000E+0003	 8.49372942966277E-0002	
 2.00850000000000E+0003	 8.49359916250136E-0002	
 2.01050000000000E+0003	 8.49486889533995E-0002	
 2.01250000000000E+0003	 8.49538862817854E-0002	
 2.01450000000000E+0003	 8.49160836101713E-0002	
 2.01650000000000E+0003	 8.48717809385572E-0002	
 2.01850000000000E+0003	 8.48894782669431E-0002	
 2.02050000000000E+0003	 8.49591755953290E-0002	
 2.02250000000000E+0003	 8.50323729237149E-0002	
 2.02450000000000E+0003	 8.50650702521008E-0002	
 2.02650000000000E+0003	 8.50912675804867E-0002	
 2.02850000000000E+0003	 8.51194649088726E-0002	
 2.03050000000000E+0003	 8.51436622372585E-0002	
 2.03250000000000E+0003	 8.51613595656444E-0002	
 2.03450000000000E+0003	 8.51790568940303E-0002	
 2.03650000000000E+0003	 8.51957542224162E-0002	
 2.03850000000000E+0003	 8.51889515508021E-0002	
 2.04050000000000E+0003	 8.51761488791880E-0002	
 2.04250000000000E+0003	 8.51888462075739E-0002	
 2.04450000000000E+0003	 8.52225435359598E-0002	
 2.04650000000000E+0003	 8.52547408643457E-0002	
 2.04850000000000E+0003	 8.52689381927316E-0002	
 2.05050000000000E+0003	 8.52846355211175E-0002	
 2.05250000000000E+0003	 8.52963328495034E-0002	
 2.05450000000000E+0003	 8.53080301778893E-0002	
 2.05650000000000E+0003	 8.53157275062752E-0002	
 2.05850000000000E+0003	 8.53214248346611E-0002	
 2.06050000000000E+0003	 8.53261221630470E-0002	
 2.06250000000000E+0003	 8.53043194914329E-0002	
 2.06450000000000E+0003	 8.52765168198188E-0002	
 2.06650000000000E+0003	 8.52832141482047E-0002	
 2.06850000000000E+0003	 8.53149114765906E-0002	
 2.07050000000000E+0003	 8.53516088049765E-0002	
 2.07250000000000E+0003	 8.53588061333624E-0002	
 2.07450000000000E+0003	 8.53645034617483E-0002	
 2.07650000000000E+0003	 8.53632007901342E-0002	
 2.07850000000000E+0003	 8.53693981185201E-0002	
 2.08050000000000E+0003	 8.53715954469060E-0002	
 2.08250000000000E+0003	 8.53727927752919E-0002	
 2.08450000000000E+0003	 8.53674901036778E-0002	
 2.08650000000000E+0003	 8.53571874320637E-0002	
 2.08850000000000E+0003	 8.53388847604496E-0002	
 2.09050000000000E+0003	 8.53390820888355E-0002	
 2.09250000000000E+0003	 8.53492794172214E-0002	
 2.09450000000000E+0003	 8.53584767456073E-0002	
 2.09650000000000E+0003	 8.53571740739932E-0002	
 2.09850000000000E+0003	 8.53548714023791E-0002	
 2.10050000000000E+0003	 8.53480687307650E-0002	
 2.10250000000000E+0003	 8.53367660591509E-0002	
 2.10450000000000E+0003	 8.53259633875368E-0002	
 2.10650000000000E+0003	 8.53206607159227E-0002	
 2.10850000000000E+0003	 8.53103580443086E-0002	
 2.11050000000000E+0003	 8.53000553726945E-0002	
 2.11250000000000E+0003	 8.52842527010804E-0002	
 2.11450000000000E+0003	 8.52649500294663E-0002	
 2.11650000000000E+0003	 8.52456473578522E-0002	
 2.11850000000000E+0003	 8.52388446862381E-0002	
 2.12050000000000E+0003	 8.52295420146240E-0002	
 2.12250000000000E+0003	 8.52167393430099E-0002	
 2.12450000000000E+0003	 8.51984366713958E-0002	
 2.12650000000000E+0003	 8.51811339997817E-0002	
 2.12850000000000E+0003	 8.51598313281676E-0002	
 2.13050000000000E+0003	 8.51340286565535E-0002	
 2.13250000000000E+0003	 8.51082259849394E-0002	
 2.13450000000000E+0003	 8.50809233133253E-0002	
 2.13650000000000E+0003	 8.50496206417112E-0002	
 2.13850000000000E+0003	 8.50238179700971E-0002	
 2.14050000000000E+0003	 8.50005152984830E-0002	
 2.14250000000000E+0003	 8.49742126268689E-0002	
 2.14450000000000E+0003	 8.49444099552548E-0002	
 2.14650000000000E+0003	 8.49136072836407E-0002	
 2.14850000000000E+0003	 8.48783046120266E-0002	
 2.15050000000000E+0003	 8.48455019404125E-0002	
 2.15250000000000E+0003	 8.48166992687984E-0002	
 2.15450000000000E+0003	 8.47878965971843E-0002	
 2.15650000000000E+0003	 8.47545939255702E-0002	
 2.15850000000000E+0003	 8.47187912539561E-0002	
 2.16050000000000E+0003	 8.46769885823420E-0002	
 2.16250000000000E+0003	 8.46366859107279E-0002	
 2.16450000000000E+0003	 8.46038832391138E-0002	
 2.16650000000000E+0003	 8.45765805674997E-0002	
 2.16850000000000E+0003	 8.45527778958856E-0002	
 2.17050000000000E+0003	 8.45184752242715E-0002	
 2.17250000000000E+0003	 8.44646725526574E-0002	
 2.17450000000000E+0003	 8.44133698810433E-0002	
 2.17650000000000E+0003	 8.43710672094292E-0002	
 2.17850000000000E+0003	 8.43347645378151E-0002	
 2.18050000000000E+0003	 8.42954618662010E-0002	
 2.18250000000000E+0003	 8.42576591945869E-0002	
 2.18450000000000E+0003	 8.42168565229728E-0002	
 2.18650000000000E+0003	 8.41795538513587E-0002	
 2.18850000000000E+0003	 8.41437511797446E-0002	
 2.19050000000000E+0003	 8.41084485081305E-0002	
 2.19250000000000E+0003	 8.40721458365164E-0002	
 2.19450000000000E+0003	 8.40388431649023E-0002	
 2.19650000000000E+0003	 8.40075404932882E-0002	
 2.19850000000000E+0003	 8.39772378216741E-0002	
 2.20050000000000E+0003	 8.39434351500600E-0002	
 2.20250000000000E+0003	 8.39116324784459E-0002	
 2.20450000000000E+0003	 8.38788298068318E-0002	
 2.20650000000000E+0003	 8.38505271352177E-0002	
 2.20850000000000E+0003	 8.38252244636036E-0002	
 2.21050000000000E+0003	 8.38039217919895E-0002	
 2.21250000000000E+0003	 8.37826191203754E-0002	
 2.21450000000000E+0003	 8.37618164487613E-0002	
 2.21650000000000E+0003	 8.37440137771472E-0002	
 2.21850000000000E+0003	 8.37207111055331E-0002	
 2.22050000000000E+0003	 8.36999084339190E-0002	
 2.22250000000000E+0003	 8.36801057623049E-0002	
 2.22450000000000E+0003	 8.36583030906908E-0002	
 2.22650000000000E+0003	 8.36310004190767E-0002	
 2.22850000000000E+0003	 8.36126977474626E-0002	
 2.23050000000000E+0003	 8.35963950758485E-0002	
 2.23250000000000E+0003	 8.35835924042344E-0002	
 2.23450000000000E+0003	 8.35722897326203E-0002	
 2.23650000000000E+0003	 8.35624870610062E-0002	
 2.23850000000000E+0003	 8.35461843893921E-0002	
 2.24050000000000E+0003	 8.35368817177780E-0002	
 2.24250000000000E+0003	 8.35265790461639E-0002	
 2.24450000000000E+0003	 8.35167763745498E-0002	
 2.24650000000000E+0003	 8.35099737029357E-0002	
 2.24850000000000E+0003	 8.35096710313216E-0002	
 2.25050000000000E+0003	 8.35043683597075E-0002	
 2.25250000000000E+0003	 8.34980656880934E-0002	
 2.25450000000000E+0003	 8.34947630164793E-0002	
 2.25650000000000E+0003	 8.34999603448652E-0002	
 2.25850000000000E+0003	 8.34991576732511E-0002	
 2.26050000000000E+0003	 8.34983550016370E-0002	
 2.26250000000000E+0003	 8.35000523300229E-0002	
 2.26450000000000E+0003	 8.35047496584088E-0002	
 2.26650000000000E+0003	 8.35104469867947E-0002	
 2.26850000000000E+0003	 8.35211443151806E-0002	
 2.27050000000000E+0003	 8.35253416435665E-0002	
 2.27250000000000E+0003	 8.35310389719524E-0002	
 2.27450000000000E+0003	 8.35357363003383E-0002	
 2.27650000000000E+0003	 8.35449336287242E-0002	
 2.27850000000000E+0003	 8.35536309571101E-0002	
 2.28050000000000E+0003	 8.35718282854960E-0002	
 2.28250000000000E+0003	 8.35995256138819E-0002	
 2.28450000000000E+0003	 8.36257229422678E-0002	
 2.28650000000000E+0003	 8.36364202706537E-0002	
 2.28850000000000E+0003	 8.36456175990396E-0002	
 2.29050000000000E+0003	 8.36498149274255E-0002	
 2.29250000000000E+0003	 8.36485122558114E-0002	
 2.29450000000000E+0003	 8.36472095841973E-0002	
 2.29650000000000E+0003	 8.36574069125832E-0002	
 2.29850000000000E+0003	 8.36781042409691E-0002	
 2.30050000000000E+0003	 8.37158015693550E-0002	
 2.30250000000000E+0003	 8.37799988977409E-0002	
 2.30450000000000E+0003	 8.38556962261268E-0002	
 2.30650000000000E+0003	 8.39083935545127E-0002	
 2.30850000000000E+0003	 8.39470908828986E-0002	
 2.31050000000000E+0003	 8.39877882112845E-0002	
 2.31250000000000E+0003	 8.40369855396704E-0002	
 2.31450000000000E+0003	 8.41116828680563E-0002	
 2.31650000000000E+0003	 8.41853801964422E-0002	
 2.31850000000000E+0003	 8.42210775248281E-0002	
 2.32050000000000E+0003	 8.42052748532140E-0002	
 2.32250000000000E+0003	 8.41704721815999E-0002	
 2.32450000000000E+0003	 8.42606695099858E-0002	
 2.32650000000000E+0003	 8.44168668383717E-0002	
 2.32850000000000E+0003	 8.44850641667576E-0002	
 2.33050000000000E+0003	 8.45432614951435E-0002	
 2.33250000000000E+0003	 8.46759588235294E-0002	
 2.33450000000000E+0003	 8.48346561519153E-0002	
 2.33650000000000E+0003	 8.49038534803012E-0002	
 2.33850000000000E+0003	 8.48840508086871E-0002	
 2.34050000000000E+0003	 8.47357481370730E-0002	
 2.34250000000000E+0003	 8.44749454654589E-0002	
 2.34450000000000E+0003	 8.42531427938448E-0002	
 2.34650000000000E+0003	 8.48638401222307E-0002	
 2.34850000000000E+0003	 8.57350374506166E-0002	
 2.35050000000000E+0003	 8.54872347790025E-0002	
 2.35250000000000E+0003	 8.50689321073884E-0002	
 2.35450000000000E+0003	 8.51041294357743E-0002	
 2.35650000000000E+0003	 8.52213267641602E-0002	
 2.35850000000000E+0003	 8.53040240925461E-0002	
 2.36050000000000E+0003	 8.53677214209320E-0002	
 2.36250000000000E+0003	 8.53634187493179E-0002	
 2.36450000000000E+0003	 8.52831160777038E-0002	
 2.36650000000000E+0003	 8.51838134060897E-0002	
 2.36850000000000E+0003	 8.51215107344756E-0002	
 2.37050000000000E+0003	 8.51572080628615E-0002	
 2.37250000000000E+0003	 8.53409053912474E-0002	
 2.37450000000000E+0003	 8.55911027196333E-0002	
 2.37650000000000E+0003	 8.57303000480192E-0002	
 2.37850000000000E+0003	 8.56829973764051E-0002	
 2.38050000000000E+0003	 8.55796947047910E-0002	
 2.38250000000000E+0003	 8.55713920331769E-0002	
 2.38450000000000E+0003	 8.56695893615628E-0002	
 2.38650000000000E+0003	 8.58102866899487E-0002	
 2.38850000000000E+0003	 8.59384840183346E-0002	
 2.39050000000000E+0003	 8.60456813467205E-0002	
 2.39250000000000E+0003	 8.61343786751064E-0002	
 2.39450000000000E+0003	 8.62200760034923E-0002	
 2.39650000000000E+0003	 8.63002733318782E-0002	
 2.39850000000000E+0003	 8.63819706602641E-0002	
 2.40050000000000E+0003	 8.64651679886500E-0002	
 2.40250000000000E+0003	 8.65558653170359E-0002	
 2.40450000000000E+0003	 8.66485626454218E-0002	
 2.40650000000000E+0003	 8.67477599738077E-0002	
 2.40850000000000E+0003	 8.68444573021936E-0002	
 2.41050000000000E+0003	 8.69356546305795E-0002	
 2.41250000000000E+0003	 8.70333519589654E-0002	
 2.41450000000000E+0003	 8.71420492873513E-0002	
 2.41650000000000E+0003	 8.72507466157372E-0002	
 2.41850000000000E+0003	 8.73574439441231E-0002	
 2.42050000000000E+0003	 8.74651412725090E-0002	
 2.42250000000000E+0003	 8.75743386008949E-0002	
 2.42450000000000E+0003	 8.76900359292808E-0002	
 2.42650000000000E+0003	 8.78077332576667E-0002	
 2.42850000000000E+0003	 8.79234305860526E-0002	
 2.43050000000000E+0003	 8.80341279144385E-0002	
 2.43250000000000E+0003	 8.81473252428244E-0002	
 2.43450000000000E+0003	 8.82635225712103E-0002	
 2.43650000000000E+0003	 8.83922198995962E-0002	
 2.43850000000000E+0003	 8.85229172279821E-0002	
 2.44050000000000E+0003	 8.86496145563680E-0002	
 2.44250000000000E+0003	 8.87703118847539E-0002	
 2.44450000000000E+0003	 8.88925092131398E-0002	
 2.44650000000000E+0003	 8.90187065415257E-0002	
 2.44850000000000E+0003	 8.91479038699116E-0002	
 2.45050000000000E+0003	 8.92736011982975E-0002	
 2.45250000000000E+0003	 8.94022985266834E-0002	
 2.45450000000000E+0003	 8.95349958550693E-0002	
 2.45650000000000E+0003	 8.96681931834552E-0002	
 2.45850000000000E+0003	 8.98063905118411E-0002	
 2.46050000000000E+0003	 8.99480878402270E-0002	
 2.46250000000000E+0003	 9.00917851686129E-0002	
 2.46450000000000E+0003	 9.02309824969988E-0002	
 2.46650000000000E+0003	 9.03746798253847E-0002	
 2.46850000000000E+0003	 9.05223771537706E-0002	
 2.47050000000000E+0003	 9.06755744821565E-0002	
 2.47250000000000E+0003	 9.08327718105424E-0002	
 2.47450000000000E+0003	 9.09929691389283E-0002	
 2.47650000000000E+0003	 9.11476664673142E-0002	
 2.47850000000000E+0003	 9.13018637957001E-0002	
 2.48050000000000E+0003	 9.14605611240860E-0002	
 2.48250000000000E+0003	 9.16242584524719E-0002	
 2.48450000000000E+0003	 9.17904557808578E-0002	
 2.48650000000000E+0003	 9.19566531092437E-0002	
 2.48850000000000E+0003	 9.21258504376296E-0002	
 2.49050000000000E+0003	 9.23010477660155E-0002	
 2.49250000000000E+0003	 9.24802450944014E-0002	
 2.49450000000000E+0003	 9.26574424227873E-0002	
 2.49650000000000E+0003	 9.28391397511732E-0002	
 2.49850000000000E+0003	 9.30238370795591E-0002	
 2.50050000000000E+0003	 9.32115344079450E-0002	
 2.50250000000000E+0003	 9.33977317363309E-0002	
 2.50450000000000E+0003	 9.35824290647168E-0002	
 2.50650000000000E+0003	 9.37666263931027E-0002	
 2.50850000000000E+0003	 9.39503237214886E-0002	
 2.51050000000000E+0003	 9.41255210498745E-0002	
 2.51250000000000E+0003	 9.42952183782604E-0002	
 2.51450000000000E+0003	 9.44569157066463E-0002	
 2.51650000000000E+0003	 9.46181130350322E-0002	
 2.51850000000000E+0003	 9.47693103634181E-0002	
 2.52050000000000E+0003	 9.49175076918040E-0002	
 2.52250000000000E+0003	 9.50682050201899E-0002	
 2.52450000000000E+0003	 9.52179023485758E-0002	
 2.52650000000000E+0003	 9.53595996769617E-0002	
 2.52850000000000E+0003	 9.54947970053476E-0002	
 2.53050000000000E+0003	 9.56279943337335E-0002	
 2.53250000000000E+0003	 9.57651916621194E-0002	
 2.53450000000000E+0003	 9.58973889905053E-0002	
 2.53650000000000E+0003	 9.60215863188912E-0002	
 2.53850000000000E+0003	 9.61452836472771E-0002	
 2.54050000000000E+0003	 9.62714809756630E-0002	
 2.54250000000000E+0003	 9.63921783040489E-0002	
 2.54450000000000E+0003	 9.65073756324348E-0002	
 2.54650000000000E+0003	 9.66205729608207E-0002	
 2.54850000000000E+0003	 9.67322702892066E-0002	
 2.55050000000000E+0003	 9.68374676175925E-0002	
 2.55250000000000E+0003	 9.69396649459784E-0002	
 2.55450000000000E+0003	 9.70448622743643E-0002	
 2.55650000000000E+0003	 9.71490596027502E-0002	
 2.55850000000000E+0003	 9.72497569311361E-0002	
 2.56050000000000E+0003	 9.73459542595220E-0002	
 2.56250000000000E+0003	 9.74371515879079E-0002	
 2.56450000000000E+0003	 9.75363489162938E-0002	
 2.56650000000000E+0003	 9.76405462446797E-0002	
 2.56850000000000E+0003	 9.77462435730656E-0002	
 2.57050000000000E+0003	 9.78529409014515E-0002	
 2.57250000000000E+0003	 9.79626382298374E-0002	
 2.57450000000000E+0003	 9.80773355582233E-0002	
 2.57650000000000E+0003	 9.81985328866092E-0002	
 2.57850000000000E+0003	 9.83292302149951E-0002	
 2.58050000000000E+0003	 9.84679275433810E-0002	
 2.58250000000000E+0003	 9.86151248717669E-0002	
 2.58450000000000E+0003	 9.87663222001528E-0002	
 2.58650000000000E+0003	 9.89250195285387E-0002	
 2.58850000000000E+0003	 9.90962168569246E-0002	
 2.59050000000000E+0003	 9.92734141853105E-0002	
 2.59250000000000E+0003	 9.94506115136964E-0002	
 2.59450000000000E+0003	 9.96298088420823E-0002	
 2.59650000000000E+0003	 9.98115061704682E-0002	
 2.59850000000000E+0003	 9.99967034988541E-0002	
 2.60050000000000E+0003	 1.00186400827240E-0001	
 2.60250000000000E+0003	 1.00381598155626E-0001	
 2.60450000000000E+0003	 1.00578295484012E-0001	
 2.60650000000000E+0003	 1.00773992812398E-0001	
 2.60850000000000E+0003	 1.00970190140784E-0001	
 2.61050000000000E+0003	 1.01159887469169E-0001	
 2.61250000000000E+0003	 1.01348084797555E-0001	
 2.61450000000000E+0003	 1.01537782125941E-0001	
 2.61650000000000E+0003	 1.01723979454327E-0001	
 2.61850000000000E+0003	 1.01903676782713E-0001	
 2.62050000000000E+0003	 1.02084874111099E-0001	
 2.62250000000000E+0003	 1.02268571439485E-0001	
 2.62450000000000E+0003	 1.02452768767871E-0001	
 2.62650000000000E+0003	 1.02631966096257E-0001	
 2.62850000000000E+0003	 1.02809663424643E-0001	
 2.63050000000000E+0003	 1.02980860753028E-0001	
 2.63250000000000E+0003	 1.03151558081414E-0001	
 2.63450000000000E+0003	 1.03323755409800E-0001	
 2.63650000000000E+0003	 1.03497952738186E-0001	
 2.63850000000000E+0003	 1.03669150066572E-0001	
 2.64050000000000E+0003	 1.03841347394958E-0001	
 2.64250000000000E+0003	 1.04010044723344E-0001	
 2.64450000000000E+0003	 1.04173742051730E-0001	
 2.64650000000000E+0003	 1.04341939380116E-0001	
 2.64850000000000E+0003	 1.04515136708502E-0001	
 2.65050000000000E+0003	 1.04684334036887E-0001	
 2.65250000000000E+0003	 1.04852031365273E-0001	
 2.65450000000000E+0003	 1.05021228693659E-0001	
 2.65650000000000E+0003	 1.05192426022045E-0001	
 2.65850000000000E+0003	 1.05370123350431E-0001	
 2.66050000000000E+0003	 1.05550320678817E-0001	
 2.66250000000000E+0003	 1.05729518007203E-0001	
 2.66450000000000E+0003	 1.05905215335589E-0001	
 2.66650000000000E+0003	 1.06089412663975E-0001	
 2.66850000000000E+0003	 1.06275609992361E-0001	
 2.67050000000000E+0003	 1.06461807320746E-0001	
 2.67250000000000E+0003	 1.06651004649132E-0001	
 2.67450000000000E+0003	 1.06842701977518E-0001	
 2.67650000000000E+0003	 1.07042899305904E-0001	
 2.67850000000000E+0003	 1.07253596634290E-0001	
 2.68050000000000E+0003	 1.07453793962676E-0001	
 2.68250000000000E+0003	 1.07645491291062E-0001	
 2.68450000000000E+0003	 1.07835188619448E-0001	
 2.68650000000000E+0003	 1.08033385947834E-0001	
 2.68850000000000E+0003	 1.08240583276220E-0001	
 2.69050000000000E+0003	 1.08452780604605E-0001	
 2.69250000000000E+0003	 1.08663477932991E-0001	
 2.69450000000000E+0003	 1.08877175261377E-0001	
 2.69650000000000E+0003	 1.09100372589763E-0001	
 2.69850000000000E+0003	 1.09330069918149E-0001	
 2.70050000000000E+0003	 1.09565767246535E-0001	
 2.70250000000000E+0003	 1.09803464574921E-0001	
 2.70450000000000E+0003	 1.10055661903307E-0001	
 2.70650000000000E+0003	 1.10320859231693E-0001	
 2.70850000000000E+0003	 1.10596556560079E-0001	
 2.71050000000000E+0003	 1.10877253888464E-0001	
 2.71250000000000E+0003	 1.11164451216850E-0001	
 2.71450000000000E+0003	 1.11459648545236E-0001	
 2.71650000000000E+0003	 1.11766845873622E-0001	
 2.71850000000000E+0003	 1.12070543202008E-0001	
 2.72050000000000E+0003	 1.12380740530394E-0001	
 2.72250000000000E+0003	 1.12698937858780E-0001	
 2.72450000000000E+0003	 1.13017135187166E-0001	
 2.72650000000000E+0003	 1.13334832515552E-0001	
 2.72850000000000E+0003	 1.13629029843938E-0001	
 2.73050000000000E+0003	 1.13902227172323E-0001	
 2.73250000000000E+0003	 1.14179924500709E-0001	
 2.73450000000000E+0003	 1.14461121829095E-0001	
 2.73650000000000E+0003	 1.14740819157481E-0001	
 2.73850000000000E+0003	 1.15004516485867E-0001	
 2.74050000000000E+0003	 1.15254213814253E-0001	
 2.74250000000000E+0003	 1.15499911142639E-0001	
 2.74450000000000E+0003	 1.15741108471025E-0001	
 2.74650000000000E+0003	 1.15987305799411E-0001	
 2.74850000000000E+0003	 1.16231503127797E-0001	
 2.75050000000000E+0003	 1.16456700456182E-0001	
 2.75250000000000E+0003	 1.16668897784568E-0001	
 2.75450000000000E+0003	 1.16892595112954E-0001	
 2.75650000000000E+0003	 1.17134292441340E-0001	
 2.75850000000000E+0003	 1.17380489769726E-0001	
 2.76050000000000E+0003	 1.17623687098112E-0001	
 2.76250000000000E+0003	 1.17875884426498E-0001	
 2.76450000000000E+0003	 1.18135581754884E-0001	
 2.76650000000000E+0003	 1.18397279083270E-0001	
 2.76850000000000E+0003	 1.18663976411656E-0001	
 2.77050000000000E+0003	 1.18934673740041E-0001	
 2.77250000000000E+0003	 1.19214371068427E-0001	
 2.77450000000000E+0003	 1.19510068396813E-0001	
 2.77650000000000E+0003	 1.19793765725199E-0001	
 2.77850000000000E+0003	 1.20061463053585E-0001	
 2.78050000000000E+0003	 1.20353660381971E-0001	
 2.78250000000000E+0003	 1.20664357710357E-0001	
 2.78450000000000E+0003	 1.20980555038743E-0001	
 2.78650000000000E+0003	 1.21304252367129E-0001	
 2.78850000000000E+0003	 1.21654449695515E-0001	
 2.79050000000000E+0003	 1.22006647023900E-0001	
 2.79250000000000E+0003	 1.22341344352286E-0001	
 2.79450000000000E+0003	 1.22680041680672E-0001	
 2.79650000000000E+0003	 1.23043739009058E-0001	
 2.79850000000000E+0003	 1.23420436337444E-0001	
 2.80050000000000E+0003	 1.23785633665830E-0001	
 2.80250000000000E+0003	 1.24148330994216E-0001	
 2.80450000000000E+0003	 1.24529028322602E-0001	
 2.80650000000000E+0003	 1.24920725650988E-0001	
 2.80850000000000E+0003	 1.25335922979374E-0001	
 2.81050000000000E+0003	 1.25763120307759E-0001	
 2.81250000000000E+0003	 1.26178817636145E-0001	
 2.81450000000000E+0003	 1.26597014964531E-0001	
 2.81650000000000E+0003	 1.27032212292917E-0001	
 2.81850000000000E+0003	 1.27479909621303E-0001	
 2.82050000000000E+0003	 1.27945606949689E-0001	
 2.82250000000000E+0003	 1.28426304278075E-0001	
 2.82450000000000E+0003	 1.28923501606461E-0001	
 2.82650000000000E+0003	 1.29437198934847E-0001	
 2.82850000000000E+0003	 1.29975396263233E-0001	
 2.83050000000000E+0003	 1.30551593591618E-0001	
 2.83250000000000E+0003	 1.31179790920004E-0001	
 2.83450000000000E+0003	 1.31875488248390E-0001	
 2.83650000000000E+0003	 1.32665685576776E-0001	
 2.83850000000000E+0003	 1.33601882905162E-0001	
 2.84050000000000E+0003	 1.34679580233548E-0001	
 2.84250000000000E+0003	 1.35980277561934E-0001	
 2.84450000000000E+0003	 1.37652974890320E-0001	
 2.84650000000000E+0003	 1.39725172218706E-0001	
 2.84850000000000E+0003	 1.42062869547092E-0001	
 2.85050000000000E+0003	 1.44342066875477E-0001	
 2.85250000000000E+0003	 1.46199264203863E-0001	
 2.85450000000000E+0003	 1.47364461532249E-0001	
 2.85650000000000E+0003	 1.47826158860635E-0001	
 2.85850000000000E+0003	 1.47852856189021E-0001	
 2.86050000000000E+0003	 1.47767553517407E-0001	
 2.86250000000000E+0003	 1.47809250845793E-0001	
 2.86450000000000E+0003	 1.48153948174179E-0001	
 2.86650000000000E+0003	 1.48826645502565E-0001	
 2.86850000000000E+0003	 1.49729342830951E-0001	
 2.87050000000000E+0003	 1.50724040159336E-0001	
 2.87250000000000E+0003	 1.51652737487722E-0001	
 2.87450000000000E+0003	 1.52276434816108E-0001	
 2.87650000000000E+0003	 1.52520632144494E-0001	
 2.87850000000000E+0003	 1.52575329472880E-0001	
 2.88050000000000E+0003	 1.52590526801266E-0001	
 2.88250000000000E+0003	 1.52653224129652E-0001	
 2.88450000000000E+0003	 1.52840421458038E-0001	
 2.88650000000000E+0003	 1.53171618786424E-0001	
 2.88850000000000E+0003	 1.53649816114810E-0001	
 2.89050000000000E+0003	 1.54264513443195E-0001	
 2.89250000000000E+0003	 1.54992210771581E-0001	
 2.89450000000000E+0003	 1.55816908099967E-0001	
 2.89650000000000E+0003	 1.56698105428353E-0001	
 2.89850000000000E+0003	 1.57578802756739E-0001	
 2.90050000000000E+0003	 1.58495000085125E-0001	
 2.90250000000000E+0003	 1.59481197413511E-0001	
 2.90450000000000E+0003	 1.60551894741897E-0001	
 2.90650000000000E+0003	 1.61732592070283E-0001	
 2.90850000000000E+0003	 1.63091289398669E-0001	
 2.91050000000000E+0003	 1.64697986727054E-0001	
 2.91250000000000E+0003	 1.66600684055440E-0001	
 2.91450000000000E+0003	 1.68742381383826E-0001	
 2.91650000000000E+0003	 1.71008078712212E-0001	
 2.91850000000000E+0003	 1.73311276040598E-0001	
 2.92050000000000E+0003	 1.75466973368984E-0001	
 2.92250000000000E+0003	 1.77286170697370E-0001	
 2.92450000000000E+0003	 1.78625368025756E-0001	
 2.92650000000000E+0003	 1.79432065354142E-0001	
 2.92850000000000E+0003	 1.79776762682528E-0001	
 2.93050000000000E+0003	 1.79705460010913E-0001	
 2.93250000000000E+0003	 1.79230657339299E-0001	
 2.93450000000000E+0003	 1.78489854667685E-0001	
 2.93650000000000E+0003	 1.77552551996071E-0001	
 2.93850000000000E+0003	 1.76449249324457E-0001	
 2.94050000000000E+0003	 1.75262946652843E-0001	
 2.94250000000000E+0003	 1.74149143981229E-0001	
 2.94450000000000E+0003	 1.73201841309615E-0001	
 2.94650000000000E+0003	 1.72466538638001E-0001	
 2.94850000000000E+0003	 1.72025735966387E-0001	
 2.95050000000000E+0003	 1.71987433294772E-0001	
 2.95250000000000E+0003	 1.72356630623158E-0001	
 2.95450000000000E+0003	 1.72914327951544E-0001	
 2.95650000000000E+0003	 1.73486025279930E-0001	
 2.95850000000000E+0003	 1.73946222608316E-0001	
 2.96050000000000E+0003	 1.74146919936702E-0001	
 2.96250000000000E+0003	 1.73987117265088E-0001	
 2.96450000000000E+0003	 1.73428314593474E-0001	
 2.96650000000000E+0003	 1.72518011921860E-0001	
 2.96850000000000E+0003	 1.71357709250246E-0001	
 2.97050000000000E+0003	 1.70024406578631E-0001	
 2.97250000000000E+0003	 1.68622603907017E-0001	
 2.97450000000000E+0003	 1.67245301235403E-0001	
 2.97650000000000E+0003	 1.65927998563789E-0001	
 2.97850000000000E+0003	 1.64715195892175E-0001	
 2.98050000000000E+0003	 1.63605393220561E-0001	
 2.98250000000000E+0003	 1.62524590548947E-0001	
 2.98450000000000E+0003	 1.61493287877333E-0001	
 2.98650000000000E+0003	 1.60563485205719E-0001	
 2.98850000000000E+0003	 1.59738182534105E-0001	
 2.99050000000000E+0003	 1.59028379862490E-0001	
 2.99250000000000E+0003	 1.58440577190876E-0001	
 2.99450000000000E+0003	 1.57911274519262E-0001	
 2.99650000000000E+0003	 1.57501971847648E-0001	
 2.99850000000000E+0003	 1.57242669176034E-0001	
 3.00050000000000E+0003	 1.57070866504420E-0001	
 3.00250000000000E+0003	 1.57013563832806E-0001	
 3.00450000000000E+0003	 1.57064261161192E-0001	
 3.00650000000000E+0003	 1.57178958489578E-0001	
 3.00850000000000E+0003	 1.57380155817964E-0001	
 3.01050000000000E+0003	 1.57704853146349E-0001	
 3.01250000000000E+0003	 1.58102550474735E-0001	
 3.01450000000000E+0003	 1.58499747803121E-0001	
 3.01650000000000E+0003	 1.58891945131507E-0001	
 3.01850000000000E+0003	 1.59330642459893E-0001	
 3.02050000000000E+0003	 1.59835339788279E-0001	
 3.02250000000000E+0003	 1.60412037116665E-0001	
 3.02450000000000E+0003	 1.61070734445051E-0001	
 3.02650000000000E+0003	 1.61736931773437E-0001	
 3.02850000000000E+0003	 1.62394629101823E-0001	
 3.03050000000000E+0003	 1.63078826430208E-0001	
 3.03250000000000E+0003	 1.63780023758594E-0001	
 3.03450000000000E+0003	 1.64493221086980E-0001	
 3.03650000000000E+0003	 1.65165918415366E-0001	
 3.03850000000000E+0003	 1.65842115743752E-0001	
 3.04050000000000E+0003	 1.66607813072138E-0001	
 3.04250000000000E+0003	 1.67402510400524E-0001	
 3.04450000000000E+0003	 1.68152707728910E-0001	
 3.04650000000000E+0003	 1.68873905057296E-0001	
 3.04850000000000E+0003	 1.69615102385682E-0001	
 3.05050000000000E+0003	 1.70412799714067E-0001	
 3.05250000000000E+0003	 1.71203997042453E-0001	
 3.05450000000000E+0003	 1.71968194370839E-0001	
 3.05650000000000E+0003	 1.72734891699225E-0001	
 3.05850000000000E+0003	 1.73456089027611E-0001	
 3.06050000000000E+0003	 1.74126786355997E-0001	
 3.06250000000000E+0003	 1.74768983684383E-0001	
 3.06450000000000E+0003	 1.75383181012769E-0001	
 3.06650000000000E+0003	 1.75974878341155E-0001	
 3.06850000000000E+0003	 1.76508575669541E-0001	
 3.07050000000000E+0003	 1.76948772997926E-0001	
 3.07250000000000E+0003	 1.77370470326312E-0001	
 3.07450000000000E+0003	 1.77793167654698E-0001	
 3.07650000000000E+0003	 1.78234864983084E-0001	
 3.07850000000000E+0003	 1.78688562311470E-0001	
 3.08050000000000E+0003	 1.79082259639856E-0001	
 3.08250000000000E+0003	 1.79419956968242E-0001	
 3.08450000000000E+0003	 1.79757654296628E-0001	
 3.08650000000000E+0003	 1.80061351625014E-0001	
 3.08850000000000E+0003	 1.80352048953400E-0001	
 3.09050000000000E+0003	 1.80662246281785E-0001	
 3.09250000000000E+0003	 1.80924443610171E-0001	
 3.09450000000000E+0003	 1.81159140938557E-0001	
 3.09650000000000E+0003	 1.81427838266943E-0001	
 3.09850000000000E+0003	 1.81742035595329E-0001	
 3.10050000000000E+0003	 1.82078732923715E-0001	
 3.10250000000000E+0003	 1.82393930252101E-0001	
 3.10450000000000E+0003	 1.82713127580487E-0001	
 3.10650000000000E+0003	 1.83091324908873E-0001	
 3.10850000000000E+0003	 1.83531522237259E-0001	
 3.11050000000000E+0003	 1.83947719565644E-0001	
 3.11250000000000E+0003	 1.84357916894030E-0001	
 3.11450000000000E+0003	 1.84884114222416E-0001	
 3.11650000000000E+0003	 1.85487311550802E-0001	
 3.11850000000000E+0003	 1.86076008879188E-0001	
 3.12050000000000E+0003	 1.86643706207574E-0001	
 3.12250000000000E+0003	 1.87172403535960E-0001	
 3.12450000000000E+0003	 1.87726600864346E-0001	
 3.12650000000000E+0003	 1.88372798192732E-0001	
 3.12850000000000E+0003	 1.89094495521118E-0001	
 3.13050000000000E+0003	 1.89843692849503E-0001	
 3.13250000000000E+0003	 1.90577390177889E-0001	
 3.13450000000000E+0003	 1.91341087506275E-0001	
 3.13650000000000E+0003	 1.92174284834661E-0001	
 3.13850000000000E+0003	 1.93074482163047E-0001	
 3.14050000000000E+0003	 1.93940679491433E-0001	
 3.14250000000000E+0003	 1.94742376819819E-0001	
 3.14450000000000E+0003	 1.95592574148205E-0001	
 3.14650000000000E+0003	 1.96512771476591E-0001	
 3.14850000000000E+0003	 1.97469468804977E-0001	
 3.15050000000000E+0003	 1.98510166133362E-0001	
 3.15250000000000E+0003	 1.99594863461748E-0001	
 3.15450000000000E+0003	 2.00567060790134E-0001	
 3.15650000000000E+0003	 2.01500758118520E-0001	
 3.15850000000000E+0003	 2.02508455446906E-0001	
 3.16050000000000E+0003	 2.03567152775292E-0001	
 3.16250000000000E+0003	 2.04649350103678E-0001	
 3.16450000000000E+0003	 2.05750547432064E-0001	
 3.16650000000000E+0003	 2.06862244760450E-0001	
 3.16850000000000E+0003	 2.07980942088836E-0001	
 3.17050000000000E+0003	 2.09107139417221E-0001	
 3.17250000000000E+0003	 2.10236836745607E-0001	
 3.17450000000000E+0003	 2.11365534073993E-0001	
 3.17650000000000E+0003	 2.12496231402379E-0001	
 3.17850000000000E+0003	 2.13629428730765E-0001	
 3.18050000000000E+0003	 2.14758626059151E-0001	
 3.18250000000000E+0003	 2.15871323387537E-0001	
 3.18450000000000E+0003	 2.16971520715923E-0001	
 3.18650000000000E+0003	 2.18069218044309E-0001	
 3.18850000000000E+0003	 2.19164915372695E-0001	
 3.19050000000000E+0003	 2.20237612701080E-0001	
 3.19250000000000E+0003	 2.21285310029466E-0001	
 3.19450000000000E+0003	 2.22309007357852E-0001	
 3.19650000000000E+0003	 2.23319204686238E-0001	
 3.19850000000000E+0003	 2.24320902014624E-0001	
 3.20050000000000E+0003	 2.25310599343010E-0001	
 3.20250000000000E+0003	 2.26283296671396E-0001	
 3.20450000000000E+0003	 2.27238493999782E-0001	
 3.20650000000000E+0003	 2.28177191328168E-0001	
 3.20850000000000E+0003	 2.29095388656554E-0001	
 3.21050000000000E+0003	 2.30004085984939E-0001	
 3.21250000000000E+0003	 2.30920783313325E-0001	
 3.21450000000000E+0003	 2.31834480641711E-0001	
 3.21650000000000E+0003	 2.32744677970097E-0001	
 3.21850000000000E+0003	 2.33665875298483E-0001	
 3.22050000000000E+0003	 2.34582572626869E-0001	
 3.22250000000000E+0003	 2.35493769955255E-0001	
 3.22450000000000E+0003	 2.36422967283641E-0001	
 3.22650000000000E+0003	 2.37373164612027E-0001	
 3.22850000000000E+0003	 2.38343361940413E-0001	
 3.23050000000000E+0003	 2.39364559268798E-0001	
 3.23250000000000E+0003	 2.40462756597184E-0001	
 3.23450000000000E+0003	 2.41529953925570E-0001	
 3.23650000000000E+0003	 2.42519151253956E-0001	
 3.23850000000000E+0003	 2.43559848582342E-0001	
 3.24050000000000E+0003	 2.44676045910728E-0001	
 3.24250000000000E+0003	 2.45833243239114E-0001	
 3.24450000000000E+0003	 2.47040940567500E-0001	
 3.24650000000000E+0003	 2.48314637895886E-0001	
 3.24850000000000E+0003	 2.49576835224272E-0001	
 3.25050000000000E+0003	 2.50811032552657E-0001	
 3.25250000000000E+0003	 2.52092729881043E-0001	
 3.25450000000000E+0003	 2.53449427209429E-0001	
 3.25650000000000E+0003	 2.54833124537815E-0001	
 3.25850000000000E+0003	 2.56184321866201E-0001	
 3.26050000000000E+0003	 2.57537019194587E-0001	
 3.26250000000000E+0003	 2.58914216522973E-0001	
 3.26450000000000E+0003	 2.60282413851359E-0001	
 3.26650000000000E+0003	 2.61615611179745E-0001	
 3.26850000000000E+0003	 2.62941308508131E-0001	
 3.27050000000000E+0003	 2.64262505836516E-0001	
 3.27250000000000E+0003	 2.65451203164902E-0001	
 3.27450000000000E+0003	 2.66499900493288E-0001	
 3.27650000000000E+0003	 2.67493097821674E-0001	
 3.27850000000000E+0003	 2.68422295150060E-0001	
 3.28050000000000E+0003	 2.69300992478446E-0001	
 3.28250000000000E+0003	 2.70117689806832E-0001	
 3.28450000000000E+0003	 2.70861887135218E-0001	
 3.28650000000000E+0003	 2.71527084463604E-0001	
 3.28850000000000E+0003	 2.72128281791990E-0001	
 3.29050000000000E+0003	 2.72710479120375E-0001	
 3.29250000000000E+0003	 2.73257176448761E-0001	
 3.29450000000000E+0003	 2.73701873777147E-0001	
 3.29650000000000E+0003	 2.74080571105533E-0001	
 3.29850000000000E+0003	 2.74393768433919E-0001	
 3.30050000000000E+0003	 2.74667465762305E-0001	
 3.30250000000000E+0003	 2.74958663090691E-0001	
 3.30450000000000E+0003	 2.75304860419077E-0001	
 3.30650000000000E+0003	 2.75610057747463E-0001	
 3.30850000000000E+0003	 2.75794755075849E-0001	
 3.31050000000000E+0003	 2.75910952404234E-0001	
 3.31250000000000E+0003	 2.76031149732620E-0001	
 3.31450000000000E+0003	 2.76181347061006E-0001	
 3.31650000000000E+0003	 2.76353544389392E-0001	
 3.31850000000000E+0003	 2.76539741717778E-0001	
 3.32050000000000E+0003	 2.76735439046164E-0001	
 3.32250000000000E+0003	 2.76939636374550E-0001	
 3.32450000000000E+0003	 2.77179833702936E-0001	
 3.32650000000000E+0003	 2.77425031031322E-0001	
 3.32850000000000E+0003	 2.77634228359708E-0001	
 3.33050000000000E+0003	 2.77850925688093E-0001	
 3.33250000000000E+0003	 2.78099623016479E-0001	
 3.33450000000000E+0003	 2.78368820344865E-0001	
 3.33650000000000E+0003	 2.78684517673251E-0001	
 3.33850000000000E+0003	 2.79028215001637E-0001	
 3.34050000000000E+0003	 2.79323912330023E-0001	
 3.34250000000000E+0003	 2.79596609658409E-0001	
 3.34450000000000E+0003	 2.79882806986795E-0001	
 3.34650000000000E+0003	 2.80173004315181E-0001	
 3.34850000000000E+0003	 2.80530201643567E-0001	
 3.35050000000000E+0003	 2.80934398971952E-0001	
 3.35250000000000E+0003	 2.81252596300338E-0001	
 3.35450000000000E+0003	 2.81514293628724E-0001	
 3.35650000000000E+0003	 2.81828490957110E-0001	
 3.35850000000000E+0003	 2.82194188285496E-0001	
 3.36050000000000E+0003	 2.82578885613882E-0001	
 3.36250000000000E+0003	 2.82934082942268E-0001	
 3.36450000000000E+0003	 2.83310280270654E-0001	
 3.36650000000000E+0003	 2.83765477599040E-0001	
 3.36850000000000E+0003	 2.84233674927426E-0001	
 3.37050000000000E+0003	 2.84575872255811E-0001	
 3.37250000000000E+0003	 2.84802069584197E-0001	
 3.37450000000000E+0003	 2.85073766912583E-0001	
 3.37650000000000E+0003	 2.85421464240969E-0001	
 3.37850000000000E+0003	 2.85765661569355E-0001	
 3.38050000000000E+0003	 2.86088858897741E-0001	
 3.38250000000000E+0003	 2.86385056226127E-0001	
 3.38450000000000E+0003	 2.86670753554513E-0001	
 3.38650000000000E+0003	 2.86966450882899E-0001	
 3.38850000000000E+0003	 2.87316648211285E-0001	
 3.39050000000000E+0003	 2.87749345539670E-0001	
 3.39250000000000E+0003	 2.88093042868056E-0001	
 3.39450000000000E+0003	 2.88256240196442E-0001	
 3.39650000000000E+0003	 2.88442437524828E-0001	
 3.39850000000000E+0003	 2.88797134853214E-0001	
 3.40050000000000E+0003	 2.89200332181600E-0001	
 3.40250000000000E+0003	 2.89365029509986E-0001	
 3.40450000000000E+0003	 2.89370726838372E-0001	
 3.40650000000000E+0003	 2.89478424166758E-0001	
 3.40850000000000E+0003	 2.89692121495144E-0001	
 3.41050000000000E+0003	 2.89879818823529E-0001	
 3.41250000000000E+0003	 2.90016016151915E-0001	
 3.41450000000000E+0003	 2.90072213480301E-0001	
 3.41650000000000E+0003	 2.90070910808687E-0001	
 3.41850000000000E+0003	 2.90097608137073E-0001	
 3.42050000000000E+0003	 2.90132305465459E-0001	
 3.42250000000000E+0003	 2.90115002793845E-0001	
 3.42450000000000E+0003	 2.90076700122231E-0001	
 3.42650000000000E+0003	 2.90051397450617E-0001	
 3.42850000000000E+0003	 2.90035594779003E-0001	
 3.43050000000000E+0003	 2.89950292107388E-0001	
 3.43250000000000E+0003	 2.89803489435774E-0001	
 3.43450000000000E+0003	 2.89698686764160E-0001	
 3.43650000000000E+0003	 2.89521884092546E-0001	
 3.43850000000000E+0003	 2.89141081420932E-0001	
 3.44050000000000E+0003	 2.88684278749318E-0001	
 3.44250000000000E+0003	 2.88277976077704E-0001	
 3.44450000000000E+0003	 2.87918673406090E-0001	
 3.44650000000000E+0003	 2.87549370734476E-0001	
 3.44850000000000E+0003	 2.87132568062862E-0001	
 3.45050000000000E+0003	 2.86675265391247E-0001	
 3.45250000000000E+0003	 2.86197962719633E-0001	
 3.45450000000000E+0003	 2.85697160048019E-0001	
 3.45650000000000E+0003	 2.85180357376405E-0001	
 3.45850000000000E+0003	 2.84683054704791E-0001	
 3.46050000000000E+0003	 2.84144752033177E-0001	
 3.46250000000000E+0003	 2.83499949361563E-0001	
 3.46450000000000E+0003	 2.82906646689949E-0001	
 3.46650000000000E+0003	 2.82430844018335E-0001	
 3.46850000000000E+0003	 2.81866541346721E-0001	
 3.47050000000000E+0003	 2.81030738675106E-0001	
 3.47250000000000E+0003	 2.80090936003492E-0001	
 3.47450000000000E+0003	 2.79247633331878E-0001	
 3.47650000000000E+0003	 2.78490830660264E-0001	
 3.47850000000000E+0003	 2.77790527988650E-0001	
 3.48050000000000E+0003	 2.77002225317036E-0001	
 3.48250000000000E+0003	 2.76054422645422E-0001	
 3.48450000000000E+0003	 2.75164119973808E-0001	
 3.48650000000000E+0003	 2.74346317302194E-0001	
 3.48850000000000E+0003	 2.73451014630580E-0001	
 3.49050000000000E+0003	 2.72513711958965E-0001	
 3.49250000000000E+0003	 2.71614409287351E-0001	
 3.49450000000000E+0003	 2.70724606615737E-0001	
 3.49650000000000E+0003	 2.69812803944123E-0001	
 3.49850000000000E+0003	 2.68860001272509E-0001	
 3.50050000000000E+0003	 2.67924198600895E-0001	
 3.50250000000000E+0003	 2.66986895929281E-0001	
 3.50450000000000E+0003	 2.65901593257667E-0001	
 3.50650000000000E+0003	 2.64778290586053E-0001	
 3.50850000000000E+0003	 2.63729987914439E-0001	
 3.51050000000000E+0003	 2.62728185242824E-0001	
 3.51250000000000E+0003	 2.61789382571210E-0001	
 3.51450000000000E+0003	 2.60789579899596E-0001	
 3.51650000000000E+0003	 2.59682777227982E-0001	
 3.51850000000000E+0003	 2.58561474556368E-0001	
 3.52050000000000E+0003	 2.57503671884754E-0001	
 3.52250000000000E+0003	 2.56509869213140E-0001	
 3.52450000000000E+0003	 2.55430566541526E-0001	
 3.52650000000000E+0003	 2.54215763869912E-0001	
 3.52850000000000E+0003	 2.53016961198298E-0001	
 3.53050000000000E+0003	 2.51883158526683E-0001	
 3.53250000000000E+0003	 2.50775355855069E-0001	
 3.53450000000000E+0003	 2.49716053183455E-0001	
 3.53650000000000E+0003	 2.48615250511841E-0001	
 3.53850000000000E+0003	 2.47378447840227E-0001	
 3.54050000000000E+0003	 2.46161145168613E-0001	
 3.54250000000000E+0003	 2.45053342496999E-0001	
 3.54450000000000E+0003	 2.43915539825385E-0001	
 3.54650000000000E+0003	 2.42575237153771E-0001	
 3.54850000000000E+0003	 2.41138934482156E-0001	
 3.55050000000000E+0003	 2.39815631810542E-0001	
 3.55250000000000E+0003	 2.38496329138928E-0001	
 3.55450000000000E+0003	 2.37137026467314E-0001	
 3.55650000000000E+0003	 2.35809223795700E-0001	
 3.55850000000000E+0003	 2.34498421124086E-0001	
 3.56050000000000E+0003	 2.33164618452472E-0001	
 3.56250000000000E+0003	 2.31743815780858E-0001	
 3.56450000000000E+0003	 2.30270513109244E-0001	
 3.56650000000000E+0003	 2.28772210437630E-0001	
 3.56850000000000E+0003	 2.27327907766015E-0001	
 3.57050000000000E+0003	 2.25963605094401E-0001	
 3.57250000000000E+0003	 2.24517802422787E-0001	
 3.57450000000000E+0003	 2.23004499751173E-0001	
 3.57650000000000E+0003	 2.21501197079559E-0001	
 3.57850000000000E+0003	 2.20013394407945E-0001	
 3.58050000000000E+0003	 2.18539091736331E-0001	
 3.58250000000000E+0003	 2.17071289064717E-0001	
 3.58450000000000E+0003	 2.15632486393103E-0001	
 3.58650000000000E+0003	 2.14036683721489E-0001	
 3.58850000000000E+0003	 2.12186381049874E-0001	
 3.59050000000000E+0003	 2.10497578378260E-0001	
 3.59250000000000E+0003	 2.08956275706646E-0001	
 3.59450000000000E+0003	 2.07315473035032E-0001	
 3.59650000000000E+0003	 2.05658170363418E-0001	
 3.59850000000000E+0003	 2.04083867691804E-0001	
 3.60050000000000E+0003	 2.02464065020190E-0001	
 3.60250000000000E+0003	 2.00790262348576E-0001	
 3.60450000000000E+0003	 1.99130959676962E-0001	
 3.60650000000000E+0003	 1.97430657005348E-0001	
 3.60850000000000E+0003	 1.95650354333733E-0001	
 3.61050000000000E+0003	 1.93987051662119E-0001	
 3.61250000000000E+0003	 1.92376248990505E-0001	
 3.61450000000000E+0003	 1.90674446318891E-0001	
 3.61650000000000E+0003	 1.89084143647277E-0001	
 3.61850000000000E+0003	 1.87505840975663E-0001	
 3.62050000000000E+0003	 1.85775538304049E-0001	
 3.62250000000000E+0003	 1.84023735632435E-0001	
 3.62450000000000E+0003	 1.82286432960821E-0001	
 3.62650000000000E+0003	 1.80675630289207E-0001	
 3.62850000000000E+0003	 1.78957327617592E-0001	
 3.63050000000000E+0003	 1.77132524945978E-0001	
 3.63250000000000E+0003	 1.75579222274364E-0001	
 3.63450000000000E+0003	 1.74041419602750E-0001	
 3.63650000000000E+0003	 1.72480116931136E-0001	
 3.63850000000000E+0003	 1.70918314259522E-0001	
 3.64050000000000E+0003	 1.69366511587908E-0001	
 3.64250000000000E+0003	 1.67791708916294E-0001	
 3.64450000000000E+0003	 1.66255406244680E-0001	
 3.64650000000000E+0003	 1.64743603573066E-0001	
 3.64850000000000E+0003	 1.63233300901451E-0001	
 3.65050000000000E+0003	 1.61735498229837E-0001	
 3.65250000000000E+0003	 1.60303195558223E-0001	
 3.65450000000000E+0003	 1.58998392886609E-0001	
 3.65650000000000E+0003	 1.57660090214995E-0001	
 3.65850000000000E+0003	 1.56402287543381E-0001	
 3.66050000000000E+0003	 1.55189484871767E-0001	
 3.66250000000000E+0003	 1.53868182200153E-0001	
 3.66450000000000E+0003	 1.52553879528539E-0001	
 3.66650000000000E+0003	 1.51375076856925E-0001	
 3.66850000000000E+0003	 1.50269774185310E-0001	
 3.67050000000000E+0003	 1.49015471513696E-0001	
 3.67250000000000E+0003	 1.47984668842082E-0001	
 3.67450000000000E+0003	 1.47070366170468E-0001	
 3.67650000000000E+0003	 1.45999563498854E-0001	
 3.67850000000000E+0003	 1.45137260827240E-0001	
 3.68050000000000E+0003	 1.44309958155626E-0001	
 3.68250000000000E+0003	 1.43483155484012E-0001	
 3.68450000000000E+0003	 1.42692852812398E-0001	
 3.68650000000000E+0003	 1.42033050140784E-0001	
 3.68850000000000E+0003	 1.41396747469169E-0001	
 3.69050000000000E+0003	 1.40609444797555E-0001	
 3.69250000000000E+0003	 1.39810642125941E-0001	
 3.69450000000000E+0003	 1.39190839454327E-0001	
 3.69650000000000E+0003	 1.38604536782713E-0001	
 3.69850000000000E+0003	 1.38031234111099E-0001	
 3.70050000000000E+0003	 1.37503431439485E-0001	
 3.70250000000000E+0003	 1.36945128767871E-0001	
 3.70450000000000E+0003	 1.36408326096257E-0001	
 3.70650000000000E+0003	 1.35896023424643E-0001	
 3.70850000000000E+0003	 1.35384720753028E-0001	
 3.71050000000000E+0003	 1.34922418081414E-0001	
 3.71250000000000E+0003	 1.34588115409800E-0001	
 3.71450000000000E+0003	 1.34356812738186E-0001	
 3.71650000000000E+0003	 1.34043010066572E-0001	
 3.71850000000000E+0003	 1.33645707394958E-0001	
 3.72050000000000E+0003	 1.33248904723344E-0001	
 3.72250000000000E+0003	 1.32853602051730E-0001	
 3.72450000000000E+0003	 1.32520799380116E-0001	
 3.72650000000000E+0003	 1.32175496708502E-0001	
 3.72850000000000E+0003	 1.31860194036887E-0001	
 3.73050000000000E+0003	 1.31584391365273E-0001	
 3.73250000000000E+0003	 1.31304588693659E-0001	
 3.73450000000000E+0003	 1.31054286022045E-0001	
 3.73650000000000E+0003	 1.30791983350431E-0001	
 3.73850000000000E+0003	 1.30567680678817E-0001	
 3.74050000000000E+0003	 1.30269378007203E-0001	
 3.74250000000000E+0003	 1.30045075335589E-0001	
 3.74450000000000E+0003	 1.29742772663975E-0001	
 3.74650000000000E+0003	 1.29497469992361E-0001	
 3.74850000000000E+0003	 1.29273167320746E-0001	
 3.75050000000000E+0003	 1.29044364649132E-0001	
 3.75250000000000E+0003	 1.28905061977518E-0001	
 3.75450000000000E+0003	 1.28815259305904E-0001	
 3.75650000000000E+0003	 1.28681456634290E-0001	
 3.75850000000000E+0003	 1.28508653962676E-0001	
 3.76050000000000E+0003	 1.28312351291062E-0001	
 3.76250000000000E+0003	 1.28161048619448E-0001	
 3.76450000000000E+0003	 1.27992245947834E-0001	
 3.76650000000000E+0003	 1.27804443276220E-0001	
 3.76850000000000E+0003	 1.27665640604605E-0001	
 3.77050000000000E+0003	 1.27497337932991E-0001	
 3.77250000000000E+0003	 1.27367535261377E-0001	
 3.77450000000000E+0003	 1.27206232589763E-0001	
 3.77650000000000E+0003	 1.27060929918149E-0001	
 3.77850000000000E+0003	 1.26940127246535E-0001	
 3.78050000000000E+0003	 1.26774324574921E-0001	
 3.78250000000000E+0003	 1.26613021903307E-0001	
 3.78450000000000E+0003	 1.26455219231693E-0001	
 3.78650000000000E+0003	 1.26323416560079E-0001	
 3.78850000000000E+0003	 1.26219113888464E-0001	
 3.79050000000000E+0003	 1.26099311216850E-0001	
 3.79250000000000E+0003	 1.25946508545236E-0001	
 3.79450000000000E+0003	 1.25797705873622E-0001	
 3.79650000000000E+0003	 1.25584903202008E-0001	
 3.79850000000000E+0003	 1.25445600530394E-0001	
 3.80050000000000E+0003	 1.25316297858780E-0001	
 3.80250000000000E+0003	 1.25123995187166E-0001	
 3.80450000000000E+0003	 1.25105692515552E-0001	
 3.80650000000000E+0003	 1.25030389843938E-0001	
 3.80850000000000E+0003	 1.24962087172323E-0001	
 3.81050000000000E+0003	 1.24880784500709E-0001	
 3.81250000000000E+0003	 1.24736481829095E-0001	
 3.81450000000000E+0003	 1.24615179157481E-0001	
 3.81650000000000E+0003	 1.24421876485867E-0001	
 3.81850000000000E+0003	 1.24411573814253E-0001	
 3.82050000000000E+0003	 1.24365271142639E-0001	
 3.82250000000000E+0003	 1.24229968471025E-0001	
 3.82450000000000E+0003	 1.24190165799411E-0001	
 3.82650000000000E+0003	 1.24077363127797E-0001	
 3.82850000000000E+0003	 1.23982560456182E-0001	
 3.83050000000000E+0003	 1.23918757784568E-0001	
 3.83250000000000E+0003	 1.23840455112954E-0001	
 3.83450000000000E+0003	 1.23818152441340E-0001	
 3.83650000000000E+0003	 1.23763849769726E-0001	
 3.83850000000000E+0003	 1.23600547098112E-0001	
 3.84050000000000E+0003	 1.23503244426498E-0001	
 3.84250000000000E+0003	 1.23471941754884E-0001	
 3.84450000000000E+0003	 1.23438139083270E-0001	
 3.84650000000000E+0003	 1.23375336411656E-0001	
 3.84850000000000E+0003	 1.23209533740041E-0001	
 3.85050000000000E+0003	 1.23081231068427E-0001	
 3.85250000000000E+0003	 1.23087428396813E-0001	
 3.85450000000000E+0003	 1.23109625725199E-0001	
 3.85650000000000E+0003	 1.23113323053585E-0001	
 3.85850000000000E+0003	 1.23000520381971E-0001	
 3.86050000000000E+0003	 1.22894217710357E-0001	
 3.86250000000000E+0003	 1.22870915038743E-0001	
 3.86450000000000E+0003	 1.22794612367129E-0001	
 3.86650000000000E+0003	 1.22743309695515E-0001	
 3.86850000000000E+0003	 1.22731507023900E-0001	
 3.87050000000000E+0003	 1.22635704352286E-0001	
 3.87250000000000E+0003	 1.22652401680672E-0001	
 3.87450000000000E+0003	 1.22593099009058E-0001	
 3.87650000000000E+0003	 1.22531296337444E-0001	
 3.87850000000000E+0003	 1.22539493665830E-0001	
 3.88050000000000E+0003	 1.22458190994216E-0001	
 3.88250000000000E+0003	 1.22426888322602E-0001	
 3.88450000000000E+0003	 1.22460085650988E-0001	
 3.88650000000000E+0003	 1.22391782979374E-0001	
 3.88850000000000E+0003	 1.22380480307759E-0001	
 3.89050000000000E+0003	 1.22381177636145E-0001	
 3.89250000000000E+0003	 1.22336874964531E-0001	
 3.89450000000000E+0003	 1.22259572292917E-0001	
 3.89650000000000E+0003	 1.22202269621303E-0001	
 3.89850000000000E+0003	 1.22159466949689E-0001	
 3.90050000000000E+0003	 1.22106664278075E-0001	
 3.90250000000000E+0003	 1.22128361606461E-0001	
 3.90450000000000E+0003	 1.22161558934847E-0001	
 3.90650000000000E+0003	 1.22144756263233E-0001	
 3.90850000000000E+0003	 1.22102953591618E-0001	
 3.91050000000000E+0003	 1.22067150920004E-0001	
 3.91250000000000E+0003	 1.22027848248390E-0001	
 3.91450000000000E+0003	 1.22006045576776E-0001	
 3.91650000000000E+0003	 1.21992242905162E-0001	
 3.91850000000000E+0003	 1.21981940233548E-0001	
 3.92050000000000E+0003	 1.21961137561934E-0001	
 3.92250000000000E+0003	 1.21958334890320E-0001	
 3.92450000000000E+0003	 1.21947532218706E-0001	
 3.92650000000000E+0003	 1.21914729547092E-0001	
 3.92850000000000E+0003	 1.21875926875477E-0001	
 3.93050000000000E+0003	 1.21862624203863E-0001	
 3.93250000000000E+0003	 1.21865821532249E-0001	
 3.93450000000000E+0003	 1.21876018860635E-0001	
 3.93650000000000E+0003	 1.21862216189021E-0001	
 3.93850000000000E+0003	 1.21823913517407E-0001	
 3.94050000000000E+0003	 1.21817110845793E-0001	
 3.94250000000000E+0003	 1.21806808174179E-0001	
 3.94450000000000E+0003	 1.21774505502565E-0001	
 3.94650000000000E+0003	 1.21749702830951E-0001	
 3.94850000000000E+0003	 1.21741900159336E-0001	
 3.95050000000000E+0003	 1.21742597487722E-0001	
 3.95250000000000E+0003	 1.21730794816108E-0001	
 3.95450000000000E+0003	 1.21710492144494E-0001	
 3.95650000000000E+0003	 1.21692189472880E-0001	
 3.95850000000000E+0003	 1.21679386801266E-0001	
 3.96050000000000E+0003	 1.21670084129652E-0001	
 3.96250000000000E+0003	 1.21659281458038E-0001	
 3.96450000000000E+0003	 1.21652478786424E-0001	
 3.96650000000000E+0003	 1.21645676114810E-0001	
 3.96850000000000E+0003	 1.21633873443195E-0001	
 3.97050000000000E+0003	 1.21618070771581E-0001	
 3.97250000000000E+0003	 1.21600768099967E-0001	
 3.97450000000000E+0003	 1.21594465428353E-0001	
 3.97650000000000E+0003	 1.21598662756739E-0001	
 3.97850000000000E+0003	 1.21591360085125E-0001	
 3.98050000000000E+0003	 1.21574557413511E-0001	
 3.98250000000000E+0003	 1.21581254741897E-0001	
 3.98450000000000E+0003	 1.21588952070283E-0001	
 3.98650000000000E+0003	 1.21565649398669E-0001	
 3.98850000000000E+0003	 1.21538346727054E-0001	
 3.99050000000000E+0003	 1.21526044055440E-0001	
 3.99250000000000E+0003	 1.21517741383826E-0001	
 3.99450000000000E+0003	 1.21509438712212E-0001	
 3.99650000000000E+0003	 1.21498136040598E-0001	
 3.99850000000000E+0003	 1.21469860294118E-0001	

>1	DATALINE
