*CPCWIN*

>1	DATALINE
DATALINE
1
Operator:

Description:

Remarks:





15.9.2008
11:26


_x	_y
	
	
UNIT	UNIT
 4.50500000000000E+0002	 1.92752249555922E-0001	
 4.52500000000000E+0002	 1.93810364052288E-0001	
 4.54500000000000E+0002	 1.94746978548653E-0001	
 4.56500000000000E+0002	 1.95947593045019E-0001	
 4.58500000000000E+0002	 1.96967207541384E-0001	
 4.60500000000000E+0002	 1.98408822037750E-0001	
 4.62500000000000E+0002	 1.99629436534115E-0001	
 4.64500000000000E+0002	 2.00950551030481E-0001	
 4.66500000000000E+0002	 2.01976665526846E-0001	
 4.68500000000000E+0002	 2.03153780023212E-0001	
 4.70500000000000E+0002	 2.03911394519577E-0001	
 4.72500000000000E+0002	 2.04714009015943E-0001	
 4.74500000000000E+0002	 2.05983623512308E-0001	
 4.76500000000000E+0002	 2.07595738008674E-0001	
 4.78500000000000E+0002	 2.08880852505039E-0001	
 4.80500000000000E+0002	 2.10222467001405E-0001	
 4.82500000000000E+0002	 2.11196581497770E-0001	
 4.84500000000000E+0002	 2.12501695994136E-0001	
 4.86500000000000E+0002	 2.14136310490501E-0001	
 4.88500000000000E+0002	 2.15752924986867E-0001	
 4.90500000000000E+0002	 2.17123039483233E-0001	
 4.92500000000000E+0002	 2.18724153979598E-0001	
 4.94500000000000E+0002	 2.20399268475964E-0001	
 4.96500000000000E+0002	 2.22157382972329E-0001	
 4.98500000000000E+0002	 2.23771997468695E-0001	
 5.00500000000000E+0002	 2.25530111965060E-0001	
 5.02500000000000E+0002	 2.27088226461426E-0001	
 5.04500000000000E+0002	 2.28384840957791E-0001	
 5.06500000000000E+0002	 2.29460955454157E-0001	
 5.08500000000000E+0002	 2.30872569950522E-0001	
 5.10500000000000E+0002	 2.32290184446888E-0001	
 5.12500000000000E+0002	 2.33742798943253E-0001	
 5.14500000000000E+0002	 2.35178913439619E-0001	
 5.16500000000000E+0002	 2.36636527935984E-0001	
 5.18500000000000E+0002	 2.38147142432350E-0001	
 5.20500000000000E+0002	 2.39936256928715E-0001	
 5.22500000000000E+0002	 2.41633871425081E-0001	
 5.24500000000000E+0002	 2.43551485921446E-0001	
 5.26500000000000E+0002	 2.45879100417812E-0001	
 5.28500000000000E+0002	 2.48606214914178E-0001	
 5.30500000000000E+0002	 2.50513829410543E-0001	
 5.32500000000000E+0002	 2.50651443906909E-0001	
 5.34500000000000E+0002	 2.49461558403274E-0001	
 5.36500000000000E+0002	 2.48101172899640E-0001	
 5.38500000000000E+0002	 2.46858787396005E-0001	
 5.40500000000000E+0002	 2.45631901892371E-0001	
 5.42500000000000E+0002	 2.44344016388736E-0001	
 5.44500000000000E+0002	 2.43142130885102E-0001	
 5.46500000000000E+0002	 2.42093745381467E-0001	
 5.48500000000000E+0002	 2.41405859877833E-0001	
 5.50500000000000E+0002	 2.40835474374198E-0001	
 5.52500000000000E+0002	 2.40384088870564E-0001	
 5.54500000000000E+0002	 2.39967703366929E-0001	
 5.56500000000000E+0002	 2.39726317863295E-0001	
 5.58500000000000E+0002	 2.39550432359660E-0001	
 5.60500000000000E+0002	 2.39413546856026E-0001	
 5.62500000000000E+0002	 2.39220661352391E-0001	
 5.64500000000000E+0002	 2.39077775848757E-0001	
 5.66500000000000E+0002	 2.38886390345122E-0001	
 5.68500000000000E+0002	 2.38761504841488E-0001	
 5.70500000000000E+0002	 2.38736619337854E-0001	
 5.72500000000000E+0002	 2.38785233834219E-0001	
 5.74500000000000E+0002	 2.38731348330585E-0001	
 5.76500000000000E+0002	 2.38526962826950E-0001	
 5.78500000000000E+0002	 2.37941577323316E-0001	
 5.80500000000000E+0002	 2.36962691819681E-0001	
 5.82500000000000E+0002	 2.35837306316047E-0001	
 5.84500000000000E+0002	 2.34893920812412E-0001	
 5.86500000000000E+0002	 2.34148535308778E-0001	
 5.88500000000000E+0002	 2.33749649805143E-0001	
 5.90500000000000E+0002	 2.33512764301509E-0001	
 5.92500000000000E+0002	 2.33591378797874E-0001	
 5.94500000000000E+0002	 2.33870993294240E-0001	
 5.96500000000000E+0002	 2.34190107790605E-0001	
 5.98500000000000E+0002	 2.34443222286971E-0001	
 6.00500000000000E+0002	 2.34701336783336E-0001	
 6.02500000000000E+0002	 2.34930451279702E-0001	
 6.04500000000000E+0002	 2.35201565776067E-0001	
 6.06500000000000E+0002	 2.35488680272433E-0001	
 6.08500000000000E+0002	 2.35865294768798E-0001	
 6.10500000000000E+0002	 2.36138909265164E-0001	
 6.12500000000000E+0002	 2.36264023761530E-0001	
 6.14500000000000E+0002	 2.36042138257895E-0001	
 6.16500000000000E+0002	 2.35525252754261E-0001	
 6.18500000000000E+0002	 2.34864867250626E-0001	
 6.20500000000000E+0002	 2.34159981746992E-0001	
 6.22500000000000E+0002	 2.33238096243357E-0001	
 6.24500000000000E+0002	 2.32310710739723E-0001	
 6.26500000000000E+0002	 2.31478825236088E-0001	
 6.28500000000000E+0002	 2.30822439732454E-0001	
 6.30500000000000E+0002	 2.30175054228819E-0001	
 6.32500000000000E+0002	 2.29607668725185E-0001	
 6.34500000000000E+0002	 2.29060783221550E-0001	
 6.36500000000000E+0002	 2.28656897717916E-0001	
 6.38500000000000E+0002	 2.28324512214281E-0001	
 6.40500000000000E+0002	 2.28017626710647E-0001	
 6.42500000000000E+0002	 2.27531741207012E-0001	
 6.44500000000000E+0002	 2.26929355703378E-0001	
 6.46500000000000E+0002	 2.26241470199743E-0001	
 6.48500000000000E+0002	 2.25597084696109E-0001	
 6.50500000000000E+0002	 2.24982199192474E-0001	
 6.52500000000000E+0002	 2.24510313688840E-0001	
 6.54500000000000E+0002	 2.24071928185206E-0001	
 6.56500000000000E+0002	 2.23770542681571E-0001	
 6.58500000000000E+0002	 2.23501157177937E-0001	
 6.60500000000000E+0002	 2.23285771674302E-0001	
 6.62500000000000E+0002	 2.23120886170668E-0001	
 6.64500000000000E+0002	 2.23380500667033E-0001	
 6.66500000000000E+0002	 2.26139115163399E-0001	
 6.68500000000000E+0002	 2.26003729659764E-0001	
 6.70500000000000E+0002	 2.21580344156130E-0001	
 6.72500000000000E+0002	 2.20055958652495E-0001	
 6.74500000000000E+0002	 2.19241073148861E-0001	
 6.76500000000000E+0002	 2.18362687645226E-0001	
 6.78500000000000E+0002	 2.17437302141592E-0001	
 6.80500000000000E+0002	 2.16624416637957E-0001	
 6.82500000000000E+0002	 2.15845531134323E-0001	
 6.84500000000000E+0002	 2.15202645630688E-0001	
 6.86500000000000E+0002	 2.14634760127054E-0001	
 6.88500000000000E+0002	 2.14190874623419E-0001	
 6.90500000000000E+0002	 2.13797489119785E-0001	
 6.92500000000000E+0002	 2.13616103616151E-0001	
 6.94500000000000E+0002	 2.13562218112516E-0001	
 6.96500000000000E+0002	 2.13700332608882E-0001	
 6.98500000000000E+0002	 2.13804447105247E-0001	
 7.00500000000000E+0002	 2.13758061601613E-0001	
 7.02500000000000E+0002	 2.13348176097978E-0001	
 7.04500000000000E+0002	 2.12617790594344E-0001	
 7.06500000000000E+0002	 2.11565405090709E-0001	
 7.08500000000000E+0002	 2.10377019587075E-0001	
 7.10500000000000E+0002	 2.09046134083440E-0001	
 7.12500000000000E+0002	 2.07689748579806E-0001	
 7.14500000000000E+0002	 2.06266863076171E-0001	
 7.16500000000000E+0002	 2.04922477572537E-0001	
 7.18500000000000E+0002	 2.03633092068902E-0001	
 7.20500000000000E+0002	 2.02471206565268E-0001	
 7.22500000000000E+0002	 2.01382321061633E-0001	
 7.24500000000000E+0002	 2.00156935557999E-0001	
 7.26500000000000E+0002	 1.98657550054364E-0001	
 7.28500000000000E+0002	 1.97116664550730E-0001	
 7.30500000000000E+0002	 1.95600279047095E-0001	
 7.32500000000000E+0002	 1.94282393543461E-0001	
 7.34500000000000E+0002	 1.93125008039827E-0001	
 7.36500000000000E+0002	 1.92139122536192E-0001	
 7.38500000000000E+0002	 1.91209737032558E-0001	
 7.40500000000000E+0002	 1.90396351528923E-0001	
 7.42500000000000E+0002	 1.89666466025289E-0001	
 7.44500000000000E+0002	 1.89075580521654E-0001	
 7.46500000000000E+0002	 1.88502195018020E-0001	
 7.48500000000000E+0002	 1.87944309514385E-0001	
 7.50500000000000E+0002	 1.87275424010751E-0001	
 7.52500000000000E+0002	 1.86513538507116E-0001	
 7.54500000000000E+0002	 1.85585653003482E-0001	
 7.56500000000000E+0002	 1.84579767499847E-0001	
 7.58500000000000E+0002	 1.83466881996213E-0001	
 7.60500000000000E+0002	 1.82415996492578E-0001	
 7.62500000000000E+0002	 1.81476110988944E-0001	
 7.64500000000000E+0002	 1.80636725485309E-0001	
 7.66500000000000E+0002	 1.79623839981675E-0001	
 7.68500000000000E+0002	 1.78454454478040E-0001	
 7.70500000000000E+0002	 1.77261068974406E-0001	
 7.72500000000000E+0002	 1.76342183470771E-0001	
 7.74500000000000E+0002	 1.75834297967137E-0001	
 7.76500000000000E+0002	 1.75967412463503E-0001	
 7.78500000000000E+0002	 1.76409026959868E-0001	
 7.80500000000000E+0002	 1.76390141456234E-0001	
 7.82500000000000E+0002	 1.75521255952599E-0001	
 7.84500000000000E+0002	 1.74459870448965E-0001	
 7.86500000000000E+0002	 1.73580484945330E-0001	
 7.88500000000000E+0002	 1.72904099441696E-0001	
 7.90500000000000E+0002	 1.72428713938061E-0001	
 7.92500000000000E+0002	 1.72461328434427E-0001	
 7.94500000000000E+0002	 1.72971942930792E-0001	
 7.96500000000000E+0002	 1.73728557427158E-0001	
 7.98500000000000E+0002	 1.74408171923523E-0001	
 8.00500000000000E+0002	 1.75046786419889E-0001	
 8.02500000000000E+0002	 1.75476400916254E-0001	
 8.04500000000000E+0002	 1.75435015412620E-0001	
 8.06500000000000E+0002	 1.74644629908985E-0001	
 8.08500000000000E+0002	 1.73342744405351E-0001	
 8.10500000000000E+0002	 1.71858358901716E-0001	
 8.12500000000000E+0002	 1.70555473398082E-0001	
 8.14500000000000E+0002	 1.69474587894447E-0001	
 8.16500000000000E+0002	 1.68672702390813E-0001	
 8.18500000000000E+0002	 1.68053816887179E-0001	
 8.20500000000000E+0002	 1.67655931383544E-0001	
 8.22500000000000E+0002	 1.67385545879910E-0001	
 8.24500000000000E+0002	 1.67305160376275E-0001	
 8.26500000000000E+0002	 1.67292774872641E-0001	
 8.28500000000000E+0002	 1.67394389369006E-0001	
 8.30500000000000E+0002	 1.67542003865372E-0001	
 8.32500000000000E+0002	 1.67811618361737E-0001	
 8.34500000000000E+0002	 1.68112732858103E-0001	
 8.36500000000000E+0002	 1.68456347354468E-0001	
 8.38500000000000E+0002	 1.68746961850834E-0001	
 8.40500000000000E+0002	 1.69026576347199E-0001	
 8.42500000000000E+0002	 1.69257190843565E-0001	
 8.44500000000000E+0002	 1.69554305339930E-0001	
 8.46500000000000E+0002	 1.69924919836296E-0001	
 8.48500000000000E+0002	 1.70483034332661E-0001	
 8.50500000000000E+0002	 1.71174148829027E-0001	
 8.52500000000000E+0002	 1.72006763325392E-0001	
 8.54500000000000E+0002	 1.72885377821758E-0001	
 8.56500000000000E+0002	 1.73791492318124E-0001	
 8.58500000000000E+0002	 1.74527606814489E-0001	
 8.60500000000000E+0002	 1.75004721310855E-0001	
 8.62500000000000E+0002	 1.75091335807220E-0001	
 8.64500000000000E+0002	 1.74836950303586E-0001	
 8.66500000000000E+0002	 1.74289564799951E-0001	
 8.68500000000000E+0002	 1.73752179296317E-0001	
 8.70500000000000E+0002	 1.73506293792682E-0001	
 8.72500000000000E+0002	 1.73275408289048E-0001	
 8.74500000000000E+0002	 1.72343522785413E-0001	
 8.76500000000000E+0002	 1.71059137281779E-0001	
 8.78500000000000E+0002	 1.69885751778144E-0001	
 8.80500000000000E+0002	 1.68913866274510E-0001	
 8.82500000000000E+0002	 1.68015480770875E-0001	
 8.84500000000000E+0002	 1.67209595267241E-0001	
 8.86500000000000E+0002	 1.66487209763606E-0001	
 8.88500000000000E+0002	 1.65978324259972E-0001	
 8.90500000000000E+0002	 1.65706938756337E-0001	
 8.92500000000000E+0002	 1.65703053252703E-0001	
 8.94500000000000E+0002	 1.65859167749068E-0001	
 8.96500000000000E+0002	 1.66160782245434E-0001	
 8.98500000000000E+0002	 1.66508396741800E-0001	
 9.00500000000000E+0002	 1.66933011238165E-0001	
 9.02500000000000E+0002	 1.67480625734531E-0001	
 9.04500000000000E+0002	 1.68276740230896E-0001	
 9.06500000000000E+0002	 1.69292854727262E-0001	
 9.08500000000000E+0002	 1.70486969223627E-0001	
 9.10500000000000E+0002	 1.71661083719993E-0001	
 9.12500000000000E+0002	 1.72677698216358E-0001	
 9.14500000000000E+0002	 1.73373312712724E-0001	
 9.16500000000000E+0002	 1.73727427209089E-0001	
 9.18500000000000E+0002	 1.73756541705455E-0001	
 9.20500000000000E+0002	 1.73665656201820E-0001	
 9.22500000000000E+0002	 1.73654270698186E-0001	
 9.24500000000000E+0002	 1.73948885194551E-0001	
 9.26500000000000E+0002	 1.74596999690917E-0001	
 9.28500000000000E+0002	 1.75636114187282E-0001	
 9.30500000000000E+0002	 1.76946228683648E-0001	
 9.32500000000000E+0002	 1.78427343180013E-0001	
 9.34500000000000E+0002	 1.79925957676379E-0001	
 9.36500000000000E+0002	 1.81410072172744E-0001	
 9.38500000000000E+0002	 1.82782186669110E-0001	
 9.40500000000000E+0002	 1.83994301165476E-0001	
 9.42500000000000E+0002	 1.84931415661841E-0001	
 9.44500000000000E+0002	 1.85556030158207E-0001	
 9.46500000000000E+0002	 1.85781144654572E-0001	
 9.48500000000000E+0002	 1.85699259150938E-0001	
 9.50500000000000E+0002	 1.85459373647303E-0001	
 9.52500000000000E+0002	 1.85366988143669E-0001	
 9.54500000000000E+0002	 1.85665602640034E-0001	
 9.56500000000000E+0002	 1.86558217136400E-0001	
 9.58500000000000E+0002	 1.88037331632765E-0001	
 9.60500000000000E+0002	 1.90046446129131E-0001	
 9.62500000000000E+0002	 1.92384560625496E-0001	
 9.64500000000000E+0002	 1.94948175121862E-0001	
 9.66500000000000E+0002	 1.97611289618227E-0001	
 9.68500000000000E+0002	 2.00422904114593E-0001	
 9.70500000000000E+0002	 2.03491018610958E-0001	
 9.72500000000000E+0002	 2.07163133107324E-0001	
 9.74500000000000E+0002	 2.11815247603689E-0001	
 9.76500000000000E+0002	 2.17887362100055E-0001	
 9.78500000000000E+0002	 2.25585476596421E-0001	
 9.80500000000000E+0002	 2.34860591092786E-0001	
 9.82500000000000E+0002	 2.45116705589152E-0001	
 9.84500000000000E+0002	 2.55443320085517E-0001	
 9.86500000000000E+0002	 2.64737934581883E-0001	
 9.88500000000000E+0002	 2.72176549078248E-0001	
 9.90500000000000E+0002	 2.77200163574614E-0001	
 9.92500000000000E+0002	 2.79681278070979E-0001	
 9.94500000000000E+0002	 2.79801892567345E-0001	
 9.96500000000000E+0002	 2.78161007063710E-0001	
 9.98500000000000E+0002	 2.75614121560076E-0001	
 1.00050000000000E+0003	 2.73272736056441E-0001	
 1.00250000000000E+0003	 2.72055850552807E-0001	
 1.00450000000000E+0003	 2.72641965049172E-0001	
 1.00650000000000E+0003	 2.75214079545538E-0001	
 1.00850000000000E+0003	 2.79475694041903E-0001	
 1.01050000000000E+0003	 2.84663808538269E-0001	
 1.01250000000000E+0003	 2.90109423034634E-0001	
 1.01450000000000E+0003	 2.95322537531000E-0001	
 1.01650000000000E+0003	 3.00203152027365E-0001	
 1.01850000000000E+0003	 3.04940766523731E-0001	
 1.02050000000000E+0003	 3.09994881020097E-0001	
 1.02250000000000E+0003	 3.15678495516462E-0001	
 1.02450000000000E+0003	 3.22017110012828E-0001	
 1.02650000000000E+0003	 3.28565224509193E-0001	
 1.02850000000000E+0003	 3.34656339005559E-0001	
 1.03050000000000E+0003	 3.39578453501924E-0001	
 1.03250000000000E+0003	 3.43079567998290E-0001	
 1.03450000000000E+0003	 3.45332682494655E-0001	
 1.03650000000000E+0003	 3.46807796991021E-0001	
 1.03850000000000E+0003	 3.47958911487386E-0001	
 1.04050000000000E+0003	 3.49290025983752E-0001	
 1.04250000000000E+0003	 3.51124140480117E-0001	
 1.04450000000000E+0003	 3.53539754976483E-0001	
 1.04650000000000E+0003	 3.56254869472848E-0001	
 1.04850000000000E+0003	 3.58786483969214E-0001	
 1.05050000000000E+0003	 3.60548098465579E-0001	
 1.05250000000000E+0003	 3.61324712961945E-0001	
 1.05450000000000E+0003	 3.61297327458310E-0001	
 1.05650000000000E+0003	 3.60894441954676E-0001	
 1.05850000000000E+0003	 3.60339556451041E-0001	
 1.06050000000000E+0003	 3.59627670947407E-0001	
 1.06250000000000E+0003	 3.58708785443773E-0001	
 1.06450000000000E+0003	 3.57849899940138E-0001	
 1.06650000000000E+0003	 3.57433014436504E-0001	
 1.06850000000000E+0003	 3.57749628932869E-0001	
 1.07050000000000E+0003	 3.58809243429235E-0001	
 1.07250000000000E+0003	 3.60378857925600E-0001	
 1.07450000000000E+0003	 3.61947472421966E-0001	
 1.07650000000000E+0003	 3.62962086918331E-0001	
 1.07850000000000E+0003	 3.62911701414697E-0001	
 1.08050000000000E+0003	 3.61530815911062E-0001	
 1.08250000000000E+0003	 3.58811430407428E-0001	
 1.08450000000000E+0003	 3.55084044903793E-0001	
 1.08650000000000E+0003	 3.50755159400159E-0001	
 1.08850000000000E+0003	 3.46269773896524E-0001	
 1.09050000000000E+0003	 3.41962888392890E-0001	
 1.09250000000000E+0003	 3.38123002889255E-0001	
 1.09450000000000E+0003	 3.34890117385621E-0001	
 1.09650000000000E+0003	 3.32345231881986E-0001	
 1.09850000000000E+0003	 3.30416346378352E-0001	
 1.10050000000000E+0003	 3.28934460874717E-0001	
 1.10250000000000E+0003	 3.27644575371083E-0001	
 1.10450000000000E+0003	 3.26349189867449E-0001	
 1.10650000000000E+0003	 3.24884804363814E-0001	
 1.10850000000000E+0003	 3.23240418860180E-0001	
 1.11050000000000E+0003	 3.21417033356545E-0001	
 1.11250000000000E+0003	 3.19350147852911E-0001	
 1.11450000000000E+0003	 3.16794762349276E-0001	
 1.11650000000000E+0003	 3.13553376845642E-0001	
 1.11850000000000E+0003	 3.09563491342007E-0001	
 1.12050000000000E+0003	 3.04932105838373E-0001	
 1.12250000000000E+0003	 2.99780220334738E-0001	
 1.12450000000000E+0003	 2.94290834831104E-0001	
 1.12650000000000E+0003	 2.88590949327469E-0001	
 1.12850000000000E+0003	 2.82847563823835E-0001	
 1.13050000000000E+0003	 2.77200178320200E-0001	
 1.13250000000000E+0003	 2.71950292816566E-0001	
 1.13450000000000E+0003	 2.67412907312931E-0001	
 1.13650000000000E+0003	 2.63873521809297E-0001	
 1.13850000000000E+0003	 2.61568136305662E-0001	
 1.14050000000000E+0003	 2.60691750802028E-0001	
 1.14250000000000E+0003	 2.61154865298394E-0001	
 1.14450000000000E+0003	 2.62565479794759E-0001	
 1.14650000000000E+0003	 2.64175094291125E-0001	
 1.14850000000000E+0003	 2.65158708787490E-0001	
 1.15050000000000E+0003	 2.64835323283856E-0001	
 1.15250000000000E+0003	 2.62958437780221E-0001	
 1.15450000000000E+0003	 2.59605052276587E-0001	
 1.15650000000000E+0003	 2.55173666772952E-0001	
 1.15850000000000E+0003	 2.50174281269318E-0001	
 1.16050000000000E+0003	 2.45111395765683E-0001	
 1.16250000000000E+0003	 2.40278510262049E-0001	
 1.16450000000000E+0003	 2.35889124758414E-0001	
 1.16650000000000E+0003	 2.32019739254780E-0001	
 1.16850000000000E+0003	 2.28733853751145E-0001	
 1.17050000000000E+0003	 2.25952468247511E-0001	
 1.17250000000000E+0003	 2.23515582743876E-0001	
 1.17450000000000E+0003	 2.21244197240242E-0001	
 1.17650000000000E+0003	 2.19217311736607E-0001	
 1.17850000000000E+0003	 2.17587426232973E-0001	
 1.18050000000000E+0003	 2.16568040729338E-0001	
 1.18250000000000E+0003	 2.16280655225704E-0001	
 1.18450000000000E+0003	 2.16846269722070E-0001	
 1.18650000000000E+0003	 2.18291384218435E-0001	
 1.18850000000000E+0003	 2.20634498714801E-0001	
 1.19050000000000E+0003	 2.23797113211166E-0001	
 1.19250000000000E+0003	 2.27717227707532E-0001	
 1.19450000000000E+0003	 2.32240342203897E-0001	
 1.19650000000000E+0003	 2.37198456700263E-0001	
 1.19850000000000E+0003	 2.42362071196628E-0001	
 1.20050000000000E+0003	 2.47569185692994E-0001	
 1.20250000000000E+0003	 2.52637800189359E-0001	
 1.20450000000000E+0003	 2.57484914685725E-0001	
 1.20650000000000E+0003	 2.62057029182090E-0001	
 1.20850000000000E+0003	 2.66386643678456E-0001	
 1.21050000000000E+0003	 2.70562258174821E-0001	
 1.21250000000000E+0003	 2.74844872671187E-0001	
 1.21450000000000E+0003	 2.79442487167552E-0001	
 1.21650000000000E+0003	 2.84727601663918E-0001	
 1.21850000000000E+0003	 2.90980216160283E-0001	
 1.22050000000000E+0003	 2.97139330656649E-0001	
 1.22250000000000E+0003	 3.00824445153014E-0001	
 1.22450000000000E+0003	 3.01143559649380E-0001	
 1.22650000000000E+0003	 2.99500674145746E-0001	
 1.22850000000000E+0003	 2.97571788642111E-0001	
 1.23050000000000E+0003	 2.95841903138477E-0001	
 1.23250000000000E+0003	 2.94239517634842E-0001	
 1.23450000000000E+0003	 2.92677632131208E-0001	
 1.23650000000000E+0003	 2.91118246627573E-0001	
 1.23850000000000E+0003	 2.89404361123939E-0001	
 1.24050000000000E+0003	 2.87442975620304E-0001	
 1.24250000000000E+0003	 2.85152090116670E-0001	
 1.24450000000000E+0003	 2.82564204613035E-0001	
 1.24650000000000E+0003	 2.79730319109401E-0001	
 1.24850000000000E+0003	 2.76715433605766E-0001	
 1.25050000000000E+0003	 2.73544048102132E-0001	
 1.25250000000000E+0003	 2.70306662598497E-0001	
 1.25450000000000E+0003	 2.67028777094863E-0001	
 1.25650000000000E+0003	 2.63762391591228E-0001	
 1.25850000000000E+0003	 2.60462506087594E-0001	
 1.26050000000000E+0003	 2.57133120583959E-0001	
 1.26250000000000E+0003	 2.53817735080325E-0001	
 1.26450000000000E+0003	 2.50592849576690E-0001	
 1.26650000000000E+0003	 2.47478464073056E-0001	
 1.26850000000000E+0003	 2.44593078569422E-0001	
 1.27050000000000E+0003	 2.41962193065787E-0001	
 1.27250000000000E+0003	 2.39675307562153E-0001	
 1.27450000000000E+0003	 2.37708922058518E-0001	
 1.27650000000000E+0003	 2.35975536554884E-0001	
 1.27850000000000E+0003	 2.34422151051249E-0001	
 1.28050000000000E+0003	 2.33025265547615E-0001	
 1.28250000000000E+0003	 2.31610880043980E-0001	
 1.28450000000000E+0003	 2.30138494540346E-0001	
 1.28650000000000E+0003	 2.28660109036711E-0001	
 1.28850000000000E+0003	 2.27315723533077E-0001	
 1.29050000000000E+0003	 2.26187338029442E-0001	
 1.29250000000000E+0003	 2.25308952525808E-0001	
 1.29450000000000E+0003	 2.24642567022173E-0001	
 1.29650000000000E+0003	 2.24255181518539E-0001	
 1.29850000000000E+0003	 2.24161796014904E-0001	
 1.30050000000000E+0003	 2.24358910511270E-0001	
 1.30250000000000E+0003	 2.24717525007635E-0001	
 1.30450000000000E+0003	 2.25156639504001E-0001	
 1.30650000000000E+0003	 2.25627754000367E-0001	
 1.30850000000000E+0003	 2.26150868496732E-0001	
 1.31050000000000E+0003	 2.26689482993098E-0001	
 1.31250000000000E+0003	 2.27183097489463E-0001	
 1.31450000000000E+0003	 2.27580211985829E-0001	
 1.31650000000000E+0003	 2.27815326482194E-0001	
 1.31850000000000E+0003	 2.27799940978560E-0001	
 1.32050000000000E+0003	 2.27698555474925E-0001	
 1.32250000000000E+0003	 2.27579169971291E-0001	
 1.32450000000000E+0003	 2.27344784467656E-0001	
 1.32650000000000E+0003	 2.27062398964022E-0001	
 1.32850000000000E+0003	 2.26825013460387E-0001	
 1.33050000000000E+0003	 2.26659127956753E-0001	
 1.33250000000000E+0003	 2.26531242453118E-0001	
 1.33450000000000E+0003	 2.26310856949484E-0001	
 1.33650000000000E+0003	 2.25856471445849E-0001	
 1.33850000000000E+0003	 2.25153085942215E-0001	
 1.34050000000000E+0003	 2.24564700438580E-0001	
 1.34250000000000E+0003	 2.24244814934946E-0001	
 1.34450000000000E+0003	 2.23910929431311E-0001	
 1.34650000000000E+0003	 2.23637043927677E-0001	
 1.34850000000000E+0003	 2.23835158424043E-0001	
 1.35050000000000E+0003	 2.24930772920408E-0001	
 1.35250000000000E+0003	 2.27017887416774E-0001	
 1.35450000000000E+0003	 2.29824001913139E-0001	
 1.35650000000000E+0003	 2.32935116409505E-0001	
 1.35850000000000E+0003	 2.35901730905870E-0001	
 1.36050000000000E+0003	 2.38654845402236E-0001	
 1.36250000000000E+0003	 2.41550959898601E-0001	
 1.36450000000000E+0003	 2.44446574394967E-0001	
 1.36650000000000E+0003	 2.46779688891332E-0001	
 1.36850000000000E+0003	 2.48225803387698E-0001	
 1.37050000000000E+0003	 2.48546417884063E-0001	
 1.37250000000000E+0003	 2.48247532380429E-0001	
 1.37450000000000E+0003	 2.47760646876794E-0001	
 1.37650000000000E+0003	 2.47526261373160E-0001	
 1.37850000000000E+0003	 2.47470375869525E-0001	
 1.38050000000000E+0003	 2.47209490365891E-0001	
 1.38250000000000E+0003	 2.47107604862256E-0001	
 1.38450000000000E+0003	 2.46979219358622E-0001	
 1.38650000000000E+0003	 2.46756833854987E-0001	
 1.38850000000000E+0003	 2.46899448351353E-0001	
 1.39050000000000E+0003	 2.47354062847719E-0001	
 1.39250000000000E+0003	 2.47701177344084E-0001	
 1.39450000000000E+0003	 2.48131291840450E-0001	
 1.39650000000000E+0003	 2.48586906336815E-0001	
 1.39850000000000E+0003	 2.49426520833181E-0001	
 1.40050000000000E+0003	 2.50117135329546E-0001	
 1.40250000000000E+0003	 2.50013249825912E-0001	
 1.40450000000000E+0003	 2.49812864322277E-0001	
 1.40650000000000E+0003	 2.49170978818643E-0001	
 1.40850000000000E+0003	 2.48603593315008E-0001	
 1.41050000000000E+0003	 2.48088707811374E-0001	
 1.41250000000000E+0003	 2.47669822307739E-0001	
 1.41450000000000E+0003	 2.47239436804105E-0001	
 1.41650000000000E+0003	 2.46246051300470E-0001	
 1.41850000000000E+0003	 2.44722665796836E-0001	
 1.42050000000000E+0003	 2.43678780293201E-0001	
 1.42250000000000E+0003	 2.42749394789567E-0001	
 1.42450000000000E+0003	 2.41687009285932E-0001	
 1.42650000000000E+0003	 2.40028623782298E-0001	
 1.42850000000000E+0003	 2.38696238278663E-0001	
 1.43050000000000E+0003	 2.37669352775029E-0001	
 1.43250000000000E+0003	 2.37165967271395E-0001	
 1.43450000000000E+0003	 2.36952581767760E-0001	
 1.43650000000000E+0003	 2.38373196264126E-0001	
 1.43850000000000E+0003	 2.39697310760491E-0001	
 1.44050000000000E+0003	 2.40943425256857E-0001	
 1.44250000000000E+0003	 2.42414039753222E-0001	
 1.44450000000000E+0003	 2.43392154249588E-0001	
 1.44650000000000E+0003	 2.44300768745953E-0001	
 1.44850000000000E+0003	 2.45530883242319E-0001	
 1.45050000000000E+0003	 2.46419997738684E-0001	
 1.45250000000000E+0003	 2.46907112235050E-0001	
 1.45450000000000E+0003	 2.45462226731415E-0001	
 1.45650000000000E+0003	 2.43135841227781E-0001	
 1.45850000000000E+0003	 2.40995455724146E-0001	
 1.46050000000000E+0003	 2.40345570220512E-0001	
 1.46250000000000E+0003	 2.38206684716877E-0001	
 1.46450000000000E+0003	 2.34984299213243E-0001	
 1.46650000000000E+0003	 2.31279913709608E-0001	
 1.46850000000000E+0003	 2.27610028205974E-0001	
 1.47050000000000E+0003	 2.22914642702340E-0001	
 1.47250000000000E+0003	 2.16922757198705E-0001	
 1.47450000000000E+0003	 2.12004871695071E-0001	
 1.47650000000000E+0003	 2.09870486191436E-0001	
 1.47850000000000E+0003	 2.07840100687802E-0001	
 1.48050000000000E+0003	 2.06149715184167E-0001	
 1.48250000000000E+0003	 2.05451829680533E-0001	
 1.48450000000000E+0003	 2.05340944176898E-0001	
 1.48650000000000E+0003	 2.05810058673264E-0001	
 1.48850000000000E+0003	 2.06861673169629E-0001	
 1.49050000000000E+0003	 2.10025787665995E-0001	
 1.49250000000000E+0003	 2.13667902162360E-0001	
 1.49450000000000E+0003	 2.16151516658726E-0001	
 1.49650000000000E+0003	 2.19809131155091E-0001	
 1.49850000000000E+0003	 2.25015745651457E-0001	
 1.50050000000000E+0003	 2.30632360147822E-0001	
 1.50250000000000E+0003	 2.34679474644188E-0001	
 1.50450000000000E+0003	 2.37145589140553E-0001	
 1.50650000000000E+0003	 2.42137203636919E-0001	
 1.50850000000000E+0003	 2.50973318133284E-0001	
 1.51050000000000E+0003	 2.60967432629650E-0001	
 1.51250000000000E+0003	 2.69882047126016E-0001	
 1.51450000000000E+0003	 2.77006661622381E-0001	
 1.51650000000000E+0003	 2.83103776118747E-0001	
 1.51850000000000E+0003	 2.87144390615112E-0001	
 1.52050000000000E+0003	 2.90178505111478E-0001	
 1.52250000000000E+0003	 2.95625119607843E-0001	
 1.52450000000000E+0003	 3.02441234104209E-0001	
 1.52650000000000E+0003	 3.09549848600574E-0001	
 1.52850000000000E+0003	 3.16071463096940E-0001	
 1.53050000000000E+0003	 3.21171577593305E-0001	
 1.53250000000000E+0003	 3.25978692089671E-0001	
 1.53450000000000E+0003	 3.31107306586036E-0001	
 1.53650000000000E+0003	 3.33256921082402E-0001	
 1.53850000000000E+0003	 3.33538035578767E-0001	
 1.54050000000000E+0003	 3.35294150075133E-0001	
 1.54250000000000E+0003	 3.40560764571498E-0001	
 1.54450000000000E+0003	 3.45560879067864E-0001	
 1.54650000000000E+0003	 3.47984993564229E-0001	
 1.54850000000000E+0003	 3.47396108060595E-0001	
 1.55050000000000E+0003	 3.44479722556960E-0001	
 1.55250000000000E+0003	 3.39233337053326E-0001	
 1.55450000000000E+0003	 3.32482951549692E-0001	
 1.55650000000000E+0003	 3.24276066046057E-0001	
 1.55850000000000E+0003	 3.15630680542423E-0001	
 1.56050000000000E+0003	 3.08126795038788E-0001	
 1.56250000000000E+0003	 3.04913909535154E-0001	
 1.56450000000000E+0003	 3.01942024031519E-0001	
 1.56650000000000E+0003	 2.96734138527885E-0001	
 1.56850000000000E+0003	 2.91441753024250E-0001	
 1.57050000000000E+0003	 2.86565367520616E-0001	
 1.57250000000000E+0003	 2.82053982016981E-0001	
 1.57450000000000E+0003	 2.76566096513347E-0001	
 1.57650000000000E+0003	 2.71388211009712E-0001	
 1.57850000000000E+0003	 2.69886825506078E-0001	
 1.58050000000000E+0003	 2.69744440002443E-0001	
 1.58250000000000E+0003	 2.68398554498809E-0001	
 1.58450000000000E+0003	 2.66918168995174E-0001	
 1.58650000000000E+0003	 2.66010283491540E-0001	
 1.58850000000000E+0003	 2.65820397987905E-0001	
 1.59050000000000E+0003	 2.66311512484271E-0001	
 1.59250000000000E+0003	 2.67511626980636E-0001	
 1.59450000000000E+0003	 2.69263741477002E-0001	
 1.59650000000000E+0003	 2.71658855973368E-0001	
 1.59850000000000E+0003	 2.74495470469733E-0001	
 1.60050000000000E+0003	 2.77618584966099E-0001	
 1.60250000000000E+0003	 2.81164699462464E-0001	
 1.60450000000000E+0003	 2.85452813958830E-0001	
 1.60650000000000E+0003	 2.90264928455195E-0001	
 1.60850000000000E+0003	 2.95943042951561E-0001	
 1.61050000000000E+0003	 3.02742157447926E-0001	
 1.61250000000000E+0003	 3.09921271944292E-0001	
 1.61450000000000E+0003	 3.15643386440657E-0001	
 1.61650000000000E+0003	 3.23251500937023E-0001	
 1.61850000000000E+0003	 3.34761615433388E-0001	
 1.62050000000000E+0003	 3.45738729929754E-0001	
 1.62250000000000E+0003	 3.56962844426119E-0001	
 1.62450000000000E+0003	 3.69433958922485E-0001	
 1.62650000000000E+0003	 3.81552573418850E-0001	
 1.62850000000000E+0003	 3.94695687915216E-0001	
 1.63050000000000E+0003	 4.07414302411581E-0001	
 1.63250000000000E+0003	 4.17576416907947E-0001	
 1.63450000000000E+0003	 4.26996031404313E-0001	
 1.63650000000000E+0003	 4.37490645900678E-0001	
 1.63850000000000E+0003	 4.46867760397044E-0001	
 1.64050000000000E+0003	 4.54393874893409E-0001	
 1.64250000000000E+0003	 4.59536989389775E-0001	
 1.64450000000000E+0003	 4.62349103886140E-0001	
 1.64650000000000E+0003	 4.66076218382506E-0001	
 1.64850000000000E+0003	 4.70567832878871E-0001	
 1.65050000000000E+0003	 4.71616947375237E-0001	
 1.65250000000000E+0003	 4.73174561871602E-0001	
 1.65450000000000E+0003	 4.78468676367968E-0001	
 1.65650000000000E+0003	 4.82342790864333E-0001	
 1.65850000000000E+0003	 4.82939905360699E-0001	
 1.66050000000000E+0003	 4.79623019857064E-0001	
 1.66250000000000E+0003	 4.74290634353430E-0001	
 1.66450000000000E+0003	 4.67748248849795E-0001	
 1.66650000000000E+0003	 4.61151863346161E-0001	
 1.66850000000000E+0003	 4.54123977842526E-0001	
 1.67050000000000E+0003	 4.46268592338892E-0001	
 1.67250000000000E+0003	 4.39171206835257E-0001	
 1.67450000000000E+0003	 4.33501821331623E-0001	
 1.67650000000000E+0003	 4.26844935827989E-0001	
 1.67850000000000E+0003	 4.19775550324354E-0001	
 1.68050000000000E+0003	 4.12831164820720E-0001	
 1.68250000000000E+0003	 4.04610279317085E-0001	
 1.68450000000000E+0003	 3.95216893813451E-0001	
 1.68650000000000E+0003	 3.88426008309816E-0001	
 1.68850000000000E+0003	 3.84685122806182E-0001	
 1.69050000000000E+0003	 3.78984737302547E-0001	
 1.69250000000000E+0003	 3.71420351798913E-0001	
 1.69450000000000E+0003	 3.62855966295278E-0001	
 1.69650000000000E+0003	 3.53486080791644E-0001	
 1.69850000000000E+0003	 3.46872695288009E-0001	
 1.70050000000000E+0003	 3.45321309784375E-0001	
 1.70250000000000E+0003	 3.41542424280740E-0001	
 1.70450000000000E+0003	 3.39305538777106E-0001	
 1.70650000000000E+0003	 3.38638153273471E-0001	
 1.70850000000000E+0003	 3.37807267769837E-0001	
 1.71050000000000E+0003	 3.36859382266202E-0001	
 1.71250000000000E+0003	 3.34447996762568E-0001	
 1.71450000000000E+0003	 3.28928111258933E-0001	
 1.71650000000000E+0003	 3.18983225755299E-0001	
 1.71850000000000E+0003	 3.07612840251665E-0001	
 1.72050000000000E+0003	 2.96704954748030E-0001	
 1.72250000000000E+0003	 2.85746069244396E-0001	
 1.72450000000000E+0003	 2.75002183740761E-0001	
 1.72650000000000E+0003	 2.66223798237127E-0001	
 1.72850000000000E+0003	 2.59632912733492E-0001	
 1.73050000000000E+0003	 2.53582527229858E-0001	
 1.73250000000000E+0003	 2.47818141726223E-0001	
 1.73450000000000E+0003	 2.45518256222589E-0001	
 1.73650000000000E+0003	 2.44440370718954E-0001	
 1.73850000000000E+0003	 2.44360985215320E-0001	
 1.74050000000000E+0003	 2.44583599711685E-0001	
 1.74250000000000E+0003	 2.44107714208051E-0001	
 1.74450000000000E+0003	 2.43684828704416E-0001	
 1.74650000000000E+0003	 2.42555443200782E-0001	
 1.74850000000000E+0003	 2.40542057697147E-0001	
 1.75050000000000E+0003	 2.37993672193513E-0001	
 1.75250000000000E+0003	 2.35046786689878E-0001	
 1.75450000000000E+0003	 2.31125901186244E-0001	
 1.75650000000000E+0003	 2.26771515682609E-0001	
 1.75850000000000E+0003	 2.20879130178975E-0001	
 1.76050000000000E+0003	 2.15224744675341E-0001	
 1.76250000000000E+0003	 2.10090359171706E-0001	
 1.76450000000000E+0003	 2.05017973668072E-0001	
 1.76650000000000E+0003	 2.00761088164437E-0001	
 1.76850000000000E+0003	 1.96383202660803E-0001	
 1.77050000000000E+0003	 1.91057317157168E-0001	
 1.77250000000000E+0003	 1.86737431653534E-0001	
 1.77450000000000E+0003	 1.84378546149899E-0001	
 1.77650000000000E+0003	 1.83262660646265E-0001	
 1.77850000000000E+0003	 1.81588275142630E-0001	
 1.78050000000000E+0003	 1.79602889638996E-0001	
 1.78250000000000E+0003	 1.77692504135361E-0001	
 1.78450000000000E+0003	 1.76446118631727E-0001	
 1.78650000000000E+0003	 1.75055233128092E-0001	
 1.78850000000000E+0003	 1.73176847624458E-0001	
 1.79050000000000E+0003	 1.71350962120823E-0001	
 1.79250000000000E+0003	 1.69819576617189E-0001	
 1.79450000000000E+0003	 1.68483691113554E-0001	
 1.79650000000000E+0003	 1.67576805609920E-0001	
 1.79850000000000E+0003	 1.66790920106286E-0001	
 1.80050000000000E+0003	 1.65922034602651E-0001	
 1.80250000000000E+0003	 1.64993649099017E-0001	
 1.80450000000000E+0003	 1.64062263595382E-0001	
 1.80650000000000E+0003	 1.63146378091748E-0001	
 1.80850000000000E+0003	 1.62132492588113E-0001	
 1.81050000000000E+0003	 1.61123107084479E-0001	
 1.81250000000000E+0003	 1.60353221580844E-0001	
 1.81450000000000E+0003	 1.59731336077210E-0001	
 1.81650000000000E+0003	 1.59246450573575E-0001	
 1.81850000000000E+0003	 1.58533565069941E-0001	
 1.82050000000000E+0003	 1.57699679566306E-0001	
 1.82250000000000E+0003	 1.56756294062672E-0001	
 1.82450000000000E+0003	 1.56190908559037E-0001	
 1.82650000000000E+0003	 1.55203023055403E-0001	
 1.82850000000000E+0003	 1.53931637551768E-0001	
 1.83050000000000E+0003	 1.53654752048134E-0001	
 1.83250000000000E+0003	 1.53419366544499E-0001	
 1.83450000000000E+0003	 1.53168981040865E-0001	
 1.83650000000000E+0003	 1.52721095537230E-0001	
 1.83850000000000E+0003	 1.52229210033596E-0001	
 1.84050000000000E+0003	 1.51488324529962E-0001	
 1.84250000000000E+0003	 1.50535439026327E-0001	
 1.84450000000000E+0003	 1.50275553522693E-0001	
 1.84650000000000E+0003	 1.49724168019058E-0001	
 1.84850000000000E+0003	 1.49570782515424E-0001	
 1.85050000000000E+0003	 1.49574397011789E-0001	
 1.85250000000000E+0003	 1.49282511508155E-0001	
 1.85450000000000E+0003	 1.48933126004520E-0001	
 1.85650000000000E+0003	 1.48527740500886E-0001	
 1.85850000000000E+0003	 1.48137854997251E-0001	
 1.86050000000000E+0003	 1.47799469493617E-0001	
 1.86250000000000E+0003	 1.47479583989982E-0001	
 1.86450000000000E+0003	 1.46906198486348E-0001	
 1.86650000000000E+0003	 1.45976312982713E-0001	
 1.86850000000000E+0003	 1.45486427479079E-0001	
 1.87050000000000E+0003	 1.45643541975444E-0001	
 1.87250000000000E+0003	 1.45661156471810E-0001	
 1.87450000000000E+0003	 1.45706270968175E-0001	
 1.87650000000000E+0003	 1.45512385464541E-0001	
 1.87850000000000E+0003	 1.45267499960906E-0001	
 1.88050000000000E+0003	 1.45013114457272E-0001	
 1.88250000000000E+0003	 1.44755228953638E-0001	
 1.88450000000000E+0003	 1.44473343450003E-0001	
 1.88650000000000E+0003	 1.44116957946369E-0001	
 1.88850000000000E+0003	 1.43844072442734E-0001	
 1.89050000000000E+0003	 1.43721186939100E-0001	
 1.89250000000000E+0003	 1.43429801435465E-0001	
 1.89450000000000E+0003	 1.43309915931831E-0001	
 1.89650000000000E+0003	 1.43169530428196E-0001	
 1.89850000000000E+0003	 1.43107644924562E-0001	
 1.90050000000000E+0003	 1.43016759420927E-0001	
 1.90250000000000E+0003	 1.42854373917293E-0001	
 1.90450000000000E+0003	 1.42620988413658E-0001	
 1.90650000000000E+0003	 1.42348602910024E-0001	
 1.90850000000000E+0003	 1.42027217406389E-0001	
 1.91050000000000E+0003	 1.41894831902755E-0001	
 1.91250000000000E+0003	 1.41903446399120E-0001	
 1.91450000000000E+0003	 1.41791060895486E-0001	
 1.91650000000000E+0003	 1.41584675391851E-0001	
 1.91850000000000E+0003	 1.41634289888217E-0001	
 1.92050000000000E+0003	 1.41164404384582E-0001	
 1.92250000000000E+0003	 1.40940018880948E-0001	
 1.92450000000000E+0003	 1.40958633377314E-0001	
 1.92650000000000E+0003	 1.41046747873679E-0001	
 1.92850000000000E+0003	 1.41088862370045E-0001	
 1.93050000000000E+0003	 1.41002976866410E-0001	
 1.93250000000000E+0003	 1.40880591362776E-0001	
 1.93450000000000E+0003	 1.40801705859141E-0001	
 1.93650000000000E+0003	 1.40732320355507E-0001	
 1.93850000000000E+0003	 1.40613934851872E-0001	
 1.94050000000000E+0003	 1.40364049348238E-0001	
 1.94250000000000E+0003	 1.40252663844603E-0001	
 1.94450000000000E+0003	 1.40084278340969E-0001	
 1.94650000000000E+0003	 1.40101892837334E-0001	
 1.94850000000000E+0003	 1.40253507333700E-0001	
 1.95050000000000E+0003	 1.40301621830065E-0001	
 1.95250000000000E+0003	 1.40257236326431E-0001	
 1.95450000000000E+0003	 1.40192350822796E-0001	
 1.95650000000000E+0003	 1.40147465319162E-0001	
 1.95850000000000E+0003	 1.40141579815527E-0001	
 1.96050000000000E+0003	 1.40124194311893E-0001	
 1.96250000000000E+0003	 1.40070808808259E-0001	
 1.96450000000000E+0003	 1.39937423304624E-0001	
 1.96650000000000E+0003	 1.39811037800990E-0001	
 1.96850000000000E+0003	 1.39794652297355E-0001	
 1.97050000000000E+0003	 1.39871766793721E-0001	
 1.97250000000000E+0003	 1.39955381290086E-0001	
 1.97450000000000E+0003	 1.39948995786452E-0001	
 1.97650000000000E+0003	 1.39926110282817E-0001	
 1.97850000000000E+0003	 1.39908724779183E-0001	
 1.98050000000000E+0003	 1.39902839275548E-0001	
 1.98250000000000E+0003	 1.39893953771914E-0001	
 1.98450000000000E+0003	 1.39880568268279E-0001	
 1.98650000000000E+0003	 1.39829682764645E-0001	
 1.98850000000000E+0003	 1.39739797261010E-0001	
 1.99050000000000E+0003	 1.39662911757376E-0001	
 1.99250000000000E+0003	 1.39722026253741E-0001	
 1.99450000000000E+0003	 1.39750140750107E-0001	
 1.99650000000000E+0003	 1.39862255246472E-0001	
 1.99850000000000E+0003	 1.39932369742838E-0001	
 2.00050000000000E+0003	 1.39956484239203E-0001	
 2.00250000000000E+0003	 1.39989098735569E-0001	
 2.00450000000000E+0003	 1.40022713231935E-0001	
 2.00650000000000E+0003	 1.40041827728300E-0001	
 2.00850000000000E+0003	 1.40073942224666E-0001	
 2.01050000000000E+0003	 1.40118056721031E-0001	
 2.01250000000000E+0003	 1.40163671217397E-0001	
 2.01450000000000E+0003	 1.40149285713762E-0001	
 2.01650000000000E+0003	 1.40141900210128E-0001	
 2.01850000000000E+0003	 1.40177014706493E-0001	
 2.02050000000000E+0003	 1.40283629202859E-0001	
 2.02250000000000E+0003	 1.40419743699224E-0001	
 2.02450000000000E+0003	 1.40498858195590E-0001	
 2.02650000000000E+0003	 1.40561972691955E-0001	
 2.02850000000000E+0003	 1.40639087188321E-0001	
 2.03050000000000E+0003	 1.40715201684686E-0001	
 2.03250000000000E+0003	 1.40777316181052E-0001	
 2.03450000000000E+0003	 1.40833430677417E-0001	
 2.03650000000000E+0003	 1.40889545173783E-0001	
 2.03850000000000E+0003	 1.40928659670148E-0001	
 2.04050000000000E+0003	 1.40957774166514E-0001	
 2.04250000000000E+0003	 1.41001388662879E-0001	
 2.04450000000000E+0003	 1.41076003159245E-0001	
 2.04650000000000E+0003	 1.41170617655611E-0001	
 2.04850000000000E+0003	 1.41241232151976E-0001	
 2.05050000000000E+0003	 1.41300346648342E-0001	
 2.05250000000000E+0003	 1.41352961144707E-0001	
 2.05450000000000E+0003	 1.41405575641073E-0001	
 2.05650000000000E+0003	 1.41454190137438E-0001	
 2.05850000000000E+0003	 1.41492804633804E-0001	
 2.06050000000000E+0003	 1.41523419130169E-0001	
 2.06250000000000E+0003	 1.41530533626535E-0001	
 2.06450000000000E+0003	 1.41544148122900E-0001	
 2.06650000000000E+0003	 1.41582262619266E-0001	
 2.06850000000000E+0003	 1.41645377115631E-0001	
 2.07050000000000E+0003	 1.41713491611997E-0001	
 2.07250000000000E+0003	 1.41742106108362E-0001	
 2.07450000000000E+0003	 1.41771220604728E-0001	
 2.07650000000000E+0003	 1.41804335101093E-0001	
 2.07850000000000E+0003	 1.41843949597459E-0001	
 2.08050000000000E+0003	 1.41877064093824E-0001	
 2.08250000000000E+0003	 1.41912178590190E-0001	
 2.08450000000000E+0003	 1.41940793086555E-0001	
 2.08650000000000E+0003	 1.41968407582921E-0001	
 2.08850000000000E+0003	 1.41991522079287E-0001	
 2.09050000000000E+0003	 1.42023636575652E-0001	
 2.09250000000000E+0003	 1.42064251072018E-0001	
 2.09450000000000E+0003	 1.42112865568383E-0001	
 2.09650000000000E+0003	 1.42152480064749E-0001	
 2.09850000000000E+0003	 1.42182094561114E-0001	
 2.10050000000000E+0003	 1.42213709057480E-0001	
 2.10250000000000E+0003	 1.42244323553845E-0001	
 2.10450000000000E+0003	 1.42271938050211E-0001	
 2.10650000000000E+0003	 1.42291052546576E-0001	
 2.10850000000000E+0003	 1.42312167042942E-0001	
 2.11050000000000E+0003	 1.42329781539307E-0001	
 2.11250000000000E+0003	 1.42342896035673E-0001	
 2.11450000000000E+0003	 1.42356510532038E-0001	
 2.11650000000000E+0003	 1.42374625028404E-0001	
 2.11850000000000E+0003	 1.42390239524769E-0001	
 2.12050000000000E+0003	 1.42404854021135E-0001	
 2.12250000000000E+0003	 1.42406968517500E-0001	
 2.12450000000000E+0003	 1.42407583013866E-0001	
 2.12650000000000E+0003	 1.42407697510232E-0001	
 2.12850000000000E+0003	 1.42409312006597E-0001	
 2.13050000000000E+0003	 1.42408426502963E-0001	
 2.13250000000000E+0003	 1.42404540999328E-0001	
 2.13450000000000E+0003	 1.42396155495694E-0001	
 2.13650000000000E+0003	 1.42384769992059E-0001	
 2.13850000000000E+0003	 1.42372384488425E-0001	
 2.14050000000000E+0003	 1.42363998984790E-0001	
 2.14250000000000E+0003	 1.42351113481156E-0001	
 2.14450000000000E+0003	 1.42328227977521E-0001	
 2.14650000000000E+0003	 1.42299342473887E-0001	
 2.14850000000000E+0003	 1.42264456970252E-0001	
 2.15050000000000E+0003	 1.42224571466618E-0001	
 2.15250000000000E+0003	 1.42177185962983E-0001	
 2.15450000000000E+0003	 1.42125300459349E-0001	
 2.15650000000000E+0003	 1.42069914955714E-0001	
 2.15850000000000E+0003	 1.42012029452080E-0001	
 2.16050000000000E+0003	 1.41950143948445E-0001	
 2.16250000000000E+0003	 1.41890758444811E-0001	
 2.16450000000000E+0003	 1.41832372941176E-0001	
 2.16650000000000E+0003	 1.41779987437542E-0001	
 2.16850000000000E+0003	 1.41731101933908E-0001	
 2.17050000000000E+0003	 1.41676216430273E-0001	
 2.17250000000000E+0003	 1.41602330926639E-0001	
 2.17450000000000E+0003	 1.41533945423004E-0001	
 2.17650000000000E+0003	 1.41469059919370E-0001	
 2.17850000000000E+0003	 1.41406674415735E-0001	
 2.18050000000000E+0003	 1.41342788912101E-0001	
 2.18250000000000E+0003	 1.41283903408466E-0001	
 2.18450000000000E+0003	 1.41226517904832E-0001	
 2.18650000000000E+0003	 1.41172632401197E-0001	
 2.18850000000000E+0003	 1.41114746897563E-0001	
 2.19050000000000E+0003	 1.41059861393928E-0001	
 2.19250000000000E+0003	 1.41005475890294E-0001	
 2.19450000000000E+0003	 1.40952590386659E-0001	
 2.19650000000000E+0003	 1.40898204883025E-0001	
 2.19850000000000E+0003	 1.40845819379390E-0001	
 2.20050000000000E+0003	 1.40790433875756E-0001	
 2.20250000000000E+0003	 1.40743548372121E-0001	
 2.20450000000000E+0003	 1.40700662868487E-0001	
 2.20650000000000E+0003	 1.40659777364852E-0001	
 2.20850000000000E+0003	 1.40617391861218E-0001	
 2.21050000000000E+0003	 1.40576006357584E-0001	
 2.21250000000000E+0003	 1.40535620853949E-0001	
 2.21450000000000E+0003	 1.40501735350315E-0001	
 2.21650000000000E+0003	 1.40467349846680E-0001	
 2.21850000000000E+0003	 1.40433464343046E-0001	
 2.22050000000000E+0003	 1.40399078839411E-0001	
 2.22250000000000E+0003	 1.40368693335777E-0001	
 2.22450000000000E+0003	 1.40338807832142E-0001	
 2.22650000000000E+0003	 1.40310422328508E-0001	
 2.22850000000000E+0003	 1.40284036824873E-0001	
 2.23050000000000E+0003	 1.40263651321239E-0001	
 2.23250000000000E+0003	 1.40243765817604E-0001	
 2.23450000000000E+0003	 1.40220880313970E-0001	
 2.23650000000000E+0003	 1.40200494810335E-0001	
 2.23850000000000E+0003	 1.40184109306701E-0001	
 2.24050000000000E+0003	 1.40170223803066E-0001	
 2.24250000000000E+0003	 1.40159338299432E-0001	
 2.24450000000000E+0003	 1.40148952795797E-0001	
 2.24650000000000E+0003	 1.40138567292163E-0001	
 2.24850000000000E+0003	 1.40136181788528E-0001	
 2.25050000000000E+0003	 1.40137296284894E-0001	
 2.25250000000000E+0003	 1.40138910781260E-0001	
 2.25450000000000E+0003	 1.40139525277625E-0001	
 2.25650000000000E+0003	 1.40136139773991E-0001	
 2.25850000000000E+0003	 1.40134754270356E-0001	
 2.26050000000000E+0003	 1.40140368766722E-0001	
 2.26250000000000E+0003	 1.40145983263087E-0001	
 2.26450000000000E+0003	 1.40156097759453E-0001	
 2.26650000000000E+0003	 1.40167712255818E-0001	
 2.26850000000000E+0003	 1.40180326752184E-0001	
 2.27050000000000E+0003	 1.40193941248549E-0001	
 2.27250000000000E+0003	 1.40214055744915E-0001	
 2.27450000000000E+0003	 1.40233670241280E-0001	
 2.27650000000000E+0003	 1.40254284737646E-0001	
 2.27850000000000E+0003	 1.40278899234011E-0001	
 2.28050000000000E+0003	 1.40307013730377E-0001	
 2.28250000000000E+0003	 1.40315628226742E-0001	
 2.28450000000000E+0003	 1.40304242723108E-0001	
 2.28650000000000E+0003	 1.40267357219473E-0001	
 2.28850000000000E+0003	 1.40207971715839E-0001	
 2.29050000000000E+0003	 1.40136586212205E-0001	
 2.29250000000000E+0003	 1.40047200708570E-0001	
 2.29450000000000E+0003	 1.39944815204936E-0001	
 2.29650000000000E+0003	 1.39862929701301E-0001	
 2.29850000000000E+0003	 1.39811544197667E-0001	
 2.30050000000000E+0003	 1.39809658694032E-0001	
 2.30250000000000E+0003	 1.39875773190398E-0001	
 2.30450000000000E+0003	 1.39931387686763E-0001	
 2.30650000000000E+0003	 1.39915002183129E-0001	
 2.30850000000000E+0003	 1.39940616679494E-0001	
 2.31050000000000E+0003	 1.40116231175860E-0001	
 2.31250000000000E+0003	 1.40475845672225E-0001	
 2.31450000000000E+0003	 1.40794960168591E-0001	
 2.31650000000000E+0003	 1.40855574664956E-0001	
 2.31850000000000E+0003	 1.40772189161322E-0001	
 2.32050000000000E+0003	 1.40546303657687E-0001	
 2.32250000000000E+0003	 1.40263418154053E-0001	
 2.32450000000000E+0003	 1.39929032650418E-0001	
 2.32650000000000E+0003	 1.39527647146784E-0001	
 2.32850000000000E+0003	 1.39380261643149E-0001	
 2.33050000000000E+0003	 1.39303376139515E-0001	
 2.33250000000000E+0003	 1.39171990635881E-0001	
 2.33450000000000E+0003	 1.39155105132246E-0001	
 2.33650000000000E+0003	 1.39316219628612E-0001	
 2.33850000000000E+0003	 1.39584334124977E-0001	
 2.34050000000000E+0003	 1.39911448621343E-0001	
 2.34250000000000E+0003	 1.40451063117708E-0001	
 2.34450000000000E+0003	 1.41497177614074E-0001	
 2.34650000000000E+0003	 1.41388292110439E-0001	
 2.34850000000000E+0003	 1.39671906606805E-0001	
 2.35050000000000E+0003	 1.39900521103170E-0001	
 2.35250000000000E+0003	 1.41229135599536E-0001	
 2.35450000000000E+0003	 1.40979750095901E-0001	
 2.35650000000000E+0003	 1.39927864592267E-0001	
 2.35850000000000E+0003	 1.39220479088632E-0001	
 2.36050000000000E+0003	 1.39140593584998E-0001	
 2.36250000000000E+0003	 1.39440708081363E-0001	
 2.36450000000000E+0003	 1.40074322577729E-0001	
 2.36650000000000E+0003	 1.41027437074094E-0001	
 2.36850000000000E+0003	 1.42214051570460E-0001	
 2.37050000000000E+0003	 1.43421666066825E-0001	
 2.37250000000000E+0003	 1.44428780563191E-0001	
 2.37450000000000E+0003	 1.44919895059557E-0001	
 2.37650000000000E+0003	 1.44731009555922E-0001	
 2.37850000000000E+0003	 1.44110624052288E-0001	
 2.38050000000000E+0003	 1.43612738548653E-0001	
 2.38250000000000E+0003	 1.43555853045019E-0001	
 2.38450000000000E+0003	 1.43867467541384E-0001	
 2.38650000000000E+0003	 1.44280082037750E-0001	
 2.38850000000000E+0003	 1.44624696534115E-0001	
 2.39050000000000E+0003	 1.44868811030481E-0001	
 2.39250000000000E+0003	 1.45056925526846E-0001	
 2.39450000000000E+0003	 1.45214540023212E-0001	
 2.39650000000000E+0003	 1.45365154519577E-0001	
 2.39850000000000E+0003	 1.45514269015943E-0001	
 2.40050000000000E+0003	 1.45671383512308E-0001	
 2.40250000000000E+0003	 1.45829998008674E-0001	
 2.40450000000000E+0003	 1.45993612505039E-0001	
 2.40650000000000E+0003	 1.46157727001405E-0001	
 2.40850000000000E+0003	 1.46332341497770E-0001	
 2.41050000000000E+0003	 1.46505955994136E-0001	
 2.41250000000000E+0003	 1.46685070490501E-0001	
 2.41450000000000E+0003	 1.46862684986867E-0001	
 2.41650000000000E+0003	 1.47047299483233E-0001	
 2.41850000000000E+0003	 1.47230413979598E-0001	
 2.42050000000000E+0003	 1.47422028475964E-0001	
 2.42250000000000E+0003	 1.47618142972329E-0001	
 2.42450000000000E+0003	 1.47823757468695E-0001	
 2.42650000000000E+0003	 1.48031871965060E-0001	
 2.42850000000000E+0003	 1.48244486461426E-0001	
 2.43050000000000E+0003	 1.48452600957791E-0001	
 2.43250000000000E+0003	 1.48667715454157E-0001	
 2.43450000000000E+0003	 1.48886329950522E-0001	
 2.43650000000000E+0003	 1.49114944446888E-0001	
 2.43850000000000E+0003	 1.49341058943253E-0001	
 2.44050000000000E+0003	 1.49569173439619E-0001	
 2.44250000000000E+0003	 1.49792787935984E-0001	
 2.44450000000000E+0003	 1.50017902432350E-0001	
 2.44650000000000E+0003	 1.50234516928715E-0001	
 2.44850000000000E+0003	 1.50455131425081E-0001	
 2.45050000000000E+0003	 1.50676245921446E-0001	
 2.45250000000000E+0003	 1.50897860417812E-0001	
 2.45450000000000E+0003	 1.51118474914178E-0001	
 2.45650000000000E+0003	 1.51348089410543E-0001	
 2.45850000000000E+0003	 1.51580203906909E-0001	
 2.46050000000000E+0003	 1.51816818403274E-0001	
 2.46250000000000E+0003	 1.52057432899640E-0001	
 2.46450000000000E+0003	 1.52304547396005E-0001	
 2.46650000000000E+0003	 1.52554161892371E-0001	
 2.46850000000000E+0003	 1.52811776388736E-0001	
 2.47050000000000E+0003	 1.53072390885102E-0001	
 2.47250000000000E+0003	 1.53336005381467E-0001	
 2.47450000000000E+0003	 1.53600619877833E-0001	
 2.47650000000000E+0003	 1.53869234374198E-0001	
 2.47850000000000E+0003	 1.54140348870564E-0001	
 2.48050000000000E+0003	 1.54411463366929E-0001	
 2.48250000000000E+0003	 1.54686077863295E-0001	
 2.48450000000000E+0003	 1.54962692359660E-0001	
 2.48650000000000E+0003	 1.55237306856026E-0001	
 2.48850000000000E+0003	 1.55512421352391E-0001	
 2.49050000000000E+0003	 1.55794535848757E-0001	
 2.49250000000000E+0003	 1.56080650345122E-0001	
 2.49450000000000E+0003	 1.56365764841488E-0001	
 2.49650000000000E+0003	 1.56652879337854E-0001	
 2.49850000000000E+0003	 1.56944993834219E-0001	
 2.50050000000000E+0003	 1.57234608330585E-0001	
 2.50250000000000E+0003	 1.57523722826950E-0001	
 2.50450000000000E+0003	 1.57815337323316E-0001	
 2.50650000000000E+0003	 1.58111451819681E-0001	
 2.50850000000000E+0003	 1.58405066316047E-0001	
 2.51050000000000E+0003	 1.58691680812412E-0001	
 2.51250000000000E+0003	 1.58979795308778E-0001	
 2.51450000000000E+0003	 1.59267909805143E-0001	
 2.51650000000000E+0003	 1.59548024301509E-0001	
 2.51850000000000E+0003	 1.59826138797874E-0001	
 2.52050000000000E+0003	 1.60099753294240E-0001	
 2.52250000000000E+0003	 1.60366867790605E-0001	
 2.52450000000000E+0003	 1.60633482286971E-0001	
 2.52650000000000E+0003	 1.60900596783336E-0001	
 2.52850000000000E+0003	 1.61162711279702E-0001	
 2.53050000000000E+0003	 1.61420825776067E-0001	
 2.53250000000000E+0003	 1.61674440272433E-0001	
 2.53450000000000E+0003	 1.61920054768798E-0001	
 2.53650000000000E+0003	 1.62162669265164E-0001	
 2.53850000000000E+0003	 1.62400283761530E-0001	
 2.54050000000000E+0003	 1.62633898257895E-0001	
 2.54250000000000E+0003	 1.62856512754261E-0001	
 2.54450000000000E+0003	 1.63072627250626E-0001	
 2.54650000000000E+0003	 1.63286741746992E-0001	
 2.54850000000000E+0003	 1.63495356243357E-0001	
 2.55050000000000E+0003	 1.63697970739723E-0001	
 2.55250000000000E+0003	 1.63901585236088E-0001	
 2.55450000000000E+0003	 1.64102199732454E-0001	
 2.55650000000000E+0003	 1.64301314228819E-0001	
 2.55850000000000E+0003	 1.64492428725185E-0001	
 2.56050000000000E+0003	 1.64680043221550E-0001	
 2.56250000000000E+0003	 1.64863157717916E-0001	
 2.56450000000000E+0003	 1.65047272214281E-0001	
 2.56650000000000E+0003	 1.65233386710647E-0001	
 2.56850000000000E+0003	 1.65427501207012E-0001	
 2.57050000000000E+0003	 1.65624615703378E-0001	
 2.57250000000000E+0003	 1.65829730199743E-0001	
 2.57450000000000E+0003	 1.66041344696109E-0001	
 2.57650000000000E+0003	 1.66265459192474E-0001	
 2.57850000000000E+0003	 1.66496573688840E-0001	
 2.58050000000000E+0003	 1.66732688185206E-0001	
 2.58250000000000E+0003	 1.66974302681571E-0001	
 2.58450000000000E+0003	 1.67224917177937E-0001	
 2.58650000000000E+0003	 1.67484031674302E-0001	
 2.58850000000000E+0003	 1.67759146170668E-0001	
 2.59050000000000E+0003	 1.68043760667033E-0001	
 2.59250000000000E+0003	 1.68336375163399E-0001	
 2.59450000000000E+0003	 1.68638989659764E-0001	
 2.59650000000000E+0003	 1.68956104156130E-0001	
 2.59850000000000E+0003	 1.69275218652495E-0001	
 2.60050000000000E+0003	 1.69602333148861E-0001	
 2.60250000000000E+0003	 1.69936447645226E-0001	
 2.60450000000000E+0003	 1.70272562141592E-0001	
 2.60650000000000E+0003	 1.70608676637957E-0001	
 2.60850000000000E+0003	 1.70947291134323E-0001	
 2.61050000000000E+0003	 1.71286905630688E-0001	
 2.61250000000000E+0003	 1.71626520127054E-0001	
 2.61450000000000E+0003	 1.71967634623419E-0001	
 2.61650000000000E+0003	 1.72309749119785E-0001	
 2.61850000000000E+0003	 1.72646363616151E-0001	
 2.62050000000000E+0003	 1.72988478112516E-0001	
 2.62250000000000E+0003	 1.73333092608882E-0001	
 2.62450000000000E+0003	 1.73676707105247E-0001	
 2.62650000000000E+0003	 1.74018321601613E-0001	
 2.62850000000000E+0003	 1.74357436097978E-0001	
 2.63050000000000E+0003	 1.74698050594344E-0001	
 2.63250000000000E+0003	 1.75038665090709E-0001	
 2.63450000000000E+0003	 1.75380279587075E-0001	
 2.63650000000000E+0003	 1.75721394083440E-0001	
 2.63850000000000E+0003	 1.76064008579806E-0001	
 2.64050000000000E+0003	 1.76402623076171E-0001	
 2.64250000000000E+0003	 1.76742737572537E-0001	
 2.64450000000000E+0003	 1.77081352068902E-0001	
 2.64650000000000E+0003	 1.77416466565268E-0001	
 2.64850000000000E+0003	 1.77754581061633E-0001	
 2.65050000000000E+0003	 1.78096695557999E-0001	
 2.65250000000000E+0003	 1.78437810054364E-0001	
 2.65450000000000E+0003	 1.78779424550730E-0001	
 2.65650000000000E+0003	 1.79123039047095E-0001	
 2.65850000000000E+0003	 1.79470653543461E-0001	
 2.66050000000000E+0003	 1.79819268039827E-0001	
 2.66250000000000E+0003	 1.80169882536192E-0001	
 2.66450000000000E+0003	 1.80524497032558E-0001	
 2.66650000000000E+0003	 1.80881611528923E-0001	
 2.66850000000000E+0003	 1.81242226025289E-0001	
 2.67050000000000E+0003	 1.81608840521654E-0001	
 2.67250000000000E+0003	 1.81982455018020E-0001	
 2.67450000000000E+0003	 1.82356569514385E-0001	
 2.67650000000000E+0003	 1.82731184010751E-0001	
 2.67850000000000E+0003	 1.83113298507116E-0001	
 2.68050000000000E+0003	 1.83491413003482E-0001	
 2.68250000000000E+0003	 1.83860027499847E-0001	
 2.68450000000000E+0003	 1.84226141996213E-0001	
 2.68650000000000E+0003	 1.84602256492578E-0001	
 2.68850000000000E+0003	 1.84980870988944E-0001	
 2.69050000000000E+0003	 1.85357485485309E-0001	
 2.69250000000000E+0003	 1.85735099981675E-0001	
 2.69450000000000E+0003	 1.86120714478040E-0001	
 2.69650000000000E+0003	 1.86511828974406E-0001	
 2.69850000000000E+0003	 1.86910443470771E-0001	
 2.70050000000000E+0003	 1.87315057967137E-0001	
 2.70250000000000E+0003	 1.87728672463503E-0001	
 2.70450000000000E+0003	 1.88156286959868E-0001	
 2.70650000000000E+0003	 1.88599401456234E-0001	
 2.70850000000000E+0003	 1.89051515952599E-0001	
 2.71050000000000E+0003	 1.89517630448965E-0001	
 2.71250000000000E+0003	 1.89997744945330E-0001	
 2.71450000000000E+0003	 1.90492859441696E-0001	
 2.71650000000000E+0003	 1.90994973938061E-0001	
 2.71850000000000E+0003	 1.91501588434427E-0001	
 2.72050000000000E+0003	 1.92019202930792E-0001	
 2.72250000000000E+0003	 1.92538817427158E-0001	
 2.72450000000000E+0003	 1.93045431923523E-0001	
 2.72650000000000E+0003	 1.93547046419889E-0001	
 2.72850000000000E+0003	 1.94033160916254E-0001	
 2.73050000000000E+0003	 1.94502775412620E-0001	
 2.73250000000000E+0003	 1.94967389908985E-0001	
 2.73450000000000E+0003	 1.95424504405351E-0001	
 2.73650000000000E+0003	 1.95874618901716E-0001	
 2.73850000000000E+0003	 1.96309733398082E-0001	
 2.74050000000000E+0003	 1.96727347894447E-0001	
 2.74250000000000E+0003	 1.97136462390813E-0001	
 2.74450000000000E+0003	 1.97541576887179E-0001	
 2.74650000000000E+0003	 1.97947191383544E-0001	
 2.74850000000000E+0003	 1.98353805879910E-0001	
 2.75050000000000E+0003	 1.98744420376275E-0001	
 2.75250000000000E+0003	 1.99129034872641E-0001	
 2.75450000000000E+0003	 1.99529149369006E-0001	
 2.75650000000000E+0003	 1.99948763865372E-0001	
 2.75850000000000E+0003	 2.00376378361737E-0001	
 2.76050000000000E+0003	 2.00812992858103E-0001	
 2.76250000000000E+0003	 2.01257107354468E-0001	
 2.76450000000000E+0003	 2.01710221850834E-0001	
 2.76650000000000E+0003	 2.02171336347199E-0001	
 2.76850000000000E+0003	 2.02645950843565E-0001	
 2.77050000000000E+0003	 2.03132065339930E-0001	
 2.77250000000000E+0003	 2.03628179836296E-0001	
 2.77450000000000E+0003	 2.04144294332661E-0001	
 2.77650000000000E+0003	 2.04659408829027E-0001	
 2.77850000000000E+0003	 2.05161023325392E-0001	
 2.78050000000000E+0003	 2.05678637821758E-0001	
 2.78250000000000E+0003	 2.06217752318124E-0001	
 2.78450000000000E+0003	 2.06767866814489E-0001	
 2.78650000000000E+0003	 2.07332481310855E-0001	
 2.78850000000000E+0003	 2.07927595807220E-0001	
 2.79050000000000E+0003	 2.08531210303586E-0001	
 2.79250000000000E+0003	 2.09125324799951E-0001	
 2.79450000000000E+0003	 2.09727939296317E-0001	
 2.79650000000000E+0003	 2.10358553792682E-0001	
 2.79850000000000E+0003	 2.11009668289048E-0001	
 2.80050000000000E+0003	 2.11656782785413E-0001	
 2.80250000000000E+0003	 2.12307397281779E-0001	
 2.80450000000000E+0003	 2.12984011778144E-0001	
 2.80650000000000E+0003	 2.13683626274510E-0001	
 2.80850000000000E+0003	 2.14406740770875E-0001	
 2.81050000000000E+0003	 2.15147855267241E-0001	
 2.81250000000000E+0003	 2.15888469763606E-0001	
 2.81450000000000E+0003	 2.16633084259972E-0001	
 2.81650000000000E+0003	 2.17403698756337E-0001	
 2.81850000000000E+0003	 2.18202313252703E-0001	
 2.82050000000000E+0003	 2.19022427749068E-0001	
 2.82250000000000E+0003	 2.19863042245434E-0001	
 2.82450000000000E+0003	 2.20732656741800E-0001	
 2.82650000000000E+0003	 2.21633271238165E-0001	
 2.82850000000000E+0003	 2.22573385734531E-0001	
 2.83050000000000E+0003	 2.23567500230896E-0001	
 2.83250000000000E+0003	 2.24636114727262E-0001	
 2.83450000000000E+0003	 2.25791729223627E-0001	
 2.83650000000000E+0003	 2.27052843719993E-0001	
 2.83850000000000E+0003	 2.28470458216358E-0001	
 2.84050000000000E+0003	 2.30068072712724E-0001	
 2.84250000000000E+0003	 2.31938187209089E-0001	
 2.84450000000000E+0003	 2.34241801705455E-0001	
 2.84650000000000E+0003	 2.37006416201820E-0001	
 2.84850000000000E+0003	 2.40084530698186E-0001	
 2.85050000000000E+0003	 2.43136645194551E-0001	
 2.85250000000000E+0003	 2.45749259690917E-0001	
 2.85450000000000E+0003	 2.47591374187282E-0001	
 2.85650000000000E+0003	 2.48657488683648E-0001	
 2.85850000000000E+0003	 2.49278103180013E-0001	
 2.86050000000000E+0003	 2.49837717676379E-0001	
 2.86250000000000E+0003	 2.50599832172744E-0001	
 2.86450000000000E+0003	 2.51740446669110E-0001	
 2.86650000000000E+0003	 2.53254561165476E-0001	
 2.86850000000000E+0003	 2.55003175661841E-0001	
 2.87050000000000E+0003	 2.56805790158207E-0001	
 2.87250000000000E+0003	 2.58442404654572E-0001	
 2.87450000000000E+0003	 2.59641019150938E-0001	
 2.87650000000000E+0003	 2.60320633647303E-0001	
 2.87850000000000E+0003	 2.60688248143669E-0001	
 2.88050000000000E+0003	 2.60946362640034E-0001	
 2.88250000000000E+0003	 2.61222977136400E-0001	
 2.88450000000000E+0003	 2.61625591632765E-0001	
 2.88650000000000E+0003	 2.62210706129131E-0001	
 2.88850000000000E+0003	 2.62981820625496E-0001	
 2.89050000000000E+0003	 2.63911435121862E-0001	
 2.89250000000000E+0003	 2.64978049618227E-0001	
 2.89450000000000E+0003	 2.66168664114593E-0001	
 2.89650000000000E+0003	 2.67431778610958E-0001	
 2.89850000000000E+0003	 2.68718893107324E-0001	
 2.90050000000000E+0003	 2.70076507603689E-0001	
 2.90250000000000E+0003	 2.71556122100055E-0001	
 2.90450000000000E+0003	 2.73181736596421E-0001	
 2.90650000000000E+0003	 2.74989351092786E-0001	
 2.90850000000000E+0003	 2.77057465589152E-0001	
 2.91050000000000E+0003	 2.79450580085517E-0001	
 2.91250000000000E+0003	 2.82194694581883E-0001	
 2.91450000000000E+0003	 2.85219809078248E-0001	
 2.91650000000000E+0003	 2.88396423574614E-0001	
 2.91850000000000E+0003	 2.91592038070979E-0001	
 2.92050000000000E+0003	 2.94598152567345E-0001	
 2.92250000000000E+0003	 2.97215267063710E-0001	
 2.92450000000000E+0003	 2.99285881560076E-0001	
 2.92650000000000E+0003	 3.00762496056441E-0001	
 2.92850000000000E+0003	 3.01716110552807E-0001	
 2.93050000000000E+0003	 3.02156725049172E-0001	
 2.93250000000000E+0003	 3.02081839545538E-0001	
 2.93450000000000E+0003	 3.01602454041903E-0001	
 2.93650000000000E+0003	 3.00760068538269E-0001	
 2.93850000000000E+0003	 2.99559683034634E-0001	
 2.94050000000000E+0003	 2.98111797531000E-0001	
 2.94250000000000E+0003	 2.96619912027365E-0001	
 2.94450000000000E+0003	 2.95224526523731E-0001	
 2.94650000000000E+0003	 2.94018141020097E-0001	
 2.94850000000000E+0003	 2.93155755516462E-0001	
 2.95050000000000E+0003	 2.92799370012828E-0001	
 2.95250000000000E+0003	 2.92947984509193E-0001	
 2.95450000000000E+0003	 2.93334599005559E-0001	
 2.95650000000000E+0003	 2.93752713501924E-0001	
 2.95850000000000E+0003	 2.94030327998290E-0001	
 2.96050000000000E+0003	 2.93964942494655E-0001	
 2.96250000000000E+0003	 2.93399556991021E-0001	
 2.96450000000000E+0003	 2.92253671487386E-0001	
 2.96650000000000E+0003	 2.90560785983752E-0001	
 2.96850000000000E+0003	 2.88442900480117E-0001	
 2.97050000000000E+0003	 2.86189514976483E-0001	
 2.97250000000000E+0003	 2.84096129472848E-0001	
 2.97450000000000E+0003	 2.82127743969214E-0001	
 2.97650000000000E+0003	 2.80196858465579E-0001	
 2.97850000000000E+0003	 2.78386472961945E-0001	
 2.98050000000000E+0003	 2.76707587458310E-0001	
 2.98250000000000E+0003	 2.75079701954676E-0001	
 2.98450000000000E+0003	 2.73541816451041E-0001	
 2.98650000000000E+0003	 2.72168430947407E-0001	
 2.98850000000000E+0003	 2.70980545443773E-0001	
 2.99050000000000E+0003	 2.69997159940138E-0001	
 2.99250000000000E+0003	 2.69210274436504E-0001	
 2.99450000000000E+0003	 2.68555888932869E-0001	
 2.99650000000000E+0003	 2.68115003429235E-0001	
 2.99850000000000E+0003	 2.67913617925600E-0001	
 3.00050000000000E+0003	 2.67871232421966E-0001	
 3.00250000000000E+0003	 2.67988846918331E-0001	
 3.00450000000000E+0003	 2.68213961414697E-0001	
 3.00650000000000E+0003	 2.68490575911062E-0001	
 3.00850000000000E+0003	 2.68841190407428E-0001	
 3.01050000000000E+0003	 2.69301304903793E-0001	
 3.01250000000000E+0003	 2.69819919400159E-0001	
 3.01450000000000E+0003	 2.70347033896524E-0001	
 3.01650000000000E+0003	 2.70932148392890E-0001	
 3.01850000000000E+0003	 2.71659762889255E-0001	
 3.02050000000000E+0003	 2.72513877385621E-0001	
 3.02250000000000E+0003	 2.73474491881986E-0001	
 3.02450000000000E+0003	 2.74564106378352E-0001	
 3.02650000000000E+0003	 2.75707220874717E-0001	
 3.02850000000000E+0003	 2.76890335371083E-0001	
 3.03050000000000E+0003	 2.78132449867449E-0001	
 3.03250000000000E+0003	 2.79405564363814E-0001	
 3.03450000000000E+0003	 2.80696178860180E-0001	
 3.03650000000000E+0003	 2.81966793356545E-0001	
 3.03850000000000E+0003	 2.83262907852911E-0001	
 3.04050000000000E+0003	 2.84666522349276E-0001	
 3.04250000000000E+0003	 2.86114636845642E-0001	
 3.04450000000000E+0003	 2.87533751342007E-0001	
 3.04650000000000E+0003	 2.88932365838373E-0001	
 3.04850000000000E+0003	 2.90345480334738E-0001	
 3.05050000000000E+0003	 2.91806594831104E-0001	
 3.05250000000000E+0003	 2.93267709327469E-0001	
 3.05450000000000E+0003	 2.94701323823835E-0001	
 3.05650000000000E+0003	 2.96118438320200E-0001	
 3.05850000000000E+0003	 2.97469052816566E-0001	
 3.06050000000000E+0003	 2.98745667312931E-0001	
 3.06250000000000E+0003	 2.99969281809297E-0001	
 3.06450000000000E+0003	 3.01123896305662E-0001	
 3.06650000000000E+0003	 3.02207510802028E-0001	
 3.06850000000000E+0003	 3.03205125298394E-0001	
 3.07050000000000E+0003	 3.04094739794759E-0001	
 3.07250000000000E+0003	 3.04945354291125E-0001	
 3.07450000000000E+0003	 3.05778968787490E-0001	
 3.07650000000000E+0003	 3.06608083283856E-0001	
 3.07850000000000E+0003	 3.07430697780221E-0001	
 3.08050000000000E+0003	 3.08180312276587E-0001	
 3.08250000000000E+0003	 3.08851426772952E-0001	
 3.08450000000000E+0003	 3.09511041269318E-0001	
 3.08650000000000E+0003	 3.10140155765683E-0001	
 3.08850000000000E+0003	 3.10734270262049E-0001	
 3.09050000000000E+0003	 3.11332384758414E-0001	
 3.09250000000000E+0003	 3.11905499254780E-0001	
 3.09450000000000E+0003	 3.12461613751145E-0001	
 3.09650000000000E+0003	 3.13045728247511E-0001	
 3.09850000000000E+0003	 3.13665342743876E-0001	
 3.10050000000000E+0003	 3.14312457240242E-0001	
 3.10250000000000E+0003	 3.14955071736607E-0001	
 3.10450000000000E+0003	 3.15626186232973E-0001	
 3.10650000000000E+0003	 3.16370300729338E-0001	
 3.10850000000000E+0003	 3.17202415225704E-0001	
 3.11050000000000E+0003	 3.18056529722070E-0001	
 3.11250000000000E+0003	 3.18936144218435E-0001	
 3.11450000000000E+0003	 3.19941758714801E-0001	
 3.11650000000000E+0003	 3.21042873211166E-0001	
 3.11850000000000E+0003	 3.22151987707532E-0001	
 3.12050000000000E+0003	 3.23271102203897E-0001	
 3.12250000000000E+0003	 3.24378716700263E-0001	
 3.12450000000000E+0003	 3.25539331196628E-0001	
 3.12650000000000E+0003	 3.26812445692994E-0001	
 3.12850000000000E+0003	 3.28185560189359E-0001	
 3.13050000000000E+0003	 3.29608674685725E-0001	
 3.13250000000000E+0003	 3.31043789182090E-0001	
 3.13450000000000E+0003	 3.32526903678456E-0001	
 3.13650000000000E+0003	 3.34101018174821E-0001	
 3.13850000000000E+0003	 3.35754632671187E-0001	
 3.14050000000000E+0003	 3.37382747167552E-0001	
 3.14250000000000E+0003	 3.38965361663918E-0001	
 3.14450000000000E+0003	 3.40624476160283E-0001	
 3.14650000000000E+0003	 3.42373590656649E-0001	
 3.14850000000000E+0003	 3.44194705153014E-0001	
 3.15050000000000E+0003	 3.46126319649380E-0001	
 3.15250000000000E+0003	 3.48100434145746E-0001	
 3.15450000000000E+0003	 3.49951048642111E-0001	
 3.15650000000000E+0003	 3.51774663138477E-0001	
 3.15850000000000E+0003	 3.53699277634842E-0001	
 3.16050000000000E+0003	 3.55694892131208E-0001	
 3.16250000000000E+0003	 3.57723506627573E-0001	
 3.16450000000000E+0003	 3.59777621123939E-0001	
 3.16650000000000E+0003	 3.61849735620304E-0001	
 3.16850000000000E+0003	 3.63936350116670E-0001	
 3.17050000000000E+0003	 3.66029464613035E-0001	
 3.17250000000000E+0003	 3.68131079109401E-0001	
 3.17450000000000E+0003	 3.70236193605766E-0001	
 3.17650000000000E+0003	 3.72345808102132E-0001	
 3.17850000000000E+0003	 3.74449422598497E-0001	
 3.18050000000000E+0003	 3.76528537094863E-0001	
 3.18250000000000E+0003	 3.78576651591228E-0001	
 3.18450000000000E+0003	 3.80611266087594E-0001	
 3.18650000000000E+0003	 3.82628380583959E-0001	
 3.18850000000000E+0003	 3.84623495080325E-0001	
 3.19050000000000E+0003	 3.86574109576690E-0001	
 3.19250000000000E+0003	 3.88479224073056E-0001	
 3.19450000000000E+0003	 3.90348338569422E-0001	
 3.19650000000000E+0003	 3.92183953065787E-0001	
 3.19850000000000E+0003	 3.93979067562153E-0001	
 3.20050000000000E+0003	 3.95745182058518E-0001	
 3.20250000000000E+0003	 3.97478796554884E-0001	
 3.20450000000000E+0003	 3.99182911051249E-0001	
 3.20650000000000E+0003	 4.00859025547615E-0001	
 3.20850000000000E+0003	 4.02506640043980E-0001	
 3.21050000000000E+0003	 4.04131254540346E-0001	
 3.21250000000000E+0003	 4.05764369036711E-0001	
 3.21450000000000E+0003	 4.07395483533077E-0001	
 3.21650000000000E+0003	 4.09015598029442E-0001	
 3.21850000000000E+0003	 4.10635712525808E-0001	
 3.22050000000000E+0003	 4.12256327022173E-0001	
 3.22250000000000E+0003	 4.13870941518539E-0001	
 3.22450000000000E+0003	 4.15518056014904E-0001	
 3.22650000000000E+0003	 4.17206170511270E-0001	
 3.22850000000000E+0003	 4.18946285007635E-0001	
 3.23050000000000E+0003	 4.20761899504001E-0001	
 3.23250000000000E+0003	 4.22674514000367E-0001	
 3.23450000000000E+0003	 4.24531628496732E-0001	
 3.23650000000000E+0003	 4.26292242993098E-0001	
 3.23850000000000E+0003	 4.28127857489463E-0001	
 3.24050000000000E+0003	 4.30090971985829E-0001	
 3.24250000000000E+0003	 4.32128586482194E-0001	
 3.24450000000000E+0003	 4.34251700978560E-0001	
 3.24650000000000E+0003	 4.36435315474925E-0001	
 3.24850000000000E+0003	 4.38585429971291E-0001	
 3.25050000000000E+0003	 4.40728044467656E-0001	
 3.25250000000000E+0003	 4.42970158964022E-0001	
 3.25450000000000E+0003	 4.45298273460387E-0001	
 3.25650000000000E+0003	 4.47638887956753E-0001	
 3.25850000000000E+0003	 4.49950002453118E-0001	
 3.26050000000000E+0003	 4.52279616949484E-0001	
 3.26250000000000E+0003	 4.54626731445849E-0001	
 3.26450000000000E+0003	 4.56970845942215E-0001	
 3.26650000000000E+0003	 4.59287460438580E-0001	
 3.26850000000000E+0003	 4.61591074934946E-0001	
 3.27050000000000E+0003	 4.63862189431311E-0001	
 3.27250000000000E+0003	 4.65994303927677E-0001	
 3.27450000000000E+0003	 4.67966918424043E-0001	
 3.27650000000000E+0003	 4.69845032920408E-0001	
 3.27850000000000E+0003	 4.71621147416774E-0001	
 3.28050000000000E+0003	 4.73312261913139E-0001	
 3.28250000000000E+0003	 4.74905876409505E-0001	
 3.28450000000000E+0003	 4.76395490905870E-0001	
 3.28650000000000E+0003	 4.77772105402236E-0001	
 3.28850000000000E+0003	 4.79045219898601E-0001	
 3.29050000000000E+0003	 4.80233834394967E-0001	
 3.29250000000000E+0003	 4.81324948891332E-0001	
 3.29450000000000E+0003	 4.82267063387698E-0001	
 3.29650000000000E+0003	 4.83079177884063E-0001	
 3.29850000000000E+0003	 4.83776792380429E-0001	
 3.30050000000000E+0003	 4.84406406876794E-0001	
 3.30250000000000E+0003	 4.85000021373160E-0001	
 3.30450000000000E+0003	 4.85588635869525E-0001	
 3.30650000000000E+0003	 4.86116750365891E-0001	
 3.30850000000000E+0003	 4.86512864862256E-0001	
 3.31050000000000E+0003	 4.86803479358622E-0001	
 3.31250000000000E+0003	 4.87068593854987E-0001	
 3.31450000000000E+0003	 4.87337208351353E-0001	
 3.31650000000000E+0003	 4.87609822847719E-0001	
 3.31850000000000E+0003	 4.87875937344084E-0001	
 3.32050000000000E+0003	 4.88145051840450E-0001	
 3.32250000000000E+0003	 4.88421666336815E-0001	
 3.32450000000000E+0003	 4.88732280833181E-0001	
 3.32650000000000E+0003	 4.89031395329546E-0001	
 3.32850000000000E+0003	 4.89283509825912E-0001	
 3.33050000000000E+0003	 4.89545624322277E-0001	
 3.33250000000000E+0003	 4.89858238818643E-0001	
 3.33450000000000E+0003	 4.90196353315008E-0001	
 3.33650000000000E+0003	 4.90577967811374E-0001	
 3.33850000000000E+0003	 4.90980082307739E-0001	
 3.34050000000000E+0003	 4.91331196804105E-0001	
 3.34250000000000E+0003	 4.91659811300470E-0001	
 3.34450000000000E+0003	 4.92003425796836E-0001	
 3.34650000000000E+0003	 4.92352540293201E-0001	
 3.34850000000000E+0003	 4.92783154789567E-0001	
 3.35050000000000E+0003	 4.93251769285932E-0001	
 3.35250000000000E+0003	 4.93628883782298E-0001	
 3.35450000000000E+0003	 4.93942998278663E-0001	
 3.35650000000000E+0003	 4.94315112775029E-0001	
 3.35850000000000E+0003	 4.94745227271395E-0001	
 3.36050000000000E+0003	 4.95189341767760E-0001	
 3.36250000000000E+0003	 4.95593456264126E-0001	
 3.36450000000000E+0003	 4.96032570760491E-0001	
 3.36650000000000E+0003	 4.96549685256857E-0001	
 3.36850000000000E+0003	 4.97051799753222E-0001	
 3.37050000000000E+0003	 4.97396414249588E-0001	
 3.37250000000000E+0003	 4.97631528745953E-0001	
 3.37450000000000E+0003	 4.97931643242319E-0001	
 3.37650000000000E+0003	 4.98324257738684E-0001	
 3.37850000000000E+0003	 4.98711872235050E-0001	
 3.38050000000000E+0003	 4.99080486731415E-0001	
 3.38250000000000E+0003	 4.99415101227781E-0001	
 3.38450000000000E+0003	 4.99749215724146E-0001	
 3.38650000000000E+0003	 5.00111830220512E-0001	
 3.38850000000000E+0003	 5.00557944716877E-0001	
 3.39050000000000E+0003	 5.01082059213243E-0001	
 3.39250000000000E+0003	 5.01476173709608E-0001	
 3.39450000000000E+0003	 5.01660288205974E-0001	
 3.39650000000000E+0003	 5.01888402702340E-0001	
 3.39850000000000E+0003	 5.02326017198705E-0001	
 3.40050000000000E+0003	 5.02785631695071E-0001	
 3.40250000000000E+0003	 5.02917246191436E-0001	
 3.40450000000000E+0003	 5.02868360687802E-0001	
 3.40650000000000E+0003	 5.02956475184167E-0001	
 3.40850000000000E+0003	 5.03157589680533E-0001	
 3.41050000000000E+0003	 5.03302704176898E-0001	
 3.41250000000000E+0003	 5.03360818673264E-0001	
 3.41450000000000E+0003	 5.03286433169629E-0001	
 3.41650000000000E+0003	 5.03132547665995E-0001	
 3.41850000000000E+0003	 5.02992662162360E-0001	
 3.42050000000000E+0003	 5.02819776658726E-0001	
 3.42250000000000E+0003	 5.02561891155091E-0001	
 3.42450000000000E+0003	 5.02278505651457E-0001	
 3.42650000000000E+0003	 5.02015120147822E-0001	
 3.42850000000000E+0003	 5.01765234644188E-0001	
 3.43050000000000E+0003	 5.01419849140553E-0001	
 3.43250000000000E+0003	 5.01004963636919E-0001	
 3.43450000000000E+0003	 5.00630078133284E-0001	
 3.43650000000000E+0003	 5.00133692629650E-0001	
 3.43850000000000E+0003	 4.99378307126016E-0001	
 3.44050000000000E+0003	 4.98544921622381E-0001	
 3.44250000000000E+0003	 4.97787036118747E-0001	
 3.44450000000000E+0003	 4.97095650615112E-0001	
 3.44650000000000E+0003	 4.96349765111478E-0001	
 3.44850000000000E+0003	 4.95500379607843E-0001	
 3.45050000000000E+0003	 4.94605994104209E-0001	
 3.45250000000000E+0003	 4.93698608600574E-0001	
 3.45450000000000E+0003	 4.92761223096940E-0001	
 3.45650000000000E+0003	 4.91825337593305E-0001	
 3.45850000000000E+0003	 4.90920952089671E-0001	
 3.46050000000000E+0003	 4.89925566586036E-0001	
 3.46250000000000E+0003	 4.88778681082402E-0001	
 3.46450000000000E+0003	 4.87747795578767E-0001	
 3.46650000000000E+0003	 4.86874410075133E-0001	
 3.46850000000000E+0003	 4.85820024571498E-0001	
 3.47050000000000E+0003	 4.84338639067864E-0001	
 3.47250000000000E+0003	 4.82716753564229E-0001	
 3.47450000000000E+0003	 4.81248868060595E-0001	
 3.47650000000000E+0003	 4.79949482556960E-0001	
 3.47850000000000E+0003	 4.78749097053326E-0001	
 3.48050000000000E+0003	 4.77373711549692E-0001	
 3.48250000000000E+0003	 4.75736826046057E-0001	
 3.48450000000000E+0003	 4.74193940542423E-0001	
 3.48650000000000E+0003	 4.72740055038788E-0001	
 3.48850000000000E+0003	 4.71167669535154E-0001	
 3.49050000000000E+0003	 4.69524284031519E-0001	
 3.49250000000000E+0003	 4.67945898527885E-0001	
 3.49450000000000E+0003	 4.66402513024250E-0001	
 3.49650000000000E+0003	 4.64818127520616E-0001	
 3.49850000000000E+0003	 4.63159742016981E-0001	
 3.50050000000000E+0003	 4.61537856513347E-0001	
 3.50250000000000E+0003	 4.59877471009712E-0001	
 3.50450000000000E+0003	 4.57958585506078E-0001	
 3.50650000000000E+0003	 4.55970700002443E-0001	
 3.50850000000000E+0003	 4.54094314498809E-0001	
 3.51050000000000E+0003	 4.52285928995174E-0001	
 3.51250000000000E+0003	 4.50542543491540E-0001	
 3.51450000000000E+0003	 4.48700657987905E-0001	
 3.51650000000000E+0003	 4.46712772484271E-0001	
 3.51850000000000E+0003	 4.44727886980636E-0001	
 3.52050000000000E+0003	 4.42887001477002E-0001	
 3.52250000000000E+0003	 4.41147115973368E-0001	
 3.52450000000000E+0003	 4.39241730469733E-0001	
 3.52650000000000E+0003	 4.37060844966099E-0001	
 3.52850000000000E+0003	 4.34826459462464E-0001	
 3.53050000000000E+0003	 4.32688073958830E-0001	
 3.53250000000000E+0003	 4.30634688455195E-0001	
 3.53450000000000E+0003	 4.28664802951561E-0001	
 3.53650000000000E+0003	 4.26609417447926E-0001	
 3.53850000000000E+0003	 4.24363531944292E-0001	
 3.54050000000000E+0003	 4.22212146440657E-0001	
 3.54250000000000E+0003	 4.20250260937023E-0001	
 3.54450000000000E+0003	 4.18221375433388E-0001	
 3.54650000000000E+0003	 4.15829489929754E-0001	
 3.54850000000000E+0003	 4.13205604426119E-0001	
 3.55050000000000E+0003	 4.10689218922485E-0001	
 3.55250000000000E+0003	 4.08190833418850E-0001	
 3.55450000000000E+0003	 4.05668947915216E-0001	
 3.55650000000000E+0003	 4.03224062411581E-0001	
 3.55850000000000E+0003	 4.00821676907947E-0001	
 3.56050000000000E+0003	 3.98430291404313E-0001	
 3.56250000000000E+0003	 3.95972905900678E-0001	
 3.56450000000000E+0003	 3.93470020397044E-0001	
 3.56650000000000E+0003	 3.90922134893409E-0001	
 3.56850000000000E+0003	 3.88249749389775E-0001	
 3.57050000000000E+0003	 3.85458363886140E-0001	
 3.57250000000000E+0003	 3.82626978382506E-0001	
 3.57450000000000E+0003	 3.79830592878871E-0001	
 3.57650000000000E+0003	 3.77071207375237E-0001	
 3.57850000000000E+0003	 3.74356321871602E-0001	
 3.58050000000000E+0003	 3.71745436367968E-0001	
 3.58250000000000E+0003	 3.69205050864333E-0001	
 3.58450000000000E+0003	 3.66649165360699E-0001	
 3.58650000000000E+0003	 3.63776779857064E-0001	
 3.58850000000000E+0003	 3.60584394353430E-0001	
 3.59050000000000E+0003	 3.57562008849795E-0001	
 3.59250000000000E+0003	 3.54650123346161E-0001	
 3.59450000000000E+0003	 3.51630237842526E-0001	
 3.59650000000000E+0003	 3.48652352338892E-0001	
 3.59850000000000E+0003	 3.45797466835257E-0001	
 3.60050000000000E+0003	 3.42855581331623E-0001	
 3.60250000000000E+0003	 3.39858695827989E-0001	
 3.60450000000000E+0003	 3.36995810324354E-0001	
 3.60650000000000E+0003	 3.34163424820720E-0001	
 3.60850000000000E+0003	 3.31202539317085E-0001	
 3.61050000000000E+0003	 3.28156653813451E-0001	
 3.61250000000000E+0003	 3.25081768309816E-0001	
 3.61450000000000E+0003	 3.22038882806182E-0001	
 3.61650000000000E+0003	 3.19046497302547E-0001	
 3.61850000000000E+0003	 3.15821111798913E-0001	
 3.62050000000000E+0003	 3.12592226295278E-0001	
 3.62250000000000E+0003	 3.09701340791644E-0001	
 3.62450000000000E+0003	 3.06901455288009E-0001	
 3.62650000000000E+0003	 3.04079569784375E-0001	
 3.62850000000000E+0003	 3.00866184280740E-0001	
 3.63050000000000E+0003	 2.97495298777106E-0001	
 3.63250000000000E+0003	 2.94599913273471E-0001	
 3.63450000000000E+0003	 2.91723527769837E-0001	
 3.63650000000000E+0003	 2.88776142266202E-0001	
 3.63850000000000E+0003	 2.85838756762568E-0001	
 3.64050000000000E+0003	 2.83007871258933E-0001	
 3.64250000000000E+0003	 2.80324985755299E-0001	
 3.64450000000000E+0003	 2.77858100251665E-0001	
 3.64650000000000E+0003	 2.75481714748030E-0001	
 3.64850000000000E+0003	 2.72830829244396E-0001	
 3.65050000000000E+0003	 2.69918943740761E-0001	
 3.65250000000000E+0003	 2.67088058237127E-0001	
 3.65450000000000E+0003	 2.64440672733492E-0001	
 3.65650000000000E+0003	 2.61822287229858E-0001	
 3.65850000000000E+0003	 2.59371901726223E-0001	
 3.66050000000000E+0003	 2.57020516222589E-0001	
 3.66250000000000E+0003	 2.54649130718954E-0001	
 3.66450000000000E+0003	 2.52415745215320E-0001	
 3.66650000000000E+0003	 2.50394359711685E-0001	
 3.66850000000000E+0003	 2.48434474208051E-0001	
 3.67050000000000E+0003	 2.46355588704416E-0001	
 3.67250000000000E+0003	 2.44552703200782E-0001	
 3.67450000000000E+0003	 2.42868817697147E-0001	
 3.67650000000000E+0003	 2.40950432193513E-0001	
 3.67850000000000E+0003	 2.39135046689878E-0001	
 3.68050000000000E+0003	 2.37421661186244E-0001	
 3.68250000000000E+0003	 2.35881775682609E-0001	
 3.68450000000000E+0003	 2.34433390178975E-0001	
 3.68650000000000E+0003	 2.33233504675341E-0001	
 3.68850000000000E+0003	 2.31956619171706E-0001	
 3.69050000000000E+0003	 2.30423233668072E-0001	
 3.69250000000000E+0003	 2.29064348164437E-0001	
 3.69450000000000E+0003	 2.27844462660803E-0001	
 3.69650000000000E+0003	 2.26695077157168E-0001	
 3.69850000000000E+0003	 2.25627191653534E-0001	
 3.70050000000000E+0003	 2.24630806149899E-0001	
 3.70250000000000E+0003	 2.23711920646265E-0001	
 3.70450000000000E+0003	 2.22900535142630E-0001	
 3.70650000000000E+0003	 2.22150649638996E-0001	
 3.70850000000000E+0003	 2.21499764135361E-0001	
 3.71050000000000E+0003	 2.20838878631727E-0001	
 3.71250000000000E+0003	 2.20098493128092E-0001	
 3.71450000000000E+0003	 2.19262607624458E-0001	
 3.71650000000000E+0003	 2.18449722120823E-0001	
 3.71850000000000E+0003	 2.17749836617189E-0001	
 3.72050000000000E+0003	 2.17140451113554E-0001	
 3.72250000000000E+0003	 2.16559565609920E-0001	
 3.72450000000000E+0003	 2.16010680106286E-0001	
 3.72650000000000E+0003	 2.15492294602651E-0001	
 3.72850000000000E+0003	 2.14971909099017E-0001	
 3.73050000000000E+0003	 2.14527023595382E-0001	
 3.73250000000000E+0003	 2.14114638091748E-0001	
 3.73450000000000E+0003	 2.13781752588113E-0001	
 3.73650000000000E+0003	 2.13590367084479E-0001	
 3.73850000000000E+0003	 2.13266981580844E-0001	
 3.74050000000000E+0003	 2.12533096077210E-0001	
 3.74250000000000E+0003	 2.11965210573575E-0001	
 3.74450000000000E+0003	 2.11655325069941E-0001	
 3.74650000000000E+0003	 2.11325439566306E-0001	
 3.74850000000000E+0003	 2.10860054062672E-0001	
 3.75050000000000E+0003	 2.10403168559037E-0001	
 3.75250000000000E+0003	 2.09986783055403E-0001	
 3.75450000000000E+0003	 2.09441397551768E-0001	
 3.75650000000000E+0003	 2.08872512048134E-0001	
 3.75850000000000E+0003	 2.08447126544499E-0001	
 3.76050000000000E+0003	 2.08076241040865E-0001	
 3.76250000000000E+0003	 2.07656855537230E-0001	
 3.76450000000000E+0003	 2.07253970033596E-0001	
 3.76650000000000E+0003	 2.06933584529962E-0001	
 3.76850000000000E+0003	 2.06659199026327E-0001	
 3.77050000000000E+0003	 2.06274813522693E-0001	
 3.77250000000000E+0003	 2.05858928019058E-0001	
 3.77450000000000E+0003	 2.05422042515424E-0001	
 3.77650000000000E+0003	 2.05139657011789E-0001	
 3.77850000000000E+0003	 2.04971771508155E-0001	
 3.78050000000000E+0003	 2.04701886004520E-0001	
 3.78250000000000E+0003	 2.04315500500886E-0001	
 3.78450000000000E+0003	 2.03906614997251E-0001	
 3.78650000000000E+0003	 2.03610229493617E-0001	
 3.78850000000000E+0003	 2.03336843989982E-0001	
 3.79050000000000E+0003	 2.03081458486348E-0001	
 3.79250000000000E+0003	 2.02862072982713E-0001	
 3.79450000000000E+0003	 2.02712187479079E-0001	
 3.79650000000000E+0003	 2.02530301975444E-0001	
 3.79850000000000E+0003	 2.02262416471810E-0001	
 3.80050000000000E+0003	 2.02024030968175E-0001	
 3.80250000000000E+0003	 2.01842645464541E-0001	
 3.80450000000000E+0003	 2.01698759960906E-0001	
 3.80650000000000E+0003	 2.01364874457272E-0001	
 3.80850000000000E+0003	 2.01082988953638E-0001	
 3.81050000000000E+0003	 2.00803603450003E-0001	
 3.81250000000000E+0003	 2.00500717946369E-0001	
 3.81450000000000E+0003	 2.00422332442734E-0001	
 3.81650000000000E+0003	 2.00334946939100E-0001	
 3.81850000000000E+0003	 2.00202061435465E-0001	
 3.82050000000000E+0003	 1.99988175931831E-0001	
 3.82250000000000E+0003	 1.99825790428196E-0001	
 3.82450000000000E+0003	 1.99597904924562E-0001	
 3.82650000000000E+0003	 1.99258019420927E-0001	
 3.82850000000000E+0003	 1.99102133917293E-0001	
 3.83050000000000E+0003	 1.98956248413658E-0001	
 3.83250000000000E+0003	 1.98758362910024E-0001	
 3.83450000000000E+0003	 1.98582977406389E-0001	
 3.83650000000000E+0003	 1.98447091902755E-0001	
 3.83850000000000E+0003	 1.98322706399120E-0001	
 3.84050000000000E+0003	 1.98220320895486E-0001	
 3.84250000000000E+0003	 1.98100935391851E-0001	
 3.84450000000000E+0003	 1.97931549888217E-0001	
 3.84650000000000E+0003	 1.97765664384582E-0001	
 3.84850000000000E+0003	 1.97523778880948E-0001	
 3.85050000000000E+0003	 1.97279393377314E-0001	
 3.85250000000000E+0003	 1.96979007873679E-0001	
 3.85450000000000E+0003	 1.96723622370045E-0001	
 3.85650000000000E+0003	 1.96789736866410E-0001	
 3.85850000000000E+0003	 1.96773851362776E-0001	
 3.86050000000000E+0003	 1.96691465859141E-0001	
 3.86250000000000E+0003	 1.96518580355507E-0001	
 3.86450000000000E+0003	 1.96391694851872E-0001	
 3.86650000000000E+0003	 1.96300309348238E-0001	
 3.86850000000000E+0003	 1.96228923844603E-0001	
 3.87050000000000E+0003	 1.96092038340969E-0001	
 3.87250000000000E+0003	 1.95995152837334E-0001	
 3.87450000000000E+0003	 1.95799267333700E-0001	
 3.87650000000000E+0003	 1.95704381830065E-0001	
 3.87850000000000E+0003	 1.95602496326431E-0001	
 3.88050000000000E+0003	 1.95502610822796E-0001	
 3.88250000000000E+0003	 1.95477725319162E-0001	
 3.88450000000000E+0003	 1.95491839815527E-0001	
 3.88650000000000E+0003	 1.95466454311893E-0001	
 3.88850000000000E+0003	 1.95251568808259E-0001	
 3.89050000000000E+0003	 1.94864683304624E-0001	
 3.89250000000000E+0003	 1.94721797800990E-0001	
 3.89450000000000E+0003	 1.94732912297355E-0001	
 3.89650000000000E+0003	 1.94644026793721E-0001	
 3.89850000000000E+0003	 1.94642141290086E-0001	
 3.90050000000000E+0003	 1.94830255786452E-0001	
 3.90250000000000E+0003	 1.94887370282817E-0001	
 3.90450000000000E+0003	 1.94551484779183E-0001	
 3.90650000000000E+0003	 1.94289599275548E-0001	
 3.90850000000000E+0003	 1.94153713771914E-0001	
 3.91050000000000E+0003	 1.94035328268279E-0001	
 3.91250000000000E+0003	 1.93952942764645E-0001	
 3.91450000000000E+0003	 1.93949057261010E-0001	
 3.91650000000000E+0003	 1.94034671757376E-0001	
 3.91850000000000E+0003	 1.94104286253741E-0001	
 3.92050000000000E+0003	 1.93978900750107E-0001	
 3.92250000000000E+0003	 1.93775015246472E-0001	
 3.92450000000000E+0003	 1.93609129742838E-0001	
 3.92650000000000E+0003	 1.93554244239203E-0001	
 3.92850000000000E+0003	 1.93528358735569E-0001	
 3.93050000000000E+0003	 1.93531973231935E-0001	
 3.93250000000000E+0003	 1.93635087728300E-0001	
 3.93450000000000E+0003	 1.93605202224666E-0001	
 3.93650000000000E+0003	 1.93421316721031E-0001	
 3.93850000000000E+0003	 1.93249931217397E-0001	
 3.94050000000000E+0003	 1.93172045713762E-0001	
 3.94250000000000E+0003	 1.93121660210128E-0001	
 3.94450000000000E+0003	 1.93142274706493E-0001	
 3.94650000000000E+0003	 1.93149889202859E-0001	
 3.94850000000000E+0003	 1.93079003699224E-0001	
 3.95050000000000E+0003	 1.92968618195590E-0001	
 3.95250000000000E+0003	 1.92858732691955E-0001	
 3.95450000000000E+0003	 1.92780847188321E-0001	
 3.95650000000000E+0003	 1.92729961684686E-0001	
 3.95850000000000E+0003	 1.92688576181052E-0001	
 3.96050000000000E+0003	 1.92661690677417E-0001	
 3.96250000000000E+0003	 1.92631805173783E-0001	
 3.96450000000000E+0003	 1.92582919670148E-0001	
 3.96650000000000E+0003	 1.92508534166514E-0001	
 3.96850000000000E+0003	 1.92450148662879E-0001	
 3.97050000000000E+0003	 1.92406763159245E-0001	
 3.97250000000000E+0003	 1.92364877655611E-0001	
 3.97450000000000E+0003	 1.92338492151976E-0001	
 3.97650000000000E+0003	 1.92326106648342E-0001	
 3.97850000000000E+0003	 1.92234411764706E-0001	
 3.98050000000000E+0003	 1.92104411764706E-0001	
 3.98250000000000E+0003	 1.92009411764706E-0001	
 3.98450000000000E+0003	 1.91927911764706E-0001	
 3.98650000000000E+0003	 1.91802411764706E-0001	
 3.98850000000000E+0003	 1.91664911764706E-0001	
 3.99050000000000E+0003	 1.91544411764706E-0001	
 3.99250000000000E+0003	 1.91439411764706E-0001	
 3.99450000000000E+0003	 1.91325411764706E-0001	
 3.99650000000000E+0003	 1.91469911764706E-0001	
 3.99850000000000E+0003	 1.91234411764706E-0001	

>1	DATALINE
