*CPCWIN*

>1	DATALINE
DATALINE
1
Operator:

Description:

Remarks:





15.9.2008
11:24


_x	_y
	
	
UNIT	UNIT
 4.50500000000000E+0002	 1.95099811086328E-0001	
 4.52500000000000E+0002	 1.95428332383313E-0001	
 4.54500000000000E+0002	 1.96296853680297E-0001	
 4.56500000000000E+0002	 1.96667374977282E-0001	
 4.58500000000000E+0002	 1.97569896274267E-0001	
 4.60500000000000E+0002	 1.99772417571252E-0001	
 4.62500000000000E+0002	 2.01451438868236E-0001	
 4.64500000000000E+0002	 2.02862960165221E-0001	
 4.66500000000000E+0002	 2.03984981462206E-0001	
 4.68500000000000E+0002	 2.05038002759190E-0001	
 4.70500000000000E+0002	 2.05733524056175E-0001	
 4.72500000000000E+0002	 2.06235045353160E-0001	
 4.74500000000000E+0002	 2.07978066650145E-0001	
 4.76500000000000E+0002	 2.09954587947129E-0001	
 4.78500000000000E+0002	 2.11496109244114E-0001	
 4.80500000000000E+0002	 2.12787130541099E-0001	
 4.82500000000000E+0002	 2.13776151838083E-0001	
 4.84500000000000E+0002	 2.15010173135068E-0001	
 4.86500000000000E+0002	 2.16819194432053E-0001	
 4.88500000000000E+0002	 2.18593215729038E-0001	
 4.90500000000000E+0002	 2.20089737026022E-0001	
 4.92500000000000E+0002	 2.21570258323007E-0001	
 4.94500000000000E+0002	 2.23447279619992E-0001	
 4.96500000000000E+0002	 2.25307800916976E-0001	
 4.98500000000000E+0002	 2.26976322213961E-0001	
 5.00500000000000E+0002	 2.28274843510946E-0001	
 5.02500000000000E+0002	 2.29596364807931E-0001	
 5.04500000000000E+0002	 2.31084886104915E-0001	
 5.06500000000000E+0002	 2.32324907401900E-0001	
 5.08500000000000E+0002	 2.33767428698885E-0001	
 5.10500000000000E+0002	 2.35368449995869E-0001	
 5.12500000000000E+0002	 2.36904971292854E-0001	
 5.14500000000000E+0002	 2.38393992589839E-0001	
 5.16500000000000E+0002	 2.39675513886824E-0001	
 5.18500000000000E+0002	 2.41264535183808E-0001	
 5.20500000000000E+0002	 2.43234556480793E-0001	
 5.22500000000000E+0002	 2.45077577777778E-0001	
 5.24500000000000E+0002	 2.46600099074762E-0001	
 5.26500000000000E+0002	 2.48612620371747E-0001	
 5.28500000000000E+0002	 2.51328641668732E-0001	
 5.30500000000000E+0002	 2.53391162965717E-0001	
 5.32500000000000E+0002	 2.53908684262701E-0001	
 5.34500000000000E+0002	 2.53376705559686E-0001	
 5.36500000000000E+0002	 2.52526226856671E-0001	
 5.38500000000000E+0002	 2.51678748153656E-0001	
 5.40500000000000E+0002	 2.50665269450640E-0001	
 5.42500000000000E+0002	 2.49619290747625E-0001	
 5.44500000000000E+0002	 2.48511312044610E-0001	
 5.46500000000000E+0002	 2.47592833341594E-0001	
 5.48500000000000E+0002	 2.46914854638579E-0001	
 5.50500000000000E+0002	 2.46440375935564E-0001	
 5.52500000000000E+0002	 2.46012897232549E-0001	
 5.54500000000000E+0002	 2.45649918529533E-0001	
 5.56500000000000E+0002	 2.45411439826518E-0001	
 5.58500000000000E+0002	 2.45370461123503E-0001	
 5.60500000000000E+0002	 2.45207482420487E-0001	
 5.62500000000000E+0002	 2.44975503717472E-0001	
 5.64500000000000E+0002	 2.44712525014457E-0001	
 5.66500000000000E+0002	 2.44456046311442E-0001	
 5.68500000000000E+0002	 2.44163567608426E-0001	
 5.70500000000000E+0002	 2.44033588905411E-0001	
 5.72500000000000E+0002	 2.43893610202396E-0001	
 5.74500000000000E+0002	 2.43613131499380E-0001	
 5.76500000000000E+0002	 2.43195152796365E-0001	
 5.78500000000000E+0002	 2.42686174093350E-0001	
 5.80500000000000E+0002	 2.41747195390335E-0001	
 5.82500000000000E+0002	 2.40656716687319E-0001	
 5.84500000000000E+0002	 2.39624237984304E-0001	
 5.86500000000000E+0002	 2.38867259281289E-0001	
 5.88500000000000E+0002	 2.38376780578273E-0001	
 5.90500000000000E+0002	 2.38018301875258E-0001	
 5.92500000000000E+0002	 2.38007323172243E-0001	
 5.94500000000000E+0002	 2.38371844469228E-0001	
 5.96500000000000E+0002	 2.38658865766212E-0001	
 5.98500000000000E+0002	 2.38846887063197E-0001	
 6.00500000000000E+0002	 2.38979408360182E-0001	
 6.02500000000000E+0002	 2.39198929657166E-0001	
 6.04500000000000E+0002	 2.39443950954151E-0001	
 6.06500000000000E+0002	 2.39828972251136E-0001	
 6.08500000000000E+0002	 2.40227493548121E-0001	
 6.10500000000000E+0002	 2.40574514845105E-0001	
 6.12500000000000E+0002	 2.40804036142090E-0001	
 6.14500000000000E+0002	 2.40716557439075E-0001	
 6.16500000000000E+0002	 2.40135578736059E-0001	
 6.18500000000000E+0002	 2.39435100033044E-0001	
 6.20500000000000E+0002	 2.38582121330029E-0001	
 6.22500000000000E+0002	 2.37488642627014E-0001	
 6.24500000000000E+0002	 2.36342663923998E-0001	
 6.26500000000000E+0002	 2.35401185220983E-0001	
 6.28500000000000E+0002	 2.34598206517968E-0001	
 6.30500000000000E+0002	 2.33821727814952E-0001	
 6.32500000000000E+0002	 2.33041249111937E-0001	
 6.34500000000000E+0002	 2.32329270408922E-0001	
 6.36500000000000E+0002	 2.31791791705907E-0001	
 6.38500000000000E+0002	 2.31388313002891E-0001	
 6.40500000000000E+0002	 2.30959834299876E-0001	
 6.42500000000000E+0002	 2.30428355596861E-0001	
 6.44500000000000E+0002	 2.29725876893846E-0001	
 6.46500000000000E+0002	 2.28954398190830E-0001	
 6.48500000000000E+0002	 2.28196419487815E-0001	
 6.50500000000000E+0002	 2.27506940784800E-0001	
 6.52500000000000E+0002	 2.26850462081784E-0001	
 6.54500000000000E+0002	 2.26247483378769E-0001	
 6.56500000000000E+0002	 2.25771504675754E-0001	
 6.58500000000000E+0002	 2.25330525972739E-0001	
 6.60500000000000E+0002	 2.24862547269723E-0001	
 6.62500000000000E+0002	 2.24518568566708E-0001	
 6.64500000000000E+0002	 2.24750089863693E-0001	
 6.66500000000000E+0002	 2.26225611160677E-0001	
 6.68500000000000E+0002	 2.26015632457662E-0001	
 6.70500000000000E+0002	 2.22581153754647E-0001	
 6.72500000000000E+0002	 2.21226175051632E-0001	
 6.74500000000000E+0002	 2.20207696348616E-0001	
 6.76500000000000E+0002	 2.19276717645601E-0001	
 6.78500000000000E+0002	 2.18316238942586E-0001	
 6.80500000000000E+0002	 2.17375760239570E-0001	
 6.82500000000000E+0002	 2.16473781536555E-0001	
 6.84500000000000E+0002	 2.15646302833540E-0001	
 6.86500000000000E+0002	 2.14858324130525E-0001	
 6.88500000000000E+0002	 2.14134345427509E-0001	
 6.90500000000000E+0002	 2.13554866724494E-0001	
 6.92500000000000E+0002	 2.13197888021479E-0001	
 6.94500000000000E+0002	 2.12978409318463E-0001	
 6.96500000000000E+0002	 2.12915430615448E-0001	
 6.98500000000000E+0002	 2.12872451912433E-0001	
 7.00500000000000E+0002	 2.12670973209418E-0001	
 7.02500000000000E+0002	 2.12146494506402E-0001	
 7.04500000000000E+0002	 2.11290515803387E-0001	
 7.06500000000000E+0002	 2.10164537100372E-0001	
 7.08500000000000E+0002	 2.08849058397356E-0001	
 7.10500000000000E+0002	 2.07435579694341E-0001	
 7.12500000000000E+0002	 2.05973100991326E-0001	
 7.14500000000000E+0002	 2.04428122288311E-0001	
 7.16500000000000E+0002	 2.02908143585295E-0001	
 7.18500000000000E+0002	 2.01426664882280E-0001	
 7.20500000000000E+0002	 2.00052686179265E-0001	
 7.22500000000000E+0002	 1.98826707476249E-0001	
 7.24500000000000E+0002	 1.97338228773234E-0001	
 7.26500000000000E+0002	 1.95549750070219E-0001	
 7.28500000000000E+0002	 1.93655771367204E-0001	
 7.30500000000000E+0002	 1.91827792664188E-0001	
 7.32500000000000E+0002	 1.90155813961173E-0001	
 7.34500000000000E+0002	 1.88695335258158E-0001	
 7.36500000000000E+0002	 1.87400356555143E-0001	
 7.38500000000000E+0002	 1.86241377852127E-0001	
 7.40500000000000E+0002	 1.85219399149112E-0001	
 7.42500000000000E+0002	 1.84330420446097E-0001	
 7.44500000000000E+0002	 1.83553441743081E-0001	
 7.46500000000000E+0002	 1.82848463040066E-0001	
 7.48500000000000E+0002	 1.82142484337051E-0001	
 7.50500000000000E+0002	 1.81340505634036E-0001	
 7.52500000000000E+0002	 1.80400026931020E-0001	
 7.54500000000000E+0002	 1.79292048228005E-0001	
 7.56500000000000E+0002	 1.78068569524990E-0001	
 7.58500000000000E+0002	 1.76743590821974E-0001	
 7.60500000000000E+0002	 1.75485612118959E-0001	
 7.62500000000000E+0002	 1.74374133415944E-0001	
 7.64500000000000E+0002	 1.73379654712929E-0001	
 7.66500000000000E+0002	 1.72207676009913E-0001	
 7.68500000000000E+0002	 1.70833697306898E-0001	
 7.70500000000000E+0002	 1.69443218603883E-0001	
 7.72500000000000E+0002	 1.68382739900867E-0001	
 7.74500000000000E+0002	 1.67819761197852E-0001	
 7.76500000000000E+0002	 1.67999282494837E-0001	
 7.78500000000000E+0002	 1.68592803791822E-0001	
 7.80500000000000E+0002	 1.68594825088806E-0001	
 7.82500000000000E+0002	 1.67543346385791E-0001	
 7.84500000000000E+0002	 1.66183867682776E-0001	
 7.86500000000000E+0002	 1.65061388979760E-0001	
 7.88500000000000E+0002	 1.64157910276745E-0001	
 7.90500000000000E+0002	 1.63480431573730E-0001	
 7.92500000000000E+0002	 1.63315452870715E-0001	
 7.94500000000000E+0002	 1.63759974167699E-0001	
 7.96500000000000E+0002	 1.64425495464684E-0001	
 7.98500000000000E+0002	 1.64953016761669E-0001	
 8.00500000000000E+0002	 1.65325538058653E-0001	
 8.02500000000000E+0002	 1.65523059355638E-0001	
 8.04500000000000E+0002	 1.65337580652623E-0001	
 8.06500000000000E+0002	 1.64553101949608E-0001	
 8.08500000000000E+0002	 1.63295123246592E-0001	
 8.10500000000000E+0002	 1.61894144543577E-0001	
 8.12500000000000E+0002	 1.60596165840562E-0001	
 8.14500000000000E+0002	 1.59475687137546E-0001	
 8.16500000000000E+0002	 1.58552708434531E-0001	
 8.18500000000000E+0002	 1.57805729731516E-0001	
 8.20500000000000E+0002	 1.57221751028501E-0001	
 8.22500000000000E+0002	 1.56770772325485E-0001	
 8.24500000000000E+0002	 1.56431793622470E-0001	
 8.26500000000000E+0002	 1.56163814919455E-0001	
 8.28500000000000E+0002	 1.55989336216439E-0001	
 8.30500000000000E+0002	 1.55897357513424E-0001	
 8.32500000000000E+0002	 1.55897878810409E-0001	
 8.34500000000000E+0002	 1.55954400107394E-0001	
 8.36500000000000E+0002	 1.56055421404378E-0001	
 8.38500000000000E+0002	 1.56172942701363E-0001	
 8.40500000000000E+0002	 1.56298463998348E-0001	
 8.42500000000000E+0002	 1.56429985295333E-0001	
 8.44500000000000E+0002	 1.56674506592317E-0001	
 8.46500000000000E+0002	 1.57080027889302E-0001	
 8.48500000000000E+0002	 1.57676549186287E-0001	
 8.50500000000000E+0002	 1.58433070483271E-0001	
 8.52500000000000E+0002	 1.59353591780256E-0001	
 8.54500000000000E+0002	 1.60352613077241E-0001	
 8.56500000000000E+0002	 1.61327634374226E-0001	
 8.58500000000000E+0002	 1.62112655671210E-0001	
 8.60500000000000E+0002	 1.62584676968195E-0001	
 8.62500000000000E+0002	 1.62641198265180E-0001	
 8.64500000000000E+0002	 1.62284219562164E-0001	
 8.66500000000000E+0002	 1.61619740859149E-0001	
 8.68500000000000E+0002	 1.60982762156134E-0001	
 8.70500000000000E+0002	 1.60791783453119E-0001	
 8.72500000000000E+0002	 1.60575804750103E-0001	
 8.74500000000000E+0002	 1.59363826047088E-0001	
 8.76500000000000E+0002	 1.57627847344073E-0001	
 8.78500000000000E+0002	 1.56065368641057E-0001	
 8.80500000000000E+0002	 1.54769889938042E-0001	
 8.82500000000000E+0002	 1.53623411235027E-0001	
 8.84500000000000E+0002	 1.52616932532012E-0001	
 8.86500000000000E+0002	 1.51724953828996E-0001	
 8.88500000000000E+0002	 1.51068475125981E-0001	
 8.90500000000000E+0002	 1.50644496422966E-0001	
 8.92500000000000E+0002	 1.50487517719950E-0001	
 8.94500000000000E+0002	 1.50501539016935E-0001	
 8.96500000000000E+0002	 1.50639560313920E-0001	
 8.98500000000000E+0002	 1.50777081610905E-0001	
 9.00500000000000E+0002	 1.50980602907889E-0001	
 9.02500000000000E+0002	 1.51322124204874E-0001	
 9.04500000000000E+0002	 1.51941145501859E-0001	
 9.06500000000000E+0002	 1.52865166798843E-0001	
 9.08500000000000E+0002	 1.54035188095828E-0001	
 9.10500000000000E+0002	 1.55248209392813E-0001	
 9.12500000000000E+0002	 1.56285730689798E-0001	
 9.14500000000000E+0002	 1.56950751986782E-0001	
 9.16500000000000E+0002	 1.57158273283767E-0001	
 9.18500000000000E+0002	 1.56981794580752E-0001	
 9.20500000000000E+0002	 1.56652315877736E-0001	
 9.22500000000000E+0002	 1.56447337174721E-0001	
 9.24500000000000E+0002	 1.56594358471706E-0001	
 9.26500000000000E+0002	 1.57180879768691E-0001	
 9.28500000000000E+0002	 1.58188401065675E-0001	
 9.30500000000000E+0002	 1.59502422362660E-0001	
 9.32500000000000E+0002	 1.60992443659645E-0001	
 9.34500000000000E+0002	 1.62513964956629E-0001	
 9.36500000000000E+0002	 1.64035986253614E-0001	
 9.38500000000000E+0002	 1.65475007550599E-0001	
 9.40500000000000E+0002	 1.66814028847584E-0001	
 9.42500000000000E+0002	 1.67941050144568E-0001	
 9.44500000000000E+0002	 1.68771071441553E-0001	
 9.46500000000000E+0002	 1.69201092738538E-0001	
 9.48500000000000E+0002	 1.69295614035523E-0001	
 9.50500000000000E+0002	 1.69185635332507E-0001	
 9.52500000000000E+0002	 1.69208156629492E-0001	
 9.54500000000000E+0002	 1.69654177926477E-0001	
 9.56500000000000E+0002	 1.70753699223461E-0001	
 9.58500000000000E+0002	 1.72500720520446E-0001	
 9.60500000000000E+0002	 1.74774741817431E-0001	
 9.62500000000000E+0002	 1.77359763114416E-0001	
 9.64500000000000E+0002	 1.80069284411400E-0001	
 9.66500000000000E+0002	 1.82760305708385E-0001	
 9.68500000000000E+0002	 1.85430327005370E-0001	
 9.70500000000000E+0002	 1.88229848302354E-0001	
 9.72500000000000E+0002	 1.91483369599339E-0001	
 9.74500000000000E+0002	 1.95652890896324E-0001	
 9.76500000000000E+0002	 2.01221412193309E-0001	
 9.78500000000000E+0002	 2.08523433490293E-0001	
 9.80500000000000E+0002	 2.17564954787278E-0001	
 9.82500000000000E+0002	 2.27853476084263E-0001	
 9.84500000000000E+0002	 2.38468997381247E-0001	
 9.86500000000000E+0002	 2.48332518678232E-0001	
 9.88500000000000E+0002	 2.56491539975217E-0001	
 9.90500000000000E+0002	 2.62298561272202E-0001	
 9.92500000000000E+0002	 2.65487582569186E-0001	
 9.94500000000000E+0002	 2.66211603866171E-0001	
 9.96500000000000E+0002	 2.65032125163156E-0001	
 9.98500000000000E+0002	 2.62886646460140E-0001	
 1.00050000000000E+0003	 2.60894667757125E-0001	
 1.00250000000000E+0003	 2.60117189054110E-0001	
 1.00450000000000E+0003	 2.61236710351095E-0001	
 1.00650000000000E+0003	 2.64447731648079E-0001	
 1.00850000000000E+0003	 2.69395752945064E-0001	
 1.01050000000000E+0003	 2.75385774242049E-0001	
 1.01250000000000E+0003	 2.81667295539033E-0001	
 1.01450000000000E+0003	 2.87709816836018E-0001	
 1.01650000000000E+0003	 2.93335338133003E-0001	
 1.01850000000000E+0003	 2.98779859429988E-0001	
 1.02050000000000E+0003	 3.04516880726972E-0001	
 1.02250000000000E+0003	 3.10940902023957E-0001	
 1.02450000000000E+0003	 3.18096923320942E-0001	
 1.02650000000000E+0003	 3.25540944617926E-0001	
 1.02850000000000E+0003	 3.32488465914911E-0001	
 1.03050000000000E+0003	 3.38189987211896E-0001	
 1.03250000000000E+0003	 3.42330508508881E-0001	
 1.03450000000000E+0003	 3.45134529805865E-0001	
 1.03650000000000E+0003	 3.47082551102850E-0001	
 1.03850000000000E+0003	 3.48674072399835E-0001	
 1.04050000000000E+0003	 3.50390593696819E-0001	
 1.04250000000000E+0003	 3.52611614993804E-0001	
 1.04450000000000E+0003	 3.55459636290789E-0001	
 1.04650000000000E+0003	 3.58681657587774E-0001	
 1.04850000000000E+0003	 3.61731678884758E-0001	
 1.05050000000000E+0003	 3.64083200181743E-0001	
 1.05250000000000E+0003	 3.65451221478728E-0001	
 1.05450000000000E+0003	 3.66035242775713E-0001	
 1.05650000000000E+0003	 3.66178264072697E-0001	
 1.05850000000000E+0003	 3.66070285369682E-0001	
 1.06050000000000E+0003	 3.65623806666667E-0001	
 1.06250000000000E+0003	 3.64846827963651E-0001	
 1.06450000000000E+0003	 3.64007849260636E-0001	
 1.06650000000000E+0003	 3.63608870557621E-0001	
 1.06850000000000E+0003	 3.63960891854606E-0001	
 1.07050000000000E+0003	 3.65119413151590E-0001	
 1.07250000000000E+0003	 3.66767934448575E-0001	
 1.07450000000000E+0003	 3.68362455745560E-0001	
 1.07650000000000E+0003	 3.69324477042544E-0001	
 1.07850000000000E+0003	 3.69126998339529E-0001	
 1.08050000000000E+0003	 3.67475019636514E-0001	
 1.08250000000000E+0003	 3.64418040933499E-0001	
 1.08450000000000E+0003	 3.60281562230483E-0001	
 1.08650000000000E+0003	 3.55426583527468E-0001	
 1.08850000000000E+0003	 3.50226104824453E-0001	
 1.09050000000000E+0003	 3.45069626121437E-0001	
 1.09250000000000E+0003	 3.40395647418422E-0001	
 1.09450000000000E+0003	 3.36480168715407E-0001	
 1.09650000000000E+0003	 3.33424690012392E-0001	
 1.09850000000000E+0003	 3.31127211309376E-0001	
 1.10050000000000E+0003	 3.29393732606361E-0001	
 1.10250000000000E+0003	 3.27930253903346E-0001	
 1.10450000000000E+0003	 3.26473275200330E-0001	
 1.10650000000000E+0003	 3.24899296497315E-0001	
 1.10850000000000E+0003	 3.23205317794300E-0001	
 1.11050000000000E+0003	 3.21389839091285E-0001	
 1.11250000000000E+0003	 3.19312860388269E-0001	
 1.11450000000000E+0003	 3.16696381685254E-0001	
 1.11650000000000E+0003	 3.13217902982239E-0001	
 1.11850000000000E+0003	 3.08770424279223E-0001	
 1.12050000000000E+0003	 3.03403445576208E-0001	
 1.12250000000000E+0003	 2.97295966873193E-0001	
 1.12450000000000E+0003	 2.90678988170178E-0001	
 1.12650000000000E+0003	 2.83749509467162E-0001	
 1.12850000000000E+0003	 2.76699530764147E-0001	
 1.13050000000000E+0003	 2.69768052061132E-0001	
 1.13250000000000E+0003	 2.63315573358116E-0001	
 1.13450000000000E+0003	 2.57698594655101E-0001	
 1.13650000000000E+0003	 2.53220615952086E-0001	
 1.13850000000000E+0003	 2.50158637249071E-0001	
 1.14050000000000E+0003	 2.48701658546055E-0001	
 1.14250000000000E+0003	 2.48724179843040E-0001	
 1.14450000000000E+0003	 2.49812701140025E-0001	
 1.14650000000000E+0003	 2.51176722437010E-0001	
 1.14850000000000E+0003	 2.51956243733994E-0001	
 1.15050000000000E+0003	 2.51417265030979E-0001	
 1.15250000000000E+0003	 2.49309286327964E-0001	
 1.15450000000000E+0003	 2.45726807624948E-0001	
 1.15650000000000E+0003	 2.41057328921933E-0001	
 1.15850000000000E+0003	 2.35814350218918E-0001	
 1.16050000000000E+0003	 2.30486371515903E-0001	
 1.16250000000000E+0003	 2.25419892812887E-0001	
 1.16450000000000E+0003	 2.20806414109872E-0001	
 1.16650000000000E+0003	 2.16737435406857E-0001	
 1.16850000000000E+0003	 2.13254456703841E-0001	
 1.17050000000000E+0003	 2.10317478000826E-0001	
 1.17250000000000E+0003	 2.07754499297811E-0001	
 1.17450000000000E+0003	 2.05409520594796E-0001	
 1.17650000000000E+0003	 2.03332041891780E-0001	
 1.17850000000000E+0003	 2.01681563188765E-0001	
 1.18050000000000E+0003	 2.00658084485750E-0001	
 1.18250000000000E+0003	 2.00432605782734E-0001	
 1.18450000000000E+0003	 2.01135627079719E-0001	
 1.18650000000000E+0003	 2.02806648376704E-0001	
 1.18850000000000E+0003	 2.05489669673689E-0001	
 1.19050000000000E+0003	 2.09130190970673E-0001	
 1.19250000000000E+0003	 2.13680712267658E-0001	
 1.19450000000000E+0003	 2.18951733564643E-0001	
 1.19650000000000E+0003	 2.24752754861627E-0001	
 1.19850000000000E+0003	 2.30830776158612E-0001	
 1.20050000000000E+0003	 2.36979797455597E-0001	
 1.20250000000000E+0003	 2.42968818752582E-0001	
 1.20450000000000E+0003	 2.48661840049566E-0001	
 1.20650000000000E+0003	 2.53974361346551E-0001	
 1.20850000000000E+0003	 2.58879882643536E-0001	
 1.21050000000000E+0003	 2.63462903940520E-0001	
 1.21250000000000E+0003	 2.67934425237505E-0001	
 1.21450000000000E+0003	 2.72483946534490E-0001	
 1.21650000000000E+0003	 2.77373467831475E-0001	
 1.21850000000000E+0003	 2.82876989128459E-0001	
 1.22050000000000E+0003	 2.88112010425444E-0001	
 1.22250000000000E+0003	 2.91308531722429E-0001	
 1.22450000000000E+0003	 2.92024553019413E-0001	
 1.22650000000000E+0003	 2.91498074316398E-0001	
 1.22850000000000E+0003	 2.90859095613383E-0001	
 1.23050000000000E+0003	 2.90321116910368E-0001	
 1.23250000000000E+0003	 2.89681138207352E-0001	
 1.23450000000000E+0003	 2.88804159504337E-0001	
 1.23650000000000E+0003	 2.87601180801322E-0001	
 1.23850000000000E+0003	 2.86023202098306E-0001	
 1.24050000000000E+0003	 2.84010223395291E-0001	
 1.24250000000000E+0003	 2.81524744692276E-0001	
 1.24450000000000E+0003	 2.78605265989261E-0001	
 1.24650000000000E+0003	 2.75358787286245E-0001	
 1.24850000000000E+0003	 2.71815308583230E-0001	
 1.25050000000000E+0003	 2.68046829880215E-0001	
 1.25250000000000E+0003	 2.64113351177200E-0001	
 1.25450000000000E+0003	 2.60111372474184E-0001	
 1.25650000000000E+0003	 2.56049893771169E-0001	
 1.25850000000000E+0003	 2.51949415068154E-0001	
 1.26050000000000E+0003	 2.47833436365138E-0001	
 1.26250000000000E+0003	 2.43814457662123E-0001	
 1.26450000000000E+0003	 2.39921478959108E-0001	
 1.26650000000000E+0003	 2.36206000256093E-0001	
 1.26850000000000E+0003	 2.32740021553077E-0001	
 1.27050000000000E+0003	 2.29591542850062E-0001	
 1.27250000000000E+0003	 2.26838564147047E-0001	
 1.27450000000000E+0003	 2.24479585444031E-0001	
 1.27650000000000E+0003	 2.22403606741016E-0001	
 1.27850000000000E+0003	 2.20560628038001E-0001	
 1.28050000000000E+0003	 2.18912149334986E-0001	
 1.28250000000000E+0003	 2.17282170631970E-0001	
 1.28450000000000E+0003	 2.15590691928955E-0001	
 1.28650000000000E+0003	 2.13899713225940E-0001	
 1.28850000000000E+0003	 2.12405734522924E-0001	
 1.29050000000000E+0003	 2.11234255819909E-0001	
 1.29250000000000E+0003	 2.10371777116894E-0001	
 1.29450000000000E+0003	 2.09762298413879E-0001	
 1.29650000000000E+0003	 2.09458819710863E-0001	
 1.29850000000000E+0003	 2.09520341007848E-0001	
 1.30050000000000E+0003	 2.09894862304833E-0001	
 1.30250000000000E+0003	 2.10450883601817E-0001	
 1.30450000000000E+0003	 2.11063404898802E-0001	
 1.30650000000000E+0003	 2.11700926195787E-0001	
 1.30850000000000E+0003	 2.12366447492772E-0001	
 1.31050000000000E+0003	 2.13029468789756E-0001	
 1.31250000000000E+0003	 2.13622990086741E-0001	
 1.31450000000000E+0003	 2.14145511383726E-0001	
 1.31650000000000E+0003	 2.14489532680710E-0001	
 1.31850000000000E+0003	 2.14591553977695E-0001	
 1.32050000000000E+0003	 2.14596575274680E-0001	
 1.32250000000000E+0003	 2.14554096571665E-0001	
 1.32450000000000E+0003	 2.14318617868649E-0001	
 1.32650000000000E+0003	 2.13945639165634E-0001	
 1.32850000000000E+0003	 2.13570160462619E-0001	
 1.33050000000000E+0003	 2.13247181759603E-0001	
 1.33250000000000E+0003	 2.12926203056588E-0001	
 1.33450000000000E+0003	 2.12370224353573E-0001	
 1.33650000000000E+0003	 2.11337745650558E-0001	
 1.33850000000000E+0003	 2.10067266947542E-0001	
 1.34050000000000E+0003	 2.09230288244527E-0001	
 1.34250000000000E+0003	 2.08867809541512E-0001	
 1.34450000000000E+0003	 2.08358830838496E-0001	
 1.34650000000000E+0003	 2.07619352135481E-0001	
 1.34850000000000E+0003	 2.07287373432466E-0001	
 1.35050000000000E+0003	 2.07788894729451E-0001	
 1.35250000000000E+0003	 2.09174416026435E-0001	
 1.35450000000000E+0003	 2.11244437323420E-0001	
 1.35650000000000E+0003	 2.13672958620405E-0001	
 1.35850000000000E+0003	 2.15994479917390E-0001	
 1.36050000000000E+0003	 2.17934001214374E-0001	
 1.36250000000000E+0003	 2.20366522511359E-0001	
 1.36450000000000E+0003	 2.23913543808344E-0001	
 1.36650000000000E+0003	 2.27753065105328E-0001	
 1.36850000000000E+0003	 2.30729586402313E-0001	
 1.37050000000000E+0003	 2.32445107699298E-0001	
 1.37250000000000E+0003	 2.33180128996283E-0001	
 1.37450000000000E+0003	 2.33605650293267E-0001	
 1.37650000000000E+0003	 2.34370671590252E-0001	
 1.37850000000000E+0003	 2.35056192887237E-0001	
 1.38050000000000E+0003	 2.35100714184221E-0001	
 1.38250000000000E+0003	 2.35100735481206E-0001	
 1.38450000000000E+0003	 2.34822256778191E-0001	
 1.38650000000000E+0003	 2.34368778075176E-0001	
 1.38850000000000E+0003	 2.34167299372160E-0001	
 1.39050000000000E+0003	 2.34714320669145E-0001	
 1.39250000000000E+0003	 2.35215341966130E-0001	
 1.39450000000000E+0003	 2.35222363263114E-0001	
 1.39650000000000E+0003	 2.35557384560099E-0001	
 1.39850000000000E+0003	 2.36918405857084E-0001	
 1.40050000000000E+0003	 2.38197927154069E-0001	
 1.40250000000000E+0003	 2.38797448451053E-0001	
 1.40450000000000E+0003	 2.38700469748038E-0001	
 1.40650000000000E+0003	 2.38134991045023E-0001	
 1.40850000000000E+0003	 2.37907012342007E-0001	
 1.41050000000000E+0003	 2.37419533638992E-0001	
 1.41250000000000E+0003	 2.36749554935977E-0001	
 1.41450000000000E+0003	 2.35836576232962E-0001	
 1.41650000000000E+0003	 2.34161097529946E-0001	
 1.41850000000000E+0003	 2.32523618826931E-0001	
 1.42050000000000E+0003	 2.30871140123916E-0001	
 1.42250000000000E+0003	 2.29588161420900E-0001	
 1.42450000000000E+0003	 2.28409182717885E-0001	
 1.42650000000000E+0003	 2.26443204014870E-0001	
 1.42850000000000E+0003	 2.24670225311855E-0001	
 1.43050000000000E+0003	 2.23073246608839E-0001	
 1.43250000000000E+0003	 2.22395267905824E-0001	
 1.43450000000000E+0003	 2.22356289202809E-0001	
 1.43650000000000E+0003	 2.23087810499793E-0001	
 1.43850000000000E+0003	 2.24058831796778E-0001	
 1.44050000000000E+0003	 2.26336853093763E-0001	
 1.44250000000000E+0003	 2.28458874390748E-0001	
 1.44450000000000E+0003	 2.29558395687732E-0001	
 1.44650000000000E+0003	 2.30413416984717E-0001	
 1.44850000000000E+0003	 2.31548938281702E-0001	
 1.45050000000000E+0003	 2.32908959578686E-0001	
 1.45250000000000E+0003	 2.33776480875671E-0001	
 1.45450000000000E+0003	 2.33308002172656E-0001	
 1.45650000000000E+0003	 2.31309023469641E-0001	
 1.45850000000000E+0003	 2.27270544766625E-0001	
 1.46050000000000E+0003	 2.25978066063610E-0001	
 1.46250000000000E+0003	 2.24570087360595E-0001	
 1.46450000000000E+0003	 2.20906108657580E-0001	
 1.46650000000000E+0003	 2.16441129954564E-0001	
 1.46850000000000E+0003	 2.12702651251549E-0001	
 1.47050000000000E+0003	 2.07980172548534E-0001	
 1.47250000000000E+0003	 2.01301193845518E-0001	
 1.47450000000000E+0003	 1.95210215142503E-0001	
 1.47650000000000E+0003	 1.92639236439488E-0001	
 1.47850000000000E+0003	 1.91291757736473E-0001	
 1.48050000000000E+0003	 1.90416779033457E-0001	
 1.48250000000000E+0003	 1.89833300330442E-0001	
 1.48450000000000E+0003	 1.89594821627427E-0001	
 1.48650000000000E+0003	 1.89432842924411E-0001	
 1.48850000000000E+0003	 1.89645364221396E-0001	
 1.49050000000000E+0003	 1.92637385518381E-0001	
 1.49250000000000E+0003	 1.97027906815366E-0001	
 1.49450000000000E+0003	 2.01672428112350E-0001	
 1.49650000000000E+0003	 2.05705449409335E-0001	
 1.49850000000000E+0003	 2.09372970706320E-0001	
 1.50050000000000E+0003	 2.14935492003304E-0001	
 1.50250000000000E+0003	 2.20449513300289E-0001	
 1.50450000000000E+0003	 2.25527534597274E-0001	
 1.50650000000000E+0003	 2.30433555894259E-0001	
 1.50850000000000E+0003	 2.37458077191243E-0001	
 1.51050000000000E+0003	 2.47574098488228E-0001	
 1.51250000000000E+0003	 2.58252119785213E-0001	
 1.51450000000000E+0003	 2.66350641082197E-0001	
 1.51650000000000E+0003	 2.73190662379182E-0001	
 1.51850000000000E+0003	 2.78662183676167E-0001	
 1.52050000000000E+0003	 2.84864704973152E-0001	
 1.52250000000000E+0003	 2.91122726270136E-0001	
 1.52450000000000E+0003	 2.97847247567121E-0001	
 1.52650000000000E+0003	 3.05880768864106E-0001	
 1.52850000000000E+0003	 3.13347290161090E-0001	
 1.53050000000000E+0003	 3.19545811458075E-0001	
 1.53250000000000E+0003	 3.24843332755060E-0001	
 1.53450000000000E+0003	 3.30104854052045E-0001	
 1.53650000000000E+0003	 3.34386375349029E-0001	
 1.53850000000000E+0003	 3.38525896646014E-0001	
 1.54050000000000E+0003	 3.39481917942999E-0001	
 1.54250000000000E+0003	 3.41599439239983E-0001	
 1.54450000000000E+0003	 3.45829960536968E-0001	
 1.54650000000000E+0003	 3.48400981833953E-0001	
 1.54850000000000E+0003	 3.48037503130938E-0001	
 1.55050000000000E+0003	 3.44793524427922E-0001	
 1.55250000000000E+0003	 3.39926045724907E-0001	
 1.55450000000000E+0003	 3.32990067021892E-0001	
 1.55650000000000E+0003	 3.24221588318876E-0001	
 1.55850000000000E+0003	 3.15864109615861E-0001	
 1.56050000000000E+0003	 3.06988130912846E-0001	
 1.56250000000000E+0003	 3.02288152209831E-0001	
 1.56450000000000E+0003	 2.98535173506815E-0001	
 1.56650000000000E+0003	 2.92508694803800E-0001	
 1.56850000000000E+0003	 2.86749716100785E-0001	
 1.57050000000000E+0003	 2.80980237397770E-0001	
 1.57250000000000E+0003	 2.76328758694754E-0001	
 1.57450000000000E+0003	 2.73778779991739E-0001	
 1.57650000000000E+0003	 2.69571301288724E-0001	
 1.57850000000000E+0003	 2.64615822585708E-0001	
 1.58050000000000E+0003	 2.62953343882693E-0001	
 1.58250000000000E+0003	 2.61466865179678E-0001	
 1.58450000000000E+0003	 2.59923886476663E-0001	
 1.58650000000000E+0003	 2.59081907773647E-0001	
 1.58850000000000E+0003	 2.59130929070632E-0001	
 1.59050000000000E+0003	 2.60004950367617E-0001	
 1.59250000000000E+0003	 2.61691471664601E-0001	
 1.59450000000000E+0003	 2.64073992961586E-0001	
 1.59650000000000E+0003	 2.67149014258571E-0001	
 1.59850000000000E+0003	 2.70717535555556E-0001	
 1.60050000000000E+0003	 2.74683556852540E-0001	
 1.60250000000000E+0003	 2.79184078149525E-0001	
 1.60450000000000E+0003	 2.84468099446510E-0001	
 1.60650000000000E+0003	 2.90433120743494E-0001	
 1.60850000000000E+0003	 2.97500642040479E-0001	
 1.61050000000000E+0003	 3.05890163337464E-0001	
 1.61250000000000E+0003	 3.14879184634449E-0001	
 1.61450000000000E+0003	 3.24335705931433E-0001	
 1.61650000000000E+0003	 3.36503727228418E-0001	
 1.61850000000000E+0003	 3.48536248525403E-0001	
 1.62050000000000E+0003	 3.60132769822387E-0001	
 1.62250000000000E+0003	 3.73738791119372E-0001	
 1.62450000000000E+0003	 3.87846312416357E-0001	
 1.62650000000000E+0003	 4.01683333713342E-0001	
 1.62850000000000E+0003	 4.16280855010326E-0001	
 1.63050000000000E+0003	 4.29921376307311E-0001	
 1.63250000000000E+0003	 4.41085397604296E-0001	
 1.63450000000000E+0003	 4.51790918901280E-0001	
 1.63650000000000E+0003	 4.62311940198265E-0001	
 1.63850000000000E+0003	 4.71539961495250E-0001	
 1.64050000000000E+0003	 4.80372482792235E-0001	
 1.64250000000000E+0003	 4.86667504089219E-0001	
 1.64450000000000E+0003	 4.91112025386204E-0001	
 1.64650000000000E+0003	 4.95040046683189E-0001	
 1.64850000000000E+0003	 4.98480067980173E-0001	
 1.65050000000000E+0003	 5.03345589277158E-0001	
 1.65250000000000E+0003	 5.09296110574143E-0001	
 1.65450000000000E+0003	 5.10545631871128E-0001	
 1.65650000000000E+0003	 5.11187153168112E-0001	
 1.65850000000000E+0003	 5.11732674465097E-0001	
 1.66050000000000E+0003	 5.07697195762082E-0001	
 1.66250000000000E+0003	 5.01109217059067E-0001	
 1.66450000000000E+0003	 4.92753238356051E-0001	
 1.66650000000000E+0003	 4.85049259653036E-0001	
 1.66850000000000E+0003	 4.76485780950021E-0001	
 1.67050000000000E+0003	 4.66148802247005E-0001	
 1.67250000000000E+0003	 4.57483823543990E-0001	
 1.67450000000000E+0003	 4.50950844840975E-0001	
 1.67650000000000E+0003	 4.41850366137960E-0001	
 1.67850000000000E+0003	 4.33569887434944E-0001	
 1.68050000000000E+0003	 4.25336408731929E-0001	
 1.68250000000000E+0003	 4.16744930028914E-0001	
 1.68450000000000E+0003	 4.07959451325898E-0001	
 1.68650000000000E+0003	 3.98107972622883E-0001	
 1.68850000000000E+0003	 3.91485493919868E-0001	
 1.69050000000000E+0003	 3.84393515216853E-0001	
 1.69250000000000E+0003	 3.76099536513837E-0001	
 1.69450000000000E+0003	 3.69163057810822E-0001	
 1.69650000000000E+0003	 3.58052079107807E-0001	
 1.69850000000000E+0003	 3.48128100404791E-0001	
 1.70050000000000E+0003	 3.42014121701776E-0001	
 1.70250000000000E+0003	 3.33266142998761E-0001	
 1.70450000000000E+0003	 3.29362664295746E-0001	
 1.70650000000000E+0003	 3.25684685592730E-0001	
 1.70850000000000E+0003	 3.21970206889715E-0001	
 1.71050000000000E+0003	 3.18349728186700E-0001	
 1.71250000000000E+0003	 3.13031249483684E-0001	
 1.71450000000000E+0003	 3.05718770780669E-0001	
 1.71650000000000E+0003	 2.96420792077654E-0001	
 1.71850000000000E+0003	 2.84339313374639E-0001	
 1.72050000000000E+0003	 2.72575834671623E-0001	
 1.72250000000000E+0003	 2.63714355968608E-0001	
 1.72450000000000E+0003	 2.54514877265593E-0001	
 1.72650000000000E+0003	 2.46501898562577E-0001	
 1.72850000000000E+0003	 2.40153419859562E-0001	
 1.73050000000000E+0003	 2.34582941156547E-0001	
 1.73250000000000E+0003	 2.31571962453532E-0001	
 1.73450000000000E+0003	 2.29216483750516E-0001	
 1.73650000000000E+0003	 2.25687005047501E-0001	
 1.73850000000000E+0003	 2.26100526344486E-0001	
 1.74050000000000E+0003	 2.26133047641470E-0001	
 1.74250000000000E+0003	 2.25497068938455E-0001	
 1.74450000000000E+0003	 2.25340590235440E-0001	
 1.74650000000000E+0003	 2.24049111532425E-0001	
 1.74850000000000E+0003	 2.21790632829409E-0001	
 1.75050000000000E+0003	 2.19489654126394E-0001	
 1.75250000000000E+0003	 2.15864675423379E-0001	
 1.75450000000000E+0003	 2.11167196720363E-0001	
 1.75650000000000E+0003	 2.06171218017348E-0001	
 1.75850000000000E+0003	 1.99330739314333E-0001	
 1.76050000000000E+0003	 1.93560260611318E-0001	
 1.76250000000000E+0003	 1.87639781908302E-0001	
 1.76450000000000E+0003	 1.81990803205287E-0001	
 1.76650000000000E+0003	 1.77901824502272E-0001	
 1.76850000000000E+0003	 1.72489345799257E-0001	
 1.77050000000000E+0003	 1.67265367096241E-0001	
 1.77250000000000E+0003	 1.63846388393226E-0001	
 1.77450000000000E+0003	 1.60468409690211E-0001	
 1.77650000000000E+0003	 1.58973430987195E-0001	
 1.77850000000000E+0003	 1.57405952284180E-0001	
 1.78050000000000E+0003	 1.55309973581165E-0001	
 1.78250000000000E+0003	 1.53231494878150E-0001	
 1.78450000000000E+0003	 1.52008516175134E-0001	
 1.78650000000000E+0003	 1.50432537472119E-0001	
 1.78850000000000E+0003	 1.48561558769104E-0001	
 1.79050000000000E+0003	 1.46791080066088E-0001	
 1.79250000000000E+0003	 1.45002101363073E-0001	
 1.79450000000000E+0003	 1.43358122660058E-0001	
 1.79650000000000E+0003	 1.42881643957043E-0001	
 1.79850000000000E+0003	 1.42118165254027E-0001	
 1.80050000000000E+0003	 1.40805186551012E-0001	
 1.80250000000000E+0003	 1.39775207847997E-0001	
 1.80450000000000E+0003	 1.39378229144981E-0001	
 1.80650000000000E+0003	 1.38830750441966E-0001	
 1.80850000000000E+0003	 1.37758271738951E-0001	
 1.81050000000000E+0003	 1.36665293035936E-0001	
 1.81250000000000E+0003	 1.35876814332920E-0001	
 1.81450000000000E+0003	 1.35433335629905E-0001	
 1.81650000000000E+0003	 1.35002356926890E-0001	
 1.81850000000000E+0003	 1.34237378223874E-0001	
 1.82050000000000E+0003	 1.33447899520859E-0001	
 1.82250000000000E+0003	 1.32358420817844E-0001	
 1.82450000000000E+0003	 1.31334442114829E-0001	
 1.82650000000000E+0003	 1.29812463411813E-0001	
 1.82850000000000E+0003	 1.28953484708798E-0001	
 1.83050000000000E+0003	 1.28631006005783E-0001	
 1.83250000000000E+0003	 1.28419027302767E-0001	
 1.83450000000000E+0003	 1.28871548599752E-0001	
 1.83650000000000E+0003	 1.28598569896737E-0001	
 1.83850000000000E+0003	 1.28086591193722E-0001	
 1.84050000000000E+0003	 1.27195112490706E-0001	
 1.84250000000000E+0003	 1.26591633787691E-0001	
 1.84450000000000E+0003	 1.25795155084676E-0001	
 1.84650000000000E+0003	 1.24589676381660E-0001	
 1.84850000000000E+0003	 1.25079697678645E-0001	
 1.85050000000000E+0003	 1.25415718975630E-0001	
 1.85250000000000E+0003	 1.25285240272615E-0001	
 1.85450000000000E+0003	 1.24939261569599E-0001	
 1.85650000000000E+0003	 1.24536782866584E-0001	
 1.85850000000000E+0003	 1.24131304163569E-0001	
 1.86050000000000E+0003	 1.23780825460553E-0001	
 1.86250000000000E+0003	 1.23421346757538E-0001	
 1.86450000000000E+0003	 1.22724868054523E-0001	
 1.86650000000000E+0003	 1.21623389351508E-0001	
 1.86850000000000E+0003	 1.20902410648492E-0001	
 1.87050000000000E+0003	 1.20688931945477E-0001	
 1.87250000000000E+0003	 1.21216453242462E-0001	
 1.87450000000000E+0003	 1.21757474539447E-0001	
 1.87650000000000E+0003	 1.21602495836431E-0001	
 1.87850000000000E+0003	 1.21354017133416E-0001	
 1.88050000000000E+0003	 1.21105038430401E-0001	
 1.88250000000000E+0003	 1.20861059727385E-0001	
 1.88450000000000E+0003	 1.20593081024370E-0001	
 1.88650000000000E+0003	 1.20093102321355E-0001	
 1.88850000000000E+0003	 1.19666623618340E-0001	
 1.89050000000000E+0003	 1.19310644915324E-0001	
 1.89250000000000E+0003	 1.19193166212309E-0001	
 1.89450000000000E+0003	 1.19383187509294E-0001	
 1.89650000000000E+0003	 1.19245208806278E-0001	
 1.89850000000000E+0003	 1.19239230103263E-0001	
 1.90050000000000E+0003	 1.19217751400248E-0001	
 1.90250000000000E+0003	 1.19059772697233E-0001	
 1.90450000000000E+0003	 1.18829793994217E-0001	
 1.90650000000000E+0003	 1.18516815291202E-0001	
 1.90850000000000E+0003	 1.18206336588187E-0001	
 1.91050000000000E+0003	 1.18056357885171E-0001	
 1.91250000000000E+0003	 1.18089379182156E-0001	
 1.91450000000000E+0003	 1.17949900479141E-0001	
 1.91650000000000E+0003	 1.17728921776126E-0001	
 1.91850000000000E+0003	 1.17393943073110E-0001	
 1.92050000000000E+0003	 1.16808464370095E-0001	
 1.92250000000000E+0003	 1.17004985667080E-0001	
 1.92450000000000E+0003	 1.17055506964064E-0001	
 1.92650000000000E+0003	 1.17305528261049E-0001	
 1.92850000000000E+0003	 1.17470049558034E-0001	
 1.93050000000000E+0003	 1.17396570855019E-0001	
 1.93250000000000E+0003	 1.17294592152003E-0001	
 1.93450000000000E+0003	 1.17227613448988E-0001	
 1.93650000000000E+0003	 1.17177134745973E-0001	
 1.93850000000000E+0003	 1.16993656042957E-0001	
 1.94050000000000E+0003	 1.16619177339942E-0001	
 1.94250000000000E+0003	 1.16333198636927E-0001	
 1.94450000000000E+0003	 1.16162719933912E-0001	
 1.94650000000000E+0003	 1.16531741230896E-0001	
 1.94850000000000E+0003	 1.16800762527881E-0001	
 1.95050000000000E+0003	 1.16873783824866E-0001	
 1.95250000000000E+0003	 1.16838805121850E-0001	
 1.95450000000000E+0003	 1.16802826418835E-0001	
 1.95650000000000E+0003	 1.16770347715820E-0001	
 1.95850000000000E+0003	 1.16777369012805E-0001	
 1.96050000000000E+0003	 1.16775390309789E-0001	
 1.96250000000000E+0003	 1.16727911606774E-0001	
 1.96450000000000E+0003	 1.16554932903759E-0001	
 1.96650000000000E+0003	 1.16429954200743E-0001	
 1.96850000000000E+0003	 1.16373975497728E-0001	
 1.97050000000000E+0003	 1.16542996794713E-0001	
 1.97250000000000E+0003	 1.16729518091698E-0001	
 1.97450000000000E+0003	 1.16747539388682E-0001	
 1.97650000000000E+0003	 1.16740560685667E-0001	
 1.97850000000000E+0003	 1.16745081982652E-0001	
 1.98050000000000E+0003	 1.16752103279637E-0001	
 1.98250000000000E+0003	 1.16762624576621E-0001	
 1.98450000000000E+0003	 1.16747145873606E-0001	
 1.98650000000000E+0003	 1.16698667170591E-0001	
 1.98850000000000E+0003	 1.16541188467575E-0001	
 1.99050000000000E+0003	 1.16394209764560E-0001	
 1.99250000000000E+0003	 1.16396231061545E-0001	
 1.99450000000000E+0003	 1.16500752358530E-0001	
 1.99650000000000E+0003	 1.16819273655514E-0001	
 1.99850000000000E+0003	 1.16943294952499E-0001	
 2.00050000000000E+0003	 1.16976816249484E-0001	
 2.00250000000000E+0003	 1.17029337546468E-0001	
 2.00450000000000E+0003	 1.17083858843453E-0001	
 2.00650000000000E+0003	 1.17121880140438E-0001	
 2.00850000000000E+0003	 1.17173901437423E-0001	
 2.01050000000000E+0003	 1.17238922734407E-0001	
 2.01250000000000E+0003	 1.17287444031392E-0001	
 2.01450000000000E+0003	 1.17255465328377E-0001	
 2.01650000000000E+0003	 1.17238986625361E-0001	
 2.01850000000000E+0003	 1.17269507922346E-0001	
 2.02050000000000E+0003	 1.17445529219331E-0001	
 2.02250000000000E+0003	 1.17646550516316E-0001	
 2.02450000000000E+0003	 1.17753571813300E-0001	
 2.02650000000000E+0003	 1.17844093110285E-0001	
 2.02850000000000E+0003	 1.17938114407270E-0001	
 2.03050000000000E+0003	 1.18028135704254E-0001	
 2.03250000000000E+0003	 1.18108657001239E-0001	
 2.03450000000000E+0003	 1.18180678298224E-0001	
 2.03650000000000E+0003	 1.18251199595209E-0001	
 2.03850000000000E+0003	 1.18287720892193E-0001	
 2.04050000000000E+0003	 1.18320742189178E-0001	
 2.04250000000000E+0003	 1.18367263486163E-0001	
 2.04450000000000E+0003	 1.18465784783147E-0001	
 2.04650000000000E+0003	 1.18589806080132E-0001	
 2.04850000000000E+0003	 1.18675827377117E-0001	
 2.05050000000000E+0003	 1.18746848674102E-0001	
 2.05250000000000E+0003	 1.18807869971086E-0001	
 2.05450000000000E+0003	 1.18860891268071E-0001	
 2.05650000000000E+0003	 1.18911412565056E-0001	
 2.05850000000000E+0003	 1.18962933862040E-0001	
 2.06050000000000E+0003	 1.18996455159025E-0001	
 2.06250000000000E+0003	 1.18985476456010E-0001	
 2.06450000000000E+0003	 1.18996997752995E-0001	
 2.06650000000000E+0003	 1.19025019049979E-0001	
 2.06850000000000E+0003	 1.19117540346964E-0001	
 2.07050000000000E+0003	 1.19215061643949E-0001	
 2.07250000000000E+0003	 1.19249582940933E-0001	
 2.07450000000000E+0003	 1.19276104237918E-0001	
 2.07650000000000E+0003	 1.19305625534903E-0001	
 2.07850000000000E+0003	 1.19347646831888E-0001	
 2.08050000000000E+0003	 1.19384168128872E-0001	
 2.08250000000000E+0003	 1.19418189425857E-0001	
 2.08450000000000E+0003	 1.19444710722842E-0001	
 2.08650000000000E+0003	 1.19461732019827E-0001	
 2.08850000000000E+0003	 1.19479253316811E-0001	
 2.09050000000000E+0003	 1.19502774613796E-0001	
 2.09250000000000E+0003	 1.19536795910781E-0001	
 2.09450000000000E+0003	 1.19590817207765E-0001	
 2.09650000000000E+0003	 1.19626838504750E-0001	
 2.09850000000000E+0003	 1.19648359801735E-0001	
 2.10050000000000E+0003	 1.19668881098720E-0001	
 2.10250000000000E+0003	 1.19689402395704E-0001	
 2.10450000000000E+0003	 1.19705423692689E-0001	
 2.10650000000000E+0003	 1.19716944989674E-0001	
 2.10850000000000E+0003	 1.19724966286658E-0001	
 2.11050000000000E+0003	 1.19729487583643E-0001	
 2.11250000000000E+0003	 1.19724008880628E-0001	
 2.11450000000000E+0003	 1.19723030177613E-0001	
 2.11650000000000E+0003	 1.19718051474597E-0001	
 2.11850000000000E+0003	 1.19726572771582E-0001	
 2.12050000000000E+0003	 1.19732094068567E-0001	
 2.12250000000000E+0003	 1.19727615365551E-0001	
 2.12450000000000E+0003	 1.19716636662536E-0001	
 2.12650000000000E+0003	 1.19708157959521E-0001	
 2.12850000000000E+0003	 1.19691679256506E-0001	
 2.13050000000000E+0003	 1.19676200553490E-0001	
 2.13250000000000E+0003	 1.19652221850475E-0001	
 2.13450000000000E+0003	 1.19624243147460E-0001	
 2.13650000000000E+0003	 1.19592264444444E-0001	
 2.13850000000000E+0003	 1.19567285741429E-0001	
 2.14050000000000E+0003	 1.19544307038414E-0001	
 2.14250000000000E+0003	 1.19513828335399E-0001	
 2.14450000000000E+0003	 1.19473849632383E-0001	
 2.14650000000000E+0003	 1.19425870929368E-0001	
 2.14850000000000E+0003	 1.19373392226353E-0001	
 2.15050000000000E+0003	 1.19315413523337E-0001	
 2.15250000000000E+0003	 1.19249434820322E-0001	
 2.15450000000000E+0003	 1.19181956117307E-0001	
 2.15650000000000E+0003	 1.19115477414292E-0001	
 2.15850000000000E+0003	 1.19043498711276E-0001	
 2.16050000000000E+0003	 1.18967020008261E-0001	
 2.16250000000000E+0003	 1.18887041305246E-0001	
 2.16450000000000E+0003	 1.18807062602230E-0001	
 2.16650000000000E+0003	 1.18736083899215E-0001	
 2.16850000000000E+0003	 1.18664605196200E-0001	
 2.17050000000000E+0003	 1.18586626493185E-0001	
 2.17250000000000E+0003	 1.18493147790169E-0001	
 2.17450000000000E+0003	 1.18406669087154E-0001	
 2.17650000000000E+0003	 1.18325190384139E-0001	
 2.17850000000000E+0003	 1.18242711681124E-0001	
 2.18050000000000E+0003	 1.18160232978108E-0001	
 2.18250000000000E+0003	 1.18078254275093E-0001	
 2.18450000000000E+0003	 1.17996775572078E-0001	
 2.18650000000000E+0003	 1.17914796869062E-0001	
 2.18850000000000E+0003	 1.17831818166047E-0001	
 2.19050000000000E+0003	 1.17753839463032E-0001	
 2.19250000000000E+0003	 1.17673860760017E-0001	
 2.19450000000000E+0003	 1.17593382057001E-0001	
 2.19650000000000E+0003	 1.17514903353986E-0001	
 2.19850000000000E+0003	 1.17438924650971E-0001	
 2.20050000000000E+0003	 1.17363445947955E-0001	
 2.20250000000000E+0003	 1.17290467244940E-0001	
 2.20450000000000E+0003	 1.17218988541925E-0001	
 2.20650000000000E+0003	 1.17149509838910E-0001	
 2.20850000000000E+0003	 1.17081531135894E-0001	
 2.21050000000000E+0003	 1.17017552432879E-0001	
 2.21250000000000E+0003	 1.16956573729864E-0001	
 2.21450000000000E+0003	 1.16898595026848E-0001	
 2.21650000000000E+0003	 1.16838616323833E-0001	
 2.21850000000000E+0003	 1.16784637620818E-0001	
 2.22050000000000E+0003	 1.16729158917803E-0001	
 2.22250000000000E+0003	 1.16674680214787E-0001	
 2.22450000000000E+0003	 1.16621701511772E-0001	
 2.22650000000000E+0003	 1.16566222808757E-0001	
 2.22850000000000E+0003	 1.16510744105741E-0001	
 2.23050000000000E+0003	 1.16458765402726E-0001	
 2.23250000000000E+0003	 1.16411286699711E-0001	
 2.23450000000000E+0003	 1.16370307996696E-0001	
 2.23650000000000E+0003	 1.16330329293680E-0001	
 2.23850000000000E+0003	 1.16288350590665E-0001	
 2.24050000000000E+0003	 1.16246871887650E-0001	
 2.24250000000000E+0003	 1.16209393184634E-0001	
 2.24450000000000E+0003	 1.16178914481619E-0001	
 2.24650000000000E+0003	 1.16152935778604E-0001	
 2.24850000000000E+0003	 1.16127457075589E-0001	
 2.25050000000000E+0003	 1.16102978372573E-0001	
 2.25250000000000E+0003	 1.16080499669558E-0001	
 2.25450000000000E+0003	 1.16063020966543E-0001	
 2.25650000000000E+0003	 1.16047542263527E-0001	
 2.25850000000000E+0003	 1.16036063560512E-0001	
 2.26050000000000E+0003	 1.16027584857497E-0001	
 2.26250000000000E+0003	 1.16017606154482E-0001	
 2.26450000000000E+0003	 1.16008627451466E-0001	
 2.26650000000000E+0003	 1.16003148748451E-0001	
 2.26850000000000E+0003	 1.16005670045436E-0001	
 2.27050000000000E+0003	 1.16005191342420E-0001	
 2.27250000000000E+0003	 1.15998212639405E-0001	
 2.27450000000000E+0003	 1.15979733936390E-0001	
 2.27650000000000E+0003	 1.15951755233375E-0001	
 2.27850000000000E+0003	 1.15918776530359E-0001	
 2.28050000000000E+0003	 1.15883297827344E-0001	
 2.28250000000000E+0003	 1.15841319124329E-0001	
 2.28450000000000E+0003	 1.15792840421314E-0001	
 2.28650000000000E+0003	 1.15726361718298E-0001	
 2.28850000000000E+0003	 1.15637883015283E-0001	
 2.29050000000000E+0003	 1.15523404312268E-0001	
 2.29250000000000E+0003	 1.15375925609252E-0001	
 2.29450000000000E+0003	 1.15211946906237E-0001	
 2.29650000000000E+0003	 1.15059468203222E-0001	
 2.29850000000000E+0003	 1.14944489500207E-0001	
 2.30050000000000E+0003	 1.14898510797191E-0001	
 2.30250000000000E+0003	 1.14942532094176E-0001	
 2.30450000000000E+0003	 1.14976053391161E-0001	
 2.30650000000000E+0003	 1.14928074688145E-0001	
 2.30850000000000E+0003	 1.14924595985130E-0001	
 2.31050000000000E+0003	 1.15043117282115E-0001	
 2.31250000000000E+0003	 1.15293638579100E-0001	
 2.31450000000000E+0003	 1.15468659876084E-0001	
 2.31650000000000E+0003	 1.15374181173069E-0001	
 2.31850000000000E+0003	 1.15163702470054E-0001	
 2.32050000000000E+0003	 1.14952223767038E-0001	
 2.32250000000000E+0003	 1.14805745064023E-0001	
 2.32450000000000E+0003	 1.14861766361008E-0001	
 2.32650000000000E+0003	 1.15080287657993E-0001	
 2.32850000000000E+0003	 1.15366808954977E-0001	
 2.33050000000000E+0003	 1.15613830251962E-0001	
 2.33250000000000E+0003	 1.15943351548947E-0001	
 2.33450000000000E+0003	 1.16359872845931E-0001	
 2.33650000000000E+0003	 1.16666894142916E-0001	
 2.33850000000000E+0003	 1.16721415439901E-0001	
 2.34050000000000E+0003	 1.16505436736886E-0001	
 2.34250000000000E+0003	 1.16252458033870E-0001	
 2.34450000000000E+0003	 1.16418979330855E-0001	
 2.34650000000000E+0003	 1.16665000627840E-0001	
 2.34850000000000E+0003	 1.16591521924824E-0001	
 2.35050000000000E+0003	 1.16869543221809E-0001	
 2.35250000000000E+0003	 1.17265564518794E-0001	
 2.35450000000000E+0003	 1.17109085815779E-0001	
 2.35650000000000E+0003	 1.16905107112763E-0001	
 2.35850000000000E+0003	 1.17097128409748E-0001	
 2.36050000000000E+0003	 1.17519649706733E-0001	
 2.36250000000000E+0003	 1.17804671003717E-0001	
 2.36450000000000E+0003	 1.17823192300702E-0001	
 2.36650000000000E+0003	 1.17748713597687E-0001	
 2.36850000000000E+0003	 1.17678734894672E-0001	
 2.37050000000000E+0003	 1.17818256191656E-0001	
 2.37250000000000E+0003	 1.18363777488641E-0001	
 2.37450000000000E+0003	 1.19095798785626E-0001	
 2.37650000000000E+0003	 1.19346820082610E-0001	
 2.37850000000000E+0003	 1.18879341379595E-0001	
 2.38050000000000E+0003	 1.18237362676580E-0001	
 2.38250000000000E+0003	 1.18040383973565E-0001	
 2.38450000000000E+0003	 1.18351905270549E-0001	
 2.38650000000000E+0003	 1.18855926567534E-0001	
 2.38850000000000E+0003	 1.19287447864519E-0001	
 2.39050000000000E+0003	 1.19582969161504E-0001	
 2.39250000000000E+0003	 1.19790490458488E-0001	
 2.39450000000000E+0003	 1.19955011755473E-0001	
 2.39650000000000E+0003	 1.20104033052458E-0001	
 2.39850000000000E+0003	 1.20256054349442E-0001	
 2.40050000000000E+0003	 1.20418075646427E-0001	
 2.40250000000000E+0003	 1.20581096943412E-0001	
 2.40450000000000E+0003	 1.20745618240397E-0001	
 2.40650000000000E+0003	 1.20913639537381E-0001	
 2.40850000000000E+0003	 1.21083160834366E-0001	
 2.41050000000000E+0003	 1.21255682131351E-0001	
 2.41250000000000E+0003	 1.21435203428335E-0001	
 2.41450000000000E+0003	 1.21619224725320E-0001	
 2.41650000000000E+0003	 1.21807246022305E-0001	
 2.41850000000000E+0003	 1.21998767319290E-0001	
 2.42050000000000E+0003	 1.22198288616274E-0001	
 2.42250000000000E+0003	 1.22401809913259E-0001	
 2.42450000000000E+0003	 1.22609331210244E-0001	
 2.42650000000000E+0003	 1.22823352507228E-0001	
 2.42850000000000E+0003	 1.23042373804213E-0001	
 2.43050000000000E+0003	 1.23262395101198E-0001	
 2.43250000000000E+0003	 1.23485916398183E-0001	
 2.43450000000000E+0003	 1.23713937695167E-0001	
 2.43650000000000E+0003	 1.23949458992152E-0001	
 2.43850000000000E+0003	 1.24184980289137E-0001	
 2.44050000000000E+0003	 1.24422001586121E-0001	
 2.44250000000000E+0003	 1.24659522883106E-0001	
 2.44450000000000E+0003	 1.24896544180091E-0001	
 2.44650000000000E+0003	 1.25131065477076E-0001	
 2.44850000000000E+0003	 1.25368586774060E-0001	
 2.45050000000000E+0003	 1.25606608071045E-0001	
 2.45250000000000E+0003	 1.25848129368030E-0001	
 2.45450000000000E+0003	 1.26091150665014E-0001	
 2.45650000000000E+0003	 1.26339671961999E-0001	
 2.45850000000000E+0003	 1.26595193258984E-0001	
 2.46050000000000E+0003	 1.26854714555969E-0001	
 2.46250000000000E+0003	 1.27117235852953E-0001	
 2.46450000000000E+0003	 1.27386257149938E-0001	
 2.46650000000000E+0003	 1.27658778446923E-0001	
 2.46850000000000E+0003	 1.27935299743907E-0001	
 2.47050000000000E+0003	 1.28218321040892E-0001	
 2.47250000000000E+0003	 1.28508842337877E-0001	
 2.47450000000000E+0003	 1.28804363634862E-0001	
 2.47650000000000E+0003	 1.29102884931846E-0001	
 2.47850000000000E+0003	 1.29399406228831E-0001	
 2.48050000000000E+0003	 1.29698427525816E-0001	
 2.48250000000000E+0003	 1.29999448822800E-0001	
 2.48450000000000E+0003	 1.30306970119785E-0001	
 2.48650000000000E+0003	 1.30613491416770E-0001	
 2.48850000000000E+0003	 1.30920512713755E-0001	
 2.49050000000000E+0003	 1.31236034010739E-0001	
 2.49250000000000E+0003	 1.31557055307724E-0001	
 2.49450000000000E+0003	 1.31876076604709E-0001	
 2.49650000000000E+0003	 1.32199597901694E-0001	
 2.49850000000000E+0003	 1.32526119198678E-0001	
 2.50050000000000E+0003	 1.32853640495663E-0001	
 2.50250000000000E+0003	 1.33180161792648E-0001	
 2.50450000000000E+0003	 1.33509683089632E-0001	
 2.50650000000000E+0003	 1.33839704386617E-0001	
 2.50850000000000E+0003	 1.34167725683602E-0001	
 2.51050000000000E+0003	 1.34494246980587E-0001	
 2.51250000000000E+0003	 1.34820768277571E-0001	
 2.51450000000000E+0003	 1.35140289574556E-0001	
 2.51650000000000E+0003	 1.35447810871541E-0001	
 2.51850000000000E+0003	 1.35751832168525E-0001	
 2.52050000000000E+0003	 1.36055853465510E-0001	
 2.52250000000000E+0003	 1.36349874762495E-0001	
 2.52450000000000E+0003	 1.36638896059480E-0001	
 2.52650000000000E+0003	 1.36927917356464E-0001	
 2.52850000000000E+0003	 1.37212438653449E-0001	
 2.53050000000000E+0003	 1.37486959950434E-0001	
 2.53250000000000E+0003	 1.37757481247418E-0001	
 2.53450000000000E+0003	 1.38024002544403E-0001	
 2.53650000000000E+0003	 1.38286523841388E-0001	
 2.53850000000000E+0003	 1.38536045138373E-0001	
 2.54050000000000E+0003	 1.38777566435357E-0001	
 2.54250000000000E+0003	 1.39013587732342E-0001	
 2.54450000000000E+0003	 1.39244609029327E-0001	
 2.54650000000000E+0003	 1.39469630326311E-0001	
 2.54850000000000E+0003	 1.39691151623296E-0001	
 2.55050000000000E+0003	 1.39906172920281E-0001	
 2.55250000000000E+0003	 1.40120694217266E-0001	
 2.55450000000000E+0003	 1.40334715514250E-0001	
 2.55650000000000E+0003	 1.40545736811235E-0001	
 2.55850000000000E+0003	 1.40753258108220E-0001	
 2.56050000000000E+0003	 1.40959279405204E-0001	
 2.56250000000000E+0003	 1.41160800702189E-0001	
 2.56450000000000E+0003	 1.41361821999174E-0001	
 2.56650000000000E+0003	 1.41567343296159E-0001	
 2.56850000000000E+0003	 1.41781864593143E-0001	
 2.57050000000000E+0003	 1.42007385890128E-0001	
 2.57250000000000E+0003	 1.42245407187113E-0001	
 2.57450000000000E+0003	 1.42487428484097E-0001	
 2.57650000000000E+0003	 1.42740949781082E-0001	
 2.57850000000000E+0003	 1.43003971078067E-0001	
 2.58050000000000E+0003	 1.43281492375052E-0001	
 2.58250000000000E+0003	 1.43568013672036E-0001	
 2.58450000000000E+0003	 1.43863534969021E-0001	
 2.58650000000000E+0003	 1.44170556266006E-0001	
 2.58850000000000E+0003	 1.44492077562991E-0001	
 2.59050000000000E+0003	 1.44819598859975E-0001	
 2.59250000000000E+0003	 1.45153120156960E-0001	
 2.59450000000000E+0003	 1.45497141453945E-0001	
 2.59650000000000E+0003	 1.45850162750929E-0001	
 2.59850000000000E+0003	 1.46210684047914E-0001	
 2.60050000000000E+0003	 1.46575205344899E-0001	
 2.60250000000000E+0003	 1.46942226641884E-0001	
 2.60450000000000E+0003	 1.47309247938868E-0001	
 2.60650000000000E+0003	 1.47682269235853E-0001	
 2.60850000000000E+0003	 1.48053290532838E-0001	
 2.61050000000000E+0003	 1.48423311829822E-0001	
 2.61250000000000E+0003	 1.48789833126807E-0001	
 2.61450000000000E+0003	 1.49156854423792E-0001	
 2.61650000000000E+0003	 1.49524375720777E-0001	
 2.61850000000000E+0003	 1.49888897017761E-0001	
 2.62050000000000E+0003	 1.50250918314746E-0001	
 2.62250000000000E+0003	 1.50614439611731E-0001	
 2.62450000000000E+0003	 1.50977960908715E-0001	
 2.62650000000000E+0003	 1.51336482205700E-0001	
 2.62850000000000E+0003	 1.51695503502685E-0001	
 2.63050000000000E+0003	 1.52059024799670E-0001	
 2.63250000000000E+0003	 1.52421046096654E-0001	
 2.63450000000000E+0003	 1.52779067393639E-0001	
 2.63650000000000E+0003	 1.53142588690624E-0001	
 2.63850000000000E+0003	 1.53505609987608E-0001	
 2.64050000000000E+0003	 1.53858131284593E-0001	
 2.64250000000000E+0003	 1.54208652581578E-0001	
 2.64450000000000E+0003	 1.54565673878563E-0001	
 2.64650000000000E+0003	 1.54920195175547E-0001	
 2.64850000000000E+0003	 1.55273716472532E-0001	
 2.65050000000000E+0003	 1.55634237769517E-0001	
 2.65250000000000E+0003	 1.55996759066501E-0001	
 2.65450000000000E+0003	 1.56357280363486E-0001	
 2.65650000000000E+0003	 1.56714801660471E-0001	
 2.65850000000000E+0003	 1.57075322957456E-0001	
 2.66050000000000E+0003	 1.57441844254440E-0001	
 2.66250000000000E+0003	 1.57812865551425E-0001	
 2.66450000000000E+0003	 1.58188886848410E-0001	
 2.66650000000000E+0003	 1.58567408145394E-0001	
 2.66850000000000E+0003	 1.58947929442379E-0001	
 2.67050000000000E+0003	 1.59331950739364E-0001	
 2.67250000000000E+0003	 1.59729472036349E-0001	
 2.67450000000000E+0003	 1.60129993333333E-0001	
 2.67650000000000E+0003	 1.60537514630318E-0001	
 2.67850000000000E+0003	 1.60946535927303E-0001	
 2.68050000000000E+0003	 1.61352057224287E-0001	
 2.68250000000000E+0003	 1.61750578521272E-0001	
 2.68450000000000E+0003	 1.62152099818257E-0001	
 2.68650000000000E+0003	 1.62563621115242E-0001	
 2.68850000000000E+0003	 1.62983142412226E-0001	
 2.69050000000000E+0003	 1.63403163709211E-0001	
 2.69250000000000E+0003	 1.63824685006196E-0001	
 2.69450000000000E+0003	 1.64252706303181E-0001	
 2.69650000000000E+0003	 1.64690227600165E-0001	
 2.69850000000000E+0003	 1.65143248897150E-0001	
 2.70050000000000E+0003	 1.65606270194135E-0001	
 2.70250000000000E+0003	 1.66078291491119E-0001	
 2.70450000000000E+0003	 1.66562812788104E-0001	
 2.70650000000000E+0003	 1.67064334085089E-0001	
 2.70850000000000E+0003	 1.67583855382074E-0001	
 2.71050000000000E+0003	 1.68119376679058E-0001	
 2.71250000000000E+0003	 1.68663897976043E-0001	
 2.71450000000000E+0003	 1.69216419273028E-0001	
 2.71650000000000E+0003	 1.69783940570012E-0001	
 2.71850000000000E+0003	 1.70360461866997E-0001	
 2.72050000000000E+0003	 1.70942983163982E-0001	
 2.72250000000000E+0003	 1.71520504460967E-0001	
 2.72450000000000E+0003	 1.72087525757951E-0001	
 2.72650000000000E+0003	 1.72649547054936E-0001	
 2.72850000000000E+0003	 1.73190068351921E-0001	
 2.73050000000000E+0003	 1.73711589648905E-0001	
 2.73250000000000E+0003	 1.74232110945890E-0001	
 2.73450000000000E+0003	 1.74743632242875E-0001	
 2.73650000000000E+0003	 1.75240153539860E-0001	
 2.73850000000000E+0003	 1.75721174836844E-0001	
 2.74050000000000E+0003	 1.76183696133829E-0001	
 2.74250000000000E+0003	 1.76639217430814E-0001	
 2.74450000000000E+0003	 1.77084238727798E-0001	
 2.74650000000000E+0003	 1.77531760024783E-0001	
 2.74850000000000E+0003	 1.77978281321768E-0001	
 2.75050000000000E+0003	 1.78413802618753E-0001	
 2.75250000000000E+0003	 1.78843823915737E-0001	
 2.75450000000000E+0003	 1.79289345212722E-0001	
 2.75650000000000E+0003	 1.79753366509707E-0001	
 2.75850000000000E+0003	 1.80224887806691E-0001	
 2.76050000000000E+0003	 1.80710909103676E-0001	
 2.76250000000000E+0003	 1.81209930400661E-0001	
 2.76450000000000E+0003	 1.81718451697646E-0001	
 2.76650000000000E+0003	 1.82229972994630E-0001	
 2.76850000000000E+0003	 1.82757494291615E-0001	
 2.77050000000000E+0003	 1.83296515588600E-0001	
 2.77250000000000E+0003	 1.83850536885584E-0001	
 2.77450000000000E+0003	 1.84422058182569E-0001	
 2.77650000000000E+0003	 1.85001079479554E-0001	
 2.77850000000000E+0003	 1.85573600776539E-0001	
 2.78050000000000E+0003	 1.86164622073523E-0001	
 2.78250000000000E+0003	 1.86773143370508E-0001	
 2.78450000000000E+0003	 1.87396664667493E-0001	
 2.78650000000000E+0003	 1.88038185964477E-0001	
 2.78850000000000E+0003	 1.88710207261462E-0001	
 2.79050000000000E+0003	 1.89385728558447E-0001	
 2.79250000000000E+0003	 1.90052249855432E-0001	
 2.79450000000000E+0003	 1.90738271152416E-0001	
 2.79650000000000E+0003	 1.91455792449401E-0001	
 2.79850000000000E+0003	 1.92196313746386E-0001	
 2.80050000000000E+0003	 1.92929835043371E-0001	
 2.80250000000000E+0003	 1.93668356340355E-0001	
 2.80450000000000E+0003	 1.94433877637340E-0001	
 2.80650000000000E+0003	 1.95220898934325E-0001	
 2.80850000000000E+0003	 1.96034420231309E-0001	
 2.81050000000000E+0003	 1.96867941528294E-0001	
 2.81250000000000E+0003	 1.97700962825279E-0001	
 2.81450000000000E+0003	 1.98543484122264E-0001	
 2.81650000000000E+0003	 1.99410005419248E-0001	
 2.81850000000000E+0003	 2.00302026716233E-0001	
 2.82050000000000E+0003	 2.01218548013218E-0001	
 2.82250000000000E+0003	 2.02157569310202E-0001	
 2.82450000000000E+0003	 2.03126590607187E-0001	
 2.82650000000000E+0003	 2.04127111904172E-0001	
 2.82850000000000E+0003	 2.05168633201157E-0001	
 2.83050000000000E+0003	 2.06264654498141E-0001	
 2.83250000000000E+0003	 2.07431175795126E-0001	
 2.83450000000000E+0003	 2.08683697092111E-0001	
 2.83650000000000E+0003	 2.10056718389095E-0001	
 2.83850000000000E+0003	 2.11611239686080E-0001	
 2.84050000000000E+0003	 2.13376760983065E-0001	
 2.84250000000000E+0003	 2.15459782280050E-0001	
 2.84450000000000E+0003	 2.18015803577034E-0001	
 2.84650000000000E+0003	 2.21069824874019E-0001	
 2.84850000000000E+0003	 2.24472346171004E-0001	
 2.85050000000000E+0003	 2.27886367467988E-0001	
 2.85250000000000E+0003	 2.30873888764973E-0001	
 2.85450000000000E+0003	 2.33056910061958E-0001	
 2.85650000000000E+0003	 2.34386931358943E-0001	
 2.85850000000000E+0003	 2.35180452655927E-0001	
 2.86050000000000E+0003	 2.35847973952912E-0001	
 2.86250000000000E+0003	 2.36704495249897E-0001	
 2.86450000000000E+0003	 2.37962016546881E-0001	
 2.86650000000000E+0003	 2.39637037843866E-0001	
 2.86850000000000E+0003	 2.41591559140851E-0001	
 2.87050000000000E+0003	 2.43624080437836E-0001	
 2.87250000000000E+0003	 2.45481601734820E-0001	
 2.87450000000000E+0003	 2.46860123031805E-0001	
 2.87650000000000E+0003	 2.47680644328790E-0001	
 2.87850000000000E+0003	 2.48171665625774E-0001	
 2.88050000000000E+0003	 2.48550686922759E-0001	
 2.88250000000000E+0003	 2.48958208219744E-0001	
 2.88450000000000E+0003	 2.49505729516729E-0001	
 2.88650000000000E+0003	 2.50245750813713E-0001	
 2.88850000000000E+0003	 2.51178272110698E-0001	
 2.89050000000000E+0003	 2.52278293407683E-0001	
 2.89250000000000E+0003	 2.53517314704667E-0001	
 2.89450000000000E+0003	 2.54872836001652E-0001	
 2.89650000000000E+0003	 2.56289857298637E-0001	
 2.89850000000000E+0003	 2.57736878595622E-0001	
 2.90050000000000E+0003	 2.59260399892606E-0001	
 2.90250000000000E+0003	 2.60906921189591E-0001	
 2.90450000000000E+0003	 2.62709942486576E-0001	
 2.90650000000000E+0003	 2.64718463783561E-0001	
 2.90850000000000E+0003	 2.67016985080545E-0001	
 2.91050000000000E+0003	 2.69674006377530E-0001	
 2.91250000000000E+0003	 2.72715027674515E-0001	
 2.91450000000000E+0003	 2.76065048971499E-0001	
 2.91650000000000E+0003	 2.79603570268484E-0001	
 2.91850000000000E+0003	 2.83203591565469E-0001	
 2.92050000000000E+0003	 2.86649612862454E-0001	
 2.92250000000000E+0003	 2.89705134159438E-0001	
 2.92450000000000E+0003	 2.92181655456423E-0001	
 2.92650000000000E+0003	 2.94007176753408E-0001	
 2.92850000000000E+0003	 2.95247698050392E-0001	
 2.93050000000000E+0003	 2.95908219347377E-0001	
 2.93250000000000E+0003	 2.95989740644362E-0001	
 2.93450000000000E+0003	 2.95599761941347E-0001	
 2.93650000000000E+0003	 2.94778783238331E-0001	
 2.93850000000000E+0003	 2.93540804535316E-0001	
 2.94050000000000E+0003	 2.92014325832301E-0001	
 2.94250000000000E+0003	 2.90411347129285E-0001	
 2.94450000000000E+0003	 2.88888868426270E-0001	
 2.94650000000000E+0003	 2.87576889723255E-0001	
 2.94850000000000E+0003	 2.86645911020240E-0001	
 2.95050000000000E+0003	 2.86261932317224E-0001	
 2.95250000000000E+0003	 2.86410453614209E-0001	
 2.95450000000000E+0003	 2.86810974911194E-0001	
 2.95650000000000E+0003	 2.87238996208178E-0001	
 2.95850000000000E+0003	 2.87497517505163E-0001	
 2.96050000000000E+0003	 2.87368538802148E-0001	
 2.96250000000000E+0003	 2.86700060099133E-0001	
 2.96450000000000E+0003	 2.85428081396117E-0001	
 2.96650000000000E+0003	 2.83602602693102E-0001	
 2.96850000000000E+0003	 2.81351623990087E-0001	
 2.97050000000000E+0003	 2.78965145287071E-0001	
 2.97250000000000E+0003	 2.76747666584056E-0001	
 2.97450000000000E+0003	 2.74679187881041E-0001	
 2.97650000000000E+0003	 2.72671209178026E-0001	
 2.97850000000000E+0003	 2.70788730475010E-0001	
 2.98050000000000E+0003	 2.69035251771995E-0001	
 2.98250000000000E+0003	 2.67338773068980E-0001	
 2.98450000000000E+0003	 2.65731294365964E-0001	
 2.98650000000000E+0003	 2.64288315662949E-0001	
 2.98850000000000E+0003	 2.63030836959934E-0001	
 2.99050000000000E+0003	 2.61973358256919E-0001	
 2.99250000000000E+0003	 2.61108379553903E-0001	
 2.99450000000000E+0003	 2.60397900850888E-0001	
 2.99650000000000E+0003	 2.59915422147873E-0001	
 2.99850000000000E+0003	 2.59678443444857E-0001	
 3.00050000000000E+0003	 2.59623964741842E-0001	
 3.00250000000000E+0003	 2.59759486038827E-0001	
 3.00450000000000E+0003	 2.60035507335812E-0001	
 3.00650000000000E+0003	 2.60399528632796E-0001	
 3.00850000000000E+0003	 2.60873549929781E-0001	
 3.01050000000000E+0003	 2.61488571226766E-0001	
 3.01250000000000E+0003	 2.62188592523751E-0001	
 3.01450000000000E+0003	 2.62906613820735E-0001	
 3.01650000000000E+0003	 2.63675135117720E-0001	
 3.01850000000000E+0003	 2.64587156414705E-0001	
 3.02050000000000E+0003	 2.65652677711689E-0001	
 3.02250000000000E+0003	 2.66845199008674E-0001	
 3.02450000000000E+0003	 2.68169720305659E-0001	
 3.02650000000000E+0003	 2.69561241602644E-0001	
 3.02850000000000E+0003	 2.70998762899628E-0001	
 3.03050000000000E+0003	 2.72501284196613E-0001	
 3.03250000000000E+0003	 2.74046305493598E-0001	
 3.03450000000000E+0003	 2.75609826790582E-0001	
 3.03650000000000E+0003	 2.77159348087567E-0001	
 3.03850000000000E+0003	 2.78740369384552E-0001	
 3.04050000000000E+0003	 2.80428390681537E-0001	
 3.04250000000000E+0003	 2.82166411978521E-0001	
 3.04450000000000E+0003	 2.83882933275506E-0001	
 3.04650000000000E+0003	 2.85583954572491E-0001	
 3.04850000000000E+0003	 2.87311975869475E-0001	
 3.05050000000000E+0003	 2.89089497166460E-0001	
 3.05250000000000E+0003	 2.90858018463445E-0001	
 3.05450000000000E+0003	 2.92596039760430E-0001	
 3.05650000000000E+0003	 2.94318561057414E-0001	
 3.05850000000000E+0003	 2.95967082354399E-0001	
 3.06050000000000E+0003	 2.97529603651384E-0001	
 3.06250000000000E+0003	 2.99023124948368E-0001	
 3.06450000000000E+0003	 3.00440146245353E-0001	
 3.06650000000000E+0003	 3.01776667542338E-0001	
 3.06850000000000E+0003	 3.03009688839323E-0001	
 3.07050000000000E+0003	 3.04126210136307E-0001	
 3.07250000000000E+0003	 3.05193231433292E-0001	
 3.07450000000000E+0003	 3.06230752730277E-0001	
 3.07650000000000E+0003	 3.07247274027261E-0001	
 3.07850000000000E+0003	 3.08244795324246E-0001	
 3.08050000000000E+0003	 3.09167316621231E-0001	
 3.08250000000000E+0003	 3.10003337918216E-0001	
 3.08450000000000E+0003	 3.10809359215200E-0001	
 3.08650000000000E+0003	 3.11575880512185E-0001	
 3.08850000000000E+0003	 3.12308901809170E-0001	
 3.09050000000000E+0003	 3.13033923106154E-0001	
 3.09250000000000E+0003	 3.13724444403139E-0001	
 3.09450000000000E+0003	 3.14398965700124E-0001	
 3.09650000000000E+0003	 3.15101486997109E-0001	
 3.09850000000000E+0003	 3.15835008294093E-0001	
 3.10050000000000E+0003	 3.16603529591078E-0001	
 3.10250000000000E+0003	 3.17378550888063E-0001	
 3.10450000000000E+0003	 3.18179072185048E-0001	
 3.10650000000000E+0003	 3.19071093482032E-0001	
 3.10850000000000E+0003	 3.20057114779017E-0001	
 3.11050000000000E+0003	 3.21070636076002E-0001	
 3.11250000000000E+0003	 3.22132157372986E-0001	
 3.11450000000000E+0003	 3.23333678669971E-0001	
 3.11650000000000E+0003	 3.24649699966956E-0001	
 3.11850000000000E+0003	 3.25992221263941E-0001	
 3.12050000000000E+0003	 3.27353742560925E-0001	
 3.12250000000000E+0003	 3.28734263857910E-0001	
 3.12450000000000E+0003	 3.30185785154895E-0001	
 3.12650000000000E+0003	 3.31759306451879E-0001	
 3.12850000000000E+0003	 3.33444827748864E-0001	
 3.13050000000000E+0003	 3.35181349045849E-0001	
 3.13250000000000E+0003	 3.36949870342834E-0001	
 3.13450000000000E+0003	 3.38779391639818E-0001	
 3.13650000000000E+0003	 3.40706412936803E-0001	
 3.13850000000000E+0003	 3.42729934233788E-0001	
 3.14050000000000E+0003	 3.44746455530772E-0001	
 3.14250000000000E+0003	 3.46739476827757E-0001	
 3.14450000000000E+0003	 3.48817998124742E-0001	
 3.14650000000000E+0003	 3.50993019421727E-0001	
 3.14850000000000E+0003	 3.53255040718711E-0001	
 3.15050000000000E+0003	 3.55639062015696E-0001	
 3.15250000000000E+0003	 3.58069583312681E-0001	
 3.15450000000000E+0003	 3.60397604609665E-0001	
 3.15650000000000E+0003	 3.62714625906650E-0001	
 3.15850000000000E+0003	 3.65141147203635E-0001	
 3.16050000000000E+0003	 3.67648668500620E-0001	
 3.16250000000000E+0003	 3.70196689797604E-0001	
 3.16450000000000E+0003	 3.72784211094589E-0001	
 3.16650000000000E+0003	 3.75394732391574E-0001	
 3.16850000000000E+0003	 3.78017253688558E-0001	
 3.17050000000000E+0003	 3.80655774985543E-0001	
 3.17250000000000E+0003	 3.83308796282528E-0001	
 3.17450000000000E+0003	 3.85952317579513E-0001	
 3.17650000000000E+0003	 3.88596338876497E-0001	
 3.17850000000000E+0003	 3.91242360173482E-0001	
 3.18050000000000E+0003	 3.93857881470467E-0001	
 3.18250000000000E+0003	 3.96434402767451E-0001	
 3.18450000000000E+0003	 3.98998924064436E-0001	
 3.18650000000000E+0003	 4.01542445361421E-0001	
 3.18850000000000E+0003	 4.04041966658406E-0001	
 3.19050000000000E+0003	 4.06482987955390E-0001	
 3.19250000000000E+0003	 4.08878509252375E-0001	
 3.19450000000000E+0003	 4.11229530549360E-0001	
 3.19650000000000E+0003	 4.13539051846344E-0001	
 3.19850000000000E+0003	 4.15802073143329E-0001	
 3.20050000000000E+0003	 4.18020594440314E-0001	
 3.20250000000000E+0003	 4.20190615737299E-0001	
 3.20450000000000E+0003	 4.22328137034283E-0001	
 3.20650000000000E+0003	 4.24438158331268E-0001	
 3.20850000000000E+0003	 4.26523179628253E-0001	
 3.21050000000000E+0003	 4.28588700925238E-0001	
 3.21250000000000E+0003	 4.30644722222222E-0001	
 3.21450000000000E+0003	 4.32703743519207E-0001	
 3.21650000000000E+0003	 4.34759764816192E-0001	
 3.21850000000000E+0003	 4.36824786113176E-0001	
 3.22050000000000E+0003	 4.38899807410161E-0001	
 3.22250000000000E+0003	 4.40971828707146E-0001	
 3.22450000000000E+0003	 4.43084350004131E-0001	
 3.22650000000000E+0003	 4.45248371301115E-0001	
 3.22850000000000E+0003	 4.47467892598100E-0001	
 3.23050000000000E+0003	 4.49772913895085E-0001	
 3.23250000000000E+0003	 4.52167435192069E-0001	
 3.23450000000000E+0003	 4.54497956489054E-0001	
 3.23650000000000E+0003	 4.56760477786039E-0001	
 3.23850000000000E+0003	 4.59109499083024E-0001	
 3.24050000000000E+0003	 4.61574520380008E-0001	
 3.24250000000000E+0003	 4.64118541676993E-0001	
 3.24450000000000E+0003	 4.66767062973978E-0001	
 3.24650000000000E+0003	 4.69467084270962E-0001	
 3.24850000000000E+0003	 4.72121605567947E-0001	
 3.25050000000000E+0003	 4.74777626864932E-0001	
 3.25250000000000E+0003	 4.77533148161917E-0001	
 3.25450000000000E+0003	 4.80376169458901E-0001	
 3.25650000000000E+0003	 4.83222190755886E-0001	
 3.25850000000000E+0003	 4.86034712052871E-0001	
 3.26050000000000E+0003	 4.88865233349855E-0001	
 3.26250000000000E+0003	 4.91699754646840E-0001	
 3.26450000000000E+0003	 4.94508775943825E-0001	
 3.26650000000000E+0003	 4.97273797240810E-0001	
 3.26850000000000E+0003	 4.99995818537794E-0001	
 3.27050000000000E+0003	 5.02648339834779E-0001	
 3.27250000000000E+0003	 5.05137861131764E-0001	
 3.27450000000000E+0003	 5.07451882428748E-0001	
 3.27650000000000E+0003	 5.09642903725733E-0001	
 3.27850000000000E+0003	 5.11697425022718E-0001	
 3.28050000000000E+0003	 5.13622946319703E-0001	
 3.28250000000000E+0003	 5.15418467616687E-0001	
 3.28450000000000E+0003	 5.17088488913672E-0001	
 3.28650000000000E+0003	 5.18620010210657E-0001	
 3.28850000000000E+0003	 5.20026531507641E-0001	
 3.29050000000000E+0003	 5.21333052804626E-0001	
 3.29250000000000E+0003	 5.22528574101611E-0001	
 3.29450000000000E+0003	 5.23556095398596E-0001	
 3.29650000000000E+0003	 5.24439116695580E-0001	
 3.29850000000000E+0003	 5.25205137992565E-0001	
 3.30050000000000E+0003	 5.25895659289550E-0001	
 3.30250000000000E+0003	 5.26551180586534E-0001	
 3.30450000000000E+0003	 5.27200701883519E-0001	
 3.30650000000000E+0003	 5.27779223180504E-0001	
 3.30850000000000E+0003	 5.28237244477489E-0001	
 3.31050000000000E+0003	 5.28594765774473E-0001	
 3.31250000000000E+0003	 5.28923787071458E-0001	
 3.31450000000000E+0003	 5.29258808368443E-0001	
 3.31650000000000E+0003	 5.29598329665428E-0001	
 3.31850000000000E+0003	 5.29943850962412E-0001	
 3.32050000000000E+0003	 5.30295372259397E-0001	
 3.32250000000000E+0003	 5.30658893556382E-0001	
 3.32450000000000E+0003	 5.31065414853366E-0001	
 3.32650000000000E+0003	 5.31473436150351E-0001	
 3.32850000000000E+0003	 5.31853457447336E-0001	
 3.33050000000000E+0003	 5.32239478744321E-0001	
 3.33250000000000E+0003	 5.32659500041305E-0001	
 3.33450000000000E+0003	 5.33117021338290E-0001	
 3.33650000000000E+0003	 5.33640042635275E-0001	
 3.33850000000000E+0003	 5.34172563932259E-0001	
 3.34050000000000E+0003	 5.34656085229244E-0001	
 3.34250000000000E+0003	 5.35131606526229E-0001	
 3.34450000000000E+0003	 5.35625127823214E-0001	
 3.34650000000000E+0003	 5.36130649120198E-0001	
 3.34850000000000E+0003	 5.36710670417183E-0001	
 3.35050000000000E+0003	 5.37320191714168E-0001	
 3.35250000000000E+0003	 5.37839713011152E-0001	
 3.35450000000000E+0003	 5.38310234308137E-0001	
 3.35650000000000E+0003	 5.38843255605122E-0001	
 3.35850000000000E+0003	 5.39414776902107E-0001	
 3.36050000000000E+0003	 5.39996798199091E-0001	
 3.36250000000000E+0003	 5.40551819496076E-0001	
 3.36450000000000E+0003	 5.41143340793061E-0001	
 3.36650000000000E+0003	 5.41815362090045E-0001	
 3.36850000000000E+0003	 5.42469383387030E-0001	
 3.37050000000000E+0003	 5.42962904684015E-0001	
 3.37250000000000E+0003	 5.43349425981000E-0001	
 3.37450000000000E+0003	 5.43794447277984E-0001	
 3.37650000000000E+0003	 5.44327468574969E-0001	
 3.37850000000000E+0003	 5.44864489871954E-0001	
 3.38050000000000E+0003	 5.45381511168938E-0001	
 3.38250000000000E+0003	 5.45861532465923E-0001	
 3.38450000000000E+0003	 5.46349553762908E-0001	
 3.38650000000000E+0003	 5.46856575059893E-0001	
 3.38850000000000E+0003	 5.47425596356877E-0001	
 3.39050000000000E+0003	 5.48066117653862E-0001	
 3.39250000000000E+0003	 5.48581138950847E-0001	
 3.39450000000000E+0003	 5.48876660247831E-0001	
 3.39650000000000E+0003	 5.49213181544816E-0001	
 3.39850000000000E+0003	 5.49765702841801E-0001	
 3.40050000000000E+0003	 5.50297224138786E-0001	
 3.40250000000000E+0003	 5.50475745435770E-0001	
 3.40450000000000E+0003	 5.50484766732755E-0001	
 3.40650000000000E+0003	 5.50641288029740E-0001	
 3.40850000000000E+0003	 5.50896809326724E-0001	
 3.41050000000000E+0003	 5.51078330623709E-0001	
 3.41250000000000E+0003	 5.51169351920694E-0001	
 3.41450000000000E+0003	 5.51128873217679E-0001	
 3.41650000000000E+0003	 5.50993894514663E-0001	
 3.41850000000000E+0003	 5.50867415811648E-0001	
 3.42050000000000E+0003	 5.50744437108633E-0001	
 3.42250000000000E+0003	 5.50528958405618E-0001	
 3.42450000000000E+0003	 5.50242479702602E-0001	
 3.42650000000000E+0003	 5.49970500999587E-0001	
 3.42850000000000E+0003	 5.49713522296572E-0001	
 3.43050000000000E+0003	 5.49351543593556E-0001	
 3.43250000000000E+0003	 5.48916064890541E-0001	
 3.43450000000000E+0003	 5.48509586187526E-0001	
 3.43650000000000E+0003	 5.47950607484511E-0001	
 3.43850000000000E+0003	 5.47102128781495E-0001	
 3.44050000000000E+0003	 5.46174150078480E-0001	
 3.44250000000000E+0003	 5.45351171375465E-0001	
 3.44450000000000E+0003	 5.44569192672449E-0001	
 3.44650000000000E+0003	 5.43761713969434E-0001	
 3.44850000000000E+0003	 5.42869235266419E-0001	
 3.45050000000000E+0003	 5.41853756563404E-0001	
 3.45250000000000E+0003	 5.40816277860388E-0001	
 3.45450000000000E+0003	 5.39759799157373E-0001	
 3.45650000000000E+0003	 5.38701820454358E-0001	
 3.45850000000000E+0003	 5.37672341751342E-0001	
 3.46050000000000E+0003	 5.36548863048327E-0001	
 3.46250000000000E+0003	 5.35279884345312E-0001	
 3.46450000000000E+0003	 5.34116405642297E-0001	
 3.46650000000000E+0003	 5.33109926939281E-0001	
 3.46850000000000E+0003	 5.31895948236266E-0001	
 3.47050000000000E+0003	 5.30209469533251E-0001	
 3.47250000000000E+0003	 5.28378490830235E-0001	
 3.47450000000000E+0003	 5.26732012127220E-0001	
 3.47650000000000E+0003	 5.25260533424205E-0001	
 3.47850000000000E+0003	 5.23843054721190E-0001	
 3.48050000000000E+0003	 5.22243076018174E-0001	
 3.48250000000000E+0003	 5.20423597315159E-0001	
 3.48450000000000E+0003	 5.18672618612144E-0001	
 3.48650000000000E+0003	 5.16983639909128E-0001	
 3.48850000000000E+0003	 5.15181161206113E-0001	
 3.49050000000000E+0003	 5.13304682503098E-0001	
 3.49250000000000E+0003	 5.11479703800083E-0001	
 3.49450000000000E+0003	 5.09691225097067E-0001	
 3.49650000000000E+0003	 5.07884746394052E-0001	
 3.49850000000000E+0003	 5.05977267691037E-0001	
 3.50050000000000E+0003	 5.04076788988021E-0001	
 3.50250000000000E+0003	 5.02179310285006E-0001	
 3.50450000000000E+0003	 5.00023831581991E-0001	
 3.50650000000000E+0003	 4.97722352878976E-0001	
 3.50850000000000E+0003	 4.95562874175960E-0001	
 3.51050000000000E+0003	 4.93531895472945E-0001	
 3.51250000000000E+0003	 4.91521416769930E-0001	
 3.51450000000000E+0003	 4.89371438066914E-0001	
 3.51650000000000E+0003	 4.87074459363899E-0001	
 3.51850000000000E+0003	 4.84801480660884E-0001	
 3.52050000000000E+0003	 4.82659501957869E-0001	
 3.52250000000000E+0003	 4.80644023254853E-0001	
 3.52450000000000E+0003	 4.78441044551838E-0001	
 3.52650000000000E+0003	 4.75927065848823E-0001	
 3.52850000000000E+0003	 4.73417587145808E-0001	
 3.53050000000000E+0003	 4.70982608442792E-0001	
 3.53250000000000E+0003	 4.68586629739777E-0001	
 3.53450000000000E+0003	 4.66286651036762E-0001	
 3.53650000000000E+0003	 4.63929672333746E-0001	
 3.53850000000000E+0003	 4.61338693630731E-0001	
 3.54050000000000E+0003	 4.58818714927716E-0001	
 3.54250000000000E+0003	 4.56518236224701E-0001	
 3.54450000000000E+0003	 4.54170757521685E-0001	
 3.54650000000000E+0003	 4.51443778818670E-0001	
 3.54850000000000E+0003	 4.48423300115655E-0001	
 3.55050000000000E+0003	 4.45506321412639E-0001	
 3.55250000000000E+0003	 4.42693342709624E-0001	
 3.55450000000000E+0003	 4.39812864006609E-0001	
 3.55650000000000E+0003	 4.36947885303594E-0001	
 3.55850000000000E+0003	 4.34153406600578E-0001	
 3.56050000000000E+0003	 4.31384927897563E-0001	
 3.56250000000000E+0003	 4.28505949194548E-0001	
 3.56450000000000E+0003	 4.25547970491532E-0001	
 3.56650000000000E+0003	 4.22692991788517E-0001	
 3.56850000000000E+0003	 4.19761513085502E-0001	
 3.57050000000000E+0003	 4.16530534382487E-0001	
 3.57250000000000E+0003	 4.13256555679471E-0001	
 3.57450000000000E+0003	 4.10053076976456E-0001	
 3.57650000000000E+0003	 4.06893598273441E-0001	
 3.57850000000000E+0003	 4.03781119570425E-0001	
 3.58050000000000E+0003	 4.00760640867410E-0001	
 3.58250000000000E+0003	 3.97785662164395E-0001	
 3.58450000000000E+0003	 3.94729183461380E-0001	
 3.58650000000000E+0003	 3.91427204758364E-0001	
 3.58850000000000E+0003	 3.87927226055349E-0001	
 3.59050000000000E+0003	 3.84431247352334E-0001	
 3.59250000000000E+0003	 3.81050268649318E-0001	
 3.59450000000000E+0003	 3.77665289946303E-0001	
 3.59650000000000E+0003	 3.74310811243288E-0001	
 3.59850000000000E+0003	 3.71012332540273E-0001	
 3.60050000000000E+0003	 3.67639353837257E-0001	
 3.60250000000000E+0003	 3.64190875134242E-0001	
 3.60450000000000E+0003	 3.60777396431227E-0001	
 3.60650000000000E+0003	 3.57357917728211E-0001	
 3.60850000000000E+0003	 3.53888939025196E-0001	
 3.61050000000000E+0003	 3.50306460322181E-0001	
 3.61250000000000E+0003	 3.46816481619166E-0001	
 3.61450000000000E+0003	 3.43410502916150E-0001	
 3.61650000000000E+0003	 3.39879524213135E-0001	
 3.61850000000000E+0003	 3.36302045510120E-0001	
 3.62050000000000E+0003	 3.32774066807105E-0001	
 3.62250000000000E+0003	 3.29300088104089E-0001	
 3.62450000000000E+0003	 3.25901609401074E-0001	
 3.62650000000000E+0003	 3.22347630698059E-0001	
 3.62850000000000E+0003	 3.18612151995043E-0001	
 3.63050000000000E+0003	 3.14850673292028E-0001	
 3.63250000000000E+0003	 3.11410694589013E-0001	
 3.63450000000000E+0003	 3.08132715885998E-0001	
 3.63650000000000E+0003	 3.04663737182982E-0001	
 3.63850000000000E+0003	 3.01230258479967E-0001	
 3.64050000000000E+0003	 2.97882779776952E-0001	
 3.64250000000000E+0003	 2.94680801073936E-0001	
 3.64450000000000E+0003	 2.91590822370921E-0001	
 3.64650000000000E+0003	 2.88584343667906E-0001	
 3.64850000000000E+0003	 2.85426364964891E-0001	
 3.65050000000000E+0003	 2.82170886261875E-0001	
 3.65250000000000E+0003	 2.78882407558860E-0001	
 3.65450000000000E+0003	 2.75746928855845E-0001	
 3.65650000000000E+0003	 2.72808450152829E-0001	
 3.65850000000000E+0003	 2.69922971449814E-0001	
 3.66050000000000E+0003	 2.67159992746799E-0001	
 3.66250000000000E+0003	 2.64382514043784E-0001	
 3.66450000000000E+0003	 2.61705535340768E-0001	
 3.66650000000000E+0003	 2.59198056637753E-0001	
 3.66850000000000E+0003	 2.56735577934738E-0001	
 3.67050000000000E+0003	 2.54419599231722E-0001	
 3.67250000000000E+0003	 2.52108120528707E-0001	
 3.67450000000000E+0003	 2.50056641825692E-0001	
 3.67650000000000E+0003	 2.48013663122677E-0001	
 3.67850000000000E+0003	 2.45858184419661E-0001	
 3.68050000000000E+0003	 2.44014705716646E-0001	
 3.68250000000000E+0003	 2.42235227013631E-0001	
 3.68450000000000E+0003	 2.40569248310615E-0001	
 3.68650000000000E+0003	 2.39074269607600E-0001	
 3.68850000000000E+0003	 2.37576790904585E-0001	
 3.69050000000000E+0003	 2.35859812201570E-0001	
 3.69250000000000E+0003	 2.34337333498554E-0001	
 3.69450000000000E+0003	 2.32986854795539E-0001	
 3.69650000000000E+0003	 2.31741876092524E-0001	
 3.69850000000000E+0003	 2.30487897389508E-0001	
 3.70050000000000E+0003	 2.29311918686493E-0001	
 3.70250000000000E+0003	 2.28289439983478E-0001	
 3.70450000000000E+0003	 2.27291961280463E-0001	
 3.70650000000000E+0003	 2.26335982577447E-0001	
 3.70850000000000E+0003	 2.25416503874432E-0001	
 3.71050000000000E+0003	 2.24536025171417E-0001	
 3.71250000000000E+0003	 2.23781046468401E-0001	
 3.71450000000000E+0003	 2.22912567765386E-0001	
 3.71650000000000E+0003	 2.22068089062371E-0001	
 3.71850000000000E+0003	 2.21345110359356E-0001	
 3.72050000000000E+0003	 2.20645131656340E-0001	
 3.72250000000000E+0003	 2.20015652953325E-0001	
 3.72450000000000E+0003	 2.19342174250310E-0001	
 3.72650000000000E+0003	 2.18718195547295E-0001	
 3.72850000000000E+0003	 2.18049216844279E-0001	
 3.73050000000000E+0003	 2.17486238141264E-0001	
 3.73250000000000E+0003	 2.17042759438249E-0001	
 3.73450000000000E+0003	 2.16541280735233E-0001	
 3.73650000000000E+0003	 2.16201802032218E-0001	
 3.73850000000000E+0003	 2.15701323329203E-0001	
 3.74050000000000E+0003	 2.15041844626188E-0001	
 3.74250000000000E+0003	 2.14256865923172E-0001	
 3.74450000000000E+0003	 2.13846887220157E-0001	
 3.74650000000000E+0003	 2.13365908517142E-0001	
 3.74850000000000E+0003	 2.12900929814126E-0001	
 3.75050000000000E+0003	 2.12483451111111E-0001	
 3.75250000000000E+0003	 2.12037972408096E-0001	
 3.75450000000000E+0003	 2.11491993705081E-0001	
 3.75650000000000E+0003	 2.10990515002065E-0001	
 3.75850000000000E+0003	 2.10586536299050E-0001	
 3.76050000000000E+0003	 2.10227057596035E-0001	
 3.76250000000000E+0003	 2.09741078893019E-0001	
 3.76450000000000E+0003	 2.09330100190004E-0001	
 3.76650000000000E+0003	 2.08987121486989E-0001	
 3.76850000000000E+0003	 2.08589642783974E-0001	
 3.77050000000000E+0003	 2.08255664080958E-0001	
 3.77250000000000E+0003	 2.07813185377943E-0001	
 3.77450000000000E+0003	 2.07421206674928E-0001	
 3.77650000000000E+0003	 2.07098227971912E-0001	
 3.77850000000000E+0003	 2.06865749268897E-0001	
 3.78050000000000E+0003	 2.06610770565882E-0001	
 3.78250000000000E+0003	 2.06181791862867E-0001	
 3.78450000000000E+0003	 2.05815313159851E-0001	
 3.78650000000000E+0003	 2.05509834456836E-0001	
 3.78850000000000E+0003	 2.05193855753821E-0001	
 3.79050000000000E+0003	 2.04918377050805E-0001	
 3.79250000000000E+0003	 2.04665398347790E-0001	
 3.79450000000000E+0003	 2.04396919644775E-0001	
 3.79650000000000E+0003	 2.04255940941760E-0001	
 3.79850000000000E+0003	 2.03921962238744E-0001	
 3.80050000000000E+0003	 2.03601483535729E-0001	
 3.80250000000000E+0003	 2.03513504832714E-0001	
 3.80450000000000E+0003	 2.03178026129698E-0001	
 3.80650000000000E+0003	 2.02940047426683E-0001	
 3.80850000000000E+0003	 2.02674068723668E-0001	
 3.81050000000000E+0003	 2.02410090020653E-0001	
 3.81250000000000E+0003	 2.02203611317637E-0001	
 3.81450000000000E+0003	 2.01986132614622E-0001	
 3.81650000000000E+0003	 2.01924153911607E-0001	
 3.81850000000000E+0003	 2.01579675208591E-0001	
 3.82050000000000E+0003	 2.01410696505576E-0001	
 3.82250000000000E+0003	 2.01362717802561E-0001	
 3.82450000000000E+0003	 2.01053739099546E-0001	
 3.82650000000000E+0003	 2.00892760396530E-0001	
 3.82850000000000E+0003	 2.00718781693515E-0001	
 3.83050000000000E+0003	 2.00494302990500E-0001	
 3.83250000000000E+0003	 2.00307824287485E-0001	
 3.83450000000000E+0003	 2.00111845584469E-0001	
 3.83650000000000E+0003	 1.99948366881454E-0001	
 3.83850000000000E+0003	 1.99820388178439E-0001	
 3.84050000000000E+0003	 1.99689409475423E-0001	
 3.84250000000000E+0003	 1.99614930772408E-0001	
 3.84450000000000E+0003	 1.99520952069393E-0001	
 3.84650000000000E+0003	 1.99367973366378E-0001	
 3.84850000000000E+0003	 1.99226494663362E-0001	
 3.85050000000000E+0003	 1.98945515960347E-0001	
 3.85250000000000E+0003	 1.98431537257332E-0001	
 3.85450000000000E+0003	 1.98138058554316E-0001	
 3.85650000000000E+0003	 1.98149579851301E-0001	
 3.85850000000000E+0003	 1.98345101148286E-0001	
 3.86050000000000E+0003	 1.98365622445271E-0001	
 3.86250000000000E+0003	 1.98144143742255E-0001	
 3.86450000000000E+0003	 1.98065665039240E-0001	
 3.86650000000000E+0003	 1.97966686336225E-0001	
 3.86850000000000E+0003	 1.97798707633209E-0001	
 3.87050000000000E+0003	 1.97766728930194E-0001	
 3.87250000000000E+0003	 1.97554750227179E-0001	
 3.87450000000000E+0003	 1.97538271524164E-0001	
 3.87650000000000E+0003	 1.97487292821148E-0001	
 3.87850000000000E+0003	 1.97309814118133E-0001	
 3.88050000000000E+0003	 1.97329335415118E-0001	
 3.88250000000000E+0003	 1.97301856712102E-0001	
 3.88450000000000E+0003	 1.97251378009087E-0001	
 3.88650000000000E+0003	 1.97263899306072E-0001	
 3.88850000000000E+0003	 1.96940920603057E-0001	
 3.89050000000000E+0003	 1.96661941900041E-0001	
 3.89250000000000E+0003	 1.96608963197026E-0001	
 3.89450000000000E+0003	 1.96642984494011E-0001	
 3.89650000000000E+0003	 1.96611005790995E-0001	
 3.89850000000000E+0003	 1.96624027087980E-0001	
 3.90050000000000E+0003	 1.96742548384965E-0001	
 3.90250000000000E+0003	 1.96645069681950E-0001	
 3.90450000000000E+0003	 1.96386590978934E-0001	
 3.90650000000000E+0003	 1.96238612275919E-0001	
 3.90850000000000E+0003	 1.96192633572904E-0001	
 3.91050000000000E+0003	 1.96143154869888E-0001	
 3.91250000000000E+0003	 1.96111176166873E-0001	
 3.91450000000000E+0003	 1.96113197463858E-0001	
 3.91650000000000E+0003	 1.96179218760843E-0001	
 3.91850000000000E+0003	 1.96183240057827E-0001	
 3.92050000000000E+0003	 1.96086261354812E-0001	
 3.92250000000000E+0003	 1.95940782651797E-0001	
 3.92450000000000E+0003	 1.95859803948781E-0001	
 3.92650000000000E+0003	 1.95837825245766E-0001	
 3.92850000000000E+0003	 1.95832346542751E-0001	
 3.93050000000000E+0003	 1.95871367839736E-0001	
 3.93250000000000E+0003	 1.95948889136720E-0001	
 3.93450000000000E+0003	 1.95891910433705E-0001	
 3.93650000000000E+0003	 1.95749431730690E-0001	
 3.93850000000000E+0003	 1.95658953027675E-0001	
 3.94050000000000E+0003	 1.95587474324659E-0001	
 3.94250000000000E+0003	 1.95579495621644E-0001	
 3.94450000000000E+0003	 1.95616516918629E-0001	
 3.94650000000000E+0003	 1.95614038215613E-0001	
 3.94850000000000E+0003	 1.95563559512598E-0001	
 3.95050000000000E+0003	 1.95477080809583E-0001	
 3.95250000000000E+0003	 1.95408602106568E-0001	
 3.95450000000000E+0003	 1.95370623403552E-0001	
 3.95650000000000E+0003	 1.95346644700537E-0001	
 3.95850000000000E+0003	 1.95326165997522E-0001	
 3.96050000000000E+0003	 1.95311687294506E-0001	
 3.96250000000000E+0003	 1.95300708591491E-0001	
 3.96450000000000E+0003	 1.95266229888476E-0001	
 3.96650000000000E+0003	 1.95219251185461E-0001	
 3.96850000000000E+0003	 1.95186772482445E-0001	
 3.97050000000000E+0003	 1.95163293779430E-0001	
 3.97250000000000E+0003	 1.95144315076415E-0001	
 3.97450000000000E+0003	 1.95138836373399E-0001	
 3.97650000000000E+0003	 1.95139357670384E-0001	
 3.97850000000000E+0003	 1.95108878967369E-0001	
 3.98050000000000E+0003	 1.95072400264354E-0001	
 3.98250000000000E+0003	 1.95068421561338E-0001	
 3.98450000000000E+0003	 1.95067942858323E-0001	
 3.98650000000000E+0003	 1.95030464155308E-0001	
 3.98850000000000E+0003	 1.94982985452292E-0001	
 3.99050000000000E+0003	 1.94953506749277E-0001	
 3.99250000000000E+0003	 1.94929528046262E-0001	
 3.99450000000000E+0003	 1.94905049343247E-0001	
 3.99650000000000E+0003	 1.94886070640231E-0001	
 3.99850000000000E+0003	 1.94866091937216E-0001	

>1	DATALINE
