*CPCWIN*

>1	DATALINE
DATALINE
1
Operator:

Description:

Remarks:





15.9.2008
11:25


_x	_y
	
	
UNIT	UNIT
 4.50500000000000E+0002	 1.30129886881976E-0001	
 4.52500000000000E+0002	 1.29690578237242E-0001	
 4.54500000000000E+0002	 1.31451269592507E-0001	
 4.56500000000000E+0002	 1.31543460947773E-0001	
 4.58500000000000E+0002	 1.31855152303039E-0001	
 4.60500000000000E+0002	 1.32848843658305E-0001	
 4.62500000000000E+0002	 1.33731035013571E-0001	
 4.64500000000000E+0002	 1.34414726368837E-0001	
 4.66500000000000E+0002	 1.34918417724103E-0001	
 4.68500000000000E+0002	 1.35443109079369E-0001	
 4.70500000000000E+0002	 1.35636300434634E-0001	
 4.72500000000000E+0002	 1.36006491789900E-0001	
 4.74500000000000E+0002	 1.36614683145166E-0001	
 4.76500000000000E+0002	 1.37201874500432E-0001	
 4.78500000000000E+0002	 1.37781565855698E-0001	
 4.80500000000000E+0002	 1.38350257210964E-0001	
 4.82500000000000E+0002	 1.38825448566230E-0001	
 4.84500000000000E+0002	 1.39442139921496E-0001	
 4.86500000000000E+0002	 1.40017331276761E-0001	
 4.88500000000000E+0002	 1.40651522632027E-0001	
 4.90500000000000E+0002	 1.41276713987293E-0001	
 4.92500000000000E+0002	 1.41958905342559E-0001	
 4.94500000000000E+0002	 1.42559096697825E-0001	
 4.96500000000000E+0002	 1.43300788053091E-0001	
 4.98500000000000E+0002	 1.43952479408357E-0001	
 5.00500000000000E+0002	 1.44345170763623E-0001	
 5.02500000000000E+0002	 1.44847862118889E-0001	
 5.04500000000000E+0002	 1.45695553474154E-0001	
 5.06500000000000E+0002	 1.46515744829420E-0001	
 5.08500000000000E+0002	 1.47244936184686E-0001	
 5.10500000000000E+0002	 1.47787627539952E-0001	
 5.12500000000000E+0002	 1.48377318895218E-0001	
 5.14500000000000E+0002	 1.48932010250484E-0001	
 5.16500000000000E+0002	 1.49407701605750E-0001	
 5.18500000000000E+0002	 1.49913892961016E-0001	
 5.20500000000000E+0002	 1.50491084316281E-0001	
 5.22500000000000E+0002	 1.50836775671547E-0001	
 5.24500000000000E+0002	 1.51032467026813E-0001	
 5.26500000000000E+0002	 1.51517658382079E-0001	
 5.28500000000000E+0002	 1.52073849737345E-0001	
 5.30500000000000E+0002	 1.52093541092611E-0001	
 5.32500000000000E+0002	 1.51953732447877E-0001	
 5.34500000000000E+0002	 1.51964423803143E-0001	
 5.36500000000000E+0002	 1.52008115158408E-0001	
 5.38500000000000E+0002	 1.51856806513674E-0001	
 5.40500000000000E+0002	 1.51537997868940E-0001	
 5.42500000000000E+0002	 1.51082689224206E-0001	
 5.44500000000000E+0002	 1.50615880579472E-0001	
 5.46500000000000E+0002	 1.50130071934738E-0001	
 5.48500000000000E+0002	 1.49753263290004E-0001	
 5.50500000000000E+0002	 1.49426454645270E-0001	
 5.52500000000000E+0002	 1.49204146000536E-0001	
 5.54500000000000E+0002	 1.48975837355801E-0001	
 5.56500000000000E+0002	 1.48775028711067E-0001	
 5.58500000000000E+0002	 1.48606220066333E-0001	
 5.60500000000000E+0002	 1.48528911421599E-0001	
 5.62500000000000E+0002	 1.48427602776865E-0001	
 5.64500000000000E+0002	 1.48329794132131E-0001	
 5.66500000000000E+0002	 1.48244485487397E-0001	
 5.68500000000000E+0002	 1.48189176842663E-0001	
 5.70500000000000E+0002	 1.48048368197928E-0001	
 5.72500000000000E+0002	 1.47922059553194E-0001	
 5.74500000000000E+0002	 1.47787250908460E-0001	
 5.76500000000000E+0002	 1.47603942263726E-0001	
 5.78500000000000E+0002	 1.47291133618992E-0001	
 5.80500000000000E+0002	 1.46854324974258E-0001	
 5.82500000000000E+0002	 1.46333516329524E-0001	
 5.84500000000000E+0002	 1.45841207684790E-0001	
 5.86500000000000E+0002	 1.45477399040056E-0001	
 5.88500000000000E+0002	 1.45302090395321E-0001	
 5.90500000000000E+0002	 1.45188281750587E-0001	
 5.92500000000000E+0002	 1.45185973105853E-0001	
 5.94500000000000E+0002	 1.45274664461119E-0001	
 5.96500000000000E+0002	 1.45374355816385E-0001	
 5.98500000000000E+0002	 1.45422047171651E-0001	
 6.00500000000000E+0002	 1.45526238526917E-0001	
 6.02500000000000E+0002	 1.45677429882183E-0001	
 6.04500000000000E+0002	 1.45813121237448E-0001	
 6.06500000000000E+0002	 1.45907812592714E-0001	
 6.08500000000000E+0002	 1.45976003947980E-0001	
 6.10500000000000E+0002	 1.46020195303246E-0001	
 6.12500000000000E+0002	 1.45999386658512E-0001	
 6.14500000000000E+0002	 1.45933578013778E-0001	
 6.16500000000000E+0002	 1.45819769369044E-0001	
 6.18500000000000E+0002	 1.45445460724310E-0001	
 6.20500000000000E+0002	 1.44880152079575E-0001	
 6.22500000000000E+0002	 1.44403843434841E-0001	
 6.24500000000000E+0002	 1.43965034790107E-0001	
 6.26500000000000E+0002	 1.43579726145373E-0001	
 6.28500000000000E+0002	 1.43240417500639E-0001	
 6.30500000000000E+0002	 1.42889608855905E-0001	
 6.32500000000000E+0002	 1.42549300211171E-0001	
 6.34500000000000E+0002	 1.42261991566437E-0001	
 6.36500000000000E+0002	 1.42075682921703E-0001	
 6.38500000000000E+0002	 1.41929874276968E-0001	
 6.40500000000000E+0002	 1.41796065632234E-0001	
 6.42500000000000E+0002	 1.41604256987500E-0001	
 6.44500000000000E+0002	 1.41313948342766E-0001	
 6.46500000000000E+0002	 1.41019139698032E-0001	
 6.48500000000000E+0002	 1.40718831053298E-0001	
 6.50500000000000E+0002	 1.40303022408564E-0001	
 6.52500000000000E+0002	 1.39930213763830E-0001	
 6.54500000000000E+0002	 1.39733905119095E-0001	
 6.56500000000000E+0002	 1.39623096474361E-0001	
 6.58500000000000E+0002	 1.39490787829627E-0001	
 6.60500000000000E+0002	 1.39405979184893E-0001	
 6.62500000000000E+0002	 1.39231670540159E-0001	
 6.64500000000000E+0002	 1.38424861895425E-0001	
 6.66500000000000E+0002	 1.36117553250691E-0001	
 6.68500000000000E+0002	 1.35482244605957E-0001	
 6.70500000000000E+0002	 1.37406435961222E-0001	
 6.72500000000000E+0002	 1.37682127316488E-0001	
 6.74500000000000E+0002	 1.37246818671754E-0001	
 6.76500000000000E+0002	 1.36694510027020E-0001	
 6.78500000000000E+0002	 1.36175201382286E-0001	
 6.80500000000000E+0002	 1.35724892737552E-0001	
 6.82500000000000E+0002	 1.35321584092818E-0001	
 6.84500000000000E+0002	 1.34946275448084E-0001	
 6.86500000000000E+0002	 1.34626966803350E-0001	
 6.88500000000000E+0002	 1.34368658158615E-0001	
 6.90500000000000E+0002	 1.34220849513881E-0001	
 6.92500000000000E+0002	 1.34116540869147E-0001	
 6.94500000000000E+0002	 1.34057232224413E-0001	
 6.96500000000000E+0002	 1.34000423579679E-0001	
 6.98500000000000E+0002	 1.33977614934945E-0001	
 7.00500000000000E+0002	 1.33870806290211E-0001	
 7.02500000000000E+0002	 1.33602997645477E-0001	
 7.04500000000000E+0002	 1.33146689000742E-0001	
 7.06500000000000E+0002	 1.32613880356008E-0001	
 7.08500000000000E+0002	 1.31995571711274E-0001	
 7.10500000000000E+0002	 1.31330263066540E-0001	
 7.12500000000000E+0002	 1.30582954421806E-0001	
 7.14500000000000E+0002	 1.29800645777072E-0001	
 7.16500000000000E+0002	 1.29053337132338E-0001	
 7.18500000000000E+0002	 1.28524028487604E-0001	
 7.20500000000000E+0002	 1.27995719842869E-0001	
 7.22500000000000E+0002	 1.27257411198135E-0001	
 7.24500000000000E+0002	 1.26440602553401E-0001	
 7.26500000000000E+0002	 1.25646293908667E-0001	
 7.28500000000000E+0002	 1.24804485263933E-0001	
 7.30500000000000E+0002	 1.24018176619199E-0001	
 7.32500000000000E+0002	 1.23288867974465E-0001	
 7.34500000000000E+0002	 1.22660059329731E-0001	
 7.36500000000000E+0002	 1.22087250684997E-0001	
 7.38500000000000E+0002	 1.21597942040262E-0001	
 7.40500000000000E+0002	 1.21123633395528E-0001	
 7.42500000000000E+0002	 1.20698824750794E-0001	
 7.44500000000000E+0002	 1.20304016106060E-0001	
 7.46500000000000E+0002	 1.19947207461326E-0001	
 7.48500000000000E+0002	 1.19588398816592E-0001	
 7.50500000000000E+0002	 1.19193090171858E-0001	
 7.52500000000000E+0002	 1.18710281527124E-0001	
 7.54500000000000E+0002	 1.18205472882389E-0001	
 7.56500000000000E+0002	 1.17654664237655E-0001	
 7.58500000000000E+0002	 1.17050855592921E-0001	
 7.60500000000000E+0002	 1.16449546948187E-0001	
 7.62500000000000E+0002	 1.15920738303453E-0001	
 7.64500000000000E+0002	 1.15432429658719E-0001	
 7.66500000000000E+0002	 1.14838121013985E-0001	
 7.68500000000000E+0002	 1.14147312369251E-0001	
 7.70500000000000E+0002	 1.13457503724516E-0001	
 7.72500000000000E+0002	 1.12901695079782E-0001	
 7.74500000000000E+0002	 1.12542386435048E-0001	
 7.76500000000000E+0002	 1.12503077790314E-0001	
 7.78500000000000E+0002	 1.12604769145580E-0001	
 7.80500000000000E+0002	 1.12459460500846E-0001	
 7.82500000000000E+0002	 1.11880651856112E-0001	
 7.84500000000000E+0002	 1.11266843211378E-0001	
 7.86500000000000E+0002	 1.10766534566644E-0001	
 7.88500000000000E+0002	 1.10391225921909E-0001	
 7.90500000000000E+0002	 1.10101917277175E-0001	
 7.92500000000000E+0002	 1.10079108632441E-0001	
 7.94500000000000E+0002	 1.10297299987707E-0001	
 7.96500000000000E+0002	 1.10654991342973E-0001	
 7.98500000000000E+0002	 1.10907682698239E-0001	
 8.00500000000000E+0002	 1.11141374053505E-0001	
 8.02500000000000E+0002	 1.11250065408771E-0001	
 8.04500000000000E+0002	 1.11130256764036E-0001	
 8.06500000000000E+0002	 1.10600448119302E-0001	
 8.08500000000000E+0002	 1.09819139474568E-0001	
 8.10500000000000E+0002	 1.08918830829834E-0001	
 8.12500000000000E+0002	 1.08126022185100E-0001	
 8.14500000000000E+0002	 1.07439213540366E-0001	
 8.16500000000000E+0002	 1.06924404895632E-0001	
 8.18500000000000E+0002	 1.06478596250898E-0001	
 8.20500000000000E+0002	 1.06168787606164E-0001	
 8.22500000000000E+0002	 1.05932978961429E-0001	
 8.24500000000000E+0002	 1.05815170316695E-0001	
 8.26500000000000E+0002	 1.05725861671961E-0001	
 8.28500000000000E+0002	 1.05696553027227E-0001	
 8.30500000000000E+0002	 1.05701744382493E-0001	
 8.32500000000000E+0002	 1.05770935737759E-0001	
 8.34500000000000E+0002	 1.05825627093025E-0001	
 8.36500000000000E+0002	 1.05914818448291E-0001	
 8.38500000000000E+0002	 1.06003009803556E-0001	
 8.40500000000000E+0002	 1.06088701158822E-0001	
 8.42500000000000E+0002	 1.06148392514088E-0001	
 8.44500000000000E+0002	 1.06224083869354E-0001	
 8.46500000000000E+0002	 1.06321275224620E-0001	
 8.48500000000000E+0002	 1.06510966579886E-0001	
 8.50500000000000E+0002	 1.06782157935152E-0001	
 8.52500000000000E+0002	 1.07116849290418E-0001	
 8.54500000000000E+0002	 1.07494040645683E-0001	
 8.56500000000000E+0002	 1.07882232000949E-0001	
 8.58500000000000E+0002	 1.08207923356215E-0001	
 8.60500000000000E+0002	 1.08406614711481E-0001	
 8.62500000000000E+0002	 1.08435806066747E-0001	
 8.64500000000000E+0002	 1.08256997422013E-0001	
 8.66500000000000E+0002	 1.07964188777279E-0001	
 8.68500000000000E+0002	 1.07723380132545E-0001	
 8.70500000000000E+0002	 1.07778071487811E-0001	
 8.72500000000000E+0002	 1.07817762843076E-0001	
 8.74500000000000E+0002	 1.07294454198342E-0001	
 8.76500000000000E+0002	 1.06451645553608E-0001	
 8.78500000000000E+0002	 1.05697336908874E-0001	
 8.80500000000000E+0002	 1.05060528264140E-0001	
 8.82500000000000E+0002	 1.04514719619406E-0001	
 8.84500000000000E+0002	 1.04016910974672E-0001	
 8.86500000000000E+0002	 1.03595102329938E-0001	
 8.88500000000000E+0002	 1.03261293685203E-0001	
 8.90500000000000E+0002	 1.03036485040469E-0001	
 8.92500000000000E+0002	 1.02934676395735E-0001	
 8.94500000000000E+0002	 1.02959367751001E-0001	
 8.96500000000000E+0002	 1.03040059106267E-0001	
 8.98500000000000E+0002	 1.03135250461533E-0001	
 9.00500000000000E+0002	 1.03288941816799E-0001	
 9.02500000000000E+0002	 1.03523633172065E-0001	
 9.04500000000000E+0002	 1.03884324527330E-0001	
 9.06500000000000E+0002	 1.04403515882596E-0001	
 9.08500000000000E+0002	 1.05029207237862E-0001	
 9.10500000000000E+0002	 1.05648398593128E-0001	
 9.12500000000000E+0002	 1.06195089948394E-0001	
 9.14500000000000E+0002	 1.06572281303660E-0001	
 9.16500000000000E+0002	 1.06755972658926E-0001	
 9.18500000000000E+0002	 1.06759164014192E-0001	
 9.20500000000000E+0002	 1.06698855369458E-0001	
 9.22500000000000E+0002	 1.06685546724723E-0001	
 9.24500000000000E+0002	 1.06825238079989E-0001	
 9.26500000000000E+0002	 1.07155429435255E-0001	
 9.28500000000000E+0002	 1.07681620790521E-0001	
 9.30500000000000E+0002	 1.08329812145787E-0001	
 9.32500000000000E+0002	 1.09068003501053E-0001	
 9.34500000000000E+0002	 1.09804194856319E-0001	
 9.36500000000000E+0002	 1.10507386211585E-0001	
 9.38500000000000E+0002	 1.11141577566850E-0001	
 9.40500000000000E+0002	 1.11688768922116E-0001	
 9.42500000000000E+0002	 1.12112460277382E-0001	
 9.44500000000000E+0002	 1.12371151632648E-0001	
 9.46500000000000E+0002	 1.12427842987914E-0001	
 9.48500000000000E+0002	 1.12359534343180E-0001	
 9.50500000000000E+0002	 1.12238725698446E-0001	
 9.52500000000000E+0002	 1.12211917053712E-0001	
 9.54500000000000E+0002	 1.12413108408977E-0001	
 9.56500000000000E+0002	 1.12919299764243E-0001	
 9.58500000000000E+0002	 1.13746491119509E-0001	
 9.60500000000000E+0002	 1.14841682474775E-0001	
 9.62500000000000E+0002	 1.16117873830041E-0001	
 9.64500000000000E+0002	 1.17492065185307E-0001	
 9.66500000000000E+0002	 1.18939756540573E-0001	
 9.68500000000000E+0002	 1.20471447895839E-0001	
 9.70500000000000E+0002	 1.22125139251105E-0001	
 9.72500000000000E+0002	 1.24024830606370E-0001	
 9.74500000000000E+0002	 1.26382521961636E-0001	
 9.76500000000000E+0002	 1.29384213316902E-0001	
 9.78500000000000E+0002	 1.33107904672168E-0001	
 9.80500000000000E+0002	 1.37443096027434E-0001	
 9.82500000000000E+0002	 1.42099287382700E-0001	
 9.84500000000000E+0002	 1.46616478737966E-0001	
 9.86500000000000E+0002	 1.50531670093232E-0001	
 9.88500000000000E+0002	 1.53518361448497E-0001	
 9.90500000000000E+0002	 1.55423552803763E-0001	
 9.92500000000000E+0002	 1.56209244159029E-0001	
 9.94500000000000E+0002	 1.55998935514295E-0001	
 9.96500000000000E+0002	 1.55064626869561E-0001	
 9.98500000000000E+0002	 1.53807318224827E-0001	
 1.00050000000000E+0003	 1.52733009580093E-0001	
 1.00250000000000E+0003	 1.52237200935359E-0001	
 1.00450000000000E+0003	 1.52589392290625E-0001	
 1.00650000000000E+0003	 1.53844083645890E-0001	
 1.00850000000000E+0003	 1.55824775001156E-0001	
 1.01050000000000E+0003	 1.58194466356422E-0001	
 1.01250000000000E+0003	 1.60652157711688E-0001	
 1.01450000000000E+0003	 1.62949349066954E-0001	
 1.01650000000000E+0003	 1.65043540422220E-0001	
 1.01850000000000E+0003	 1.67019731777486E-0001	
 1.02050000000000E+0003	 1.69068923132752E-0001	
 1.02250000000000E+0003	 1.71326614488017E-0001	
 1.02450000000000E+0003	 1.73824305843283E-0001	
 1.02650000000000E+0003	 1.76394497198549E-0001	
 1.02850000000000E+0003	 1.78753188553815E-0001	
 1.03050000000000E+0003	 1.80601879909081E-0001	
 1.03250000000000E+0003	 1.81856571264347E-0001	
 1.03450000000000E+0003	 1.82596262619613E-0001	
 1.03650000000000E+0003	 1.83028453974879E-0001	
 1.03850000000000E+0003	 1.83339145330144E-0001	
 1.04050000000000E+0003	 1.83768836685410E-0001	
 1.04250000000000E+0003	 1.84442528040676E-0001	
 1.04450000000000E+0003	 1.85365219395942E-0001	
 1.04650000000000E+0003	 1.86409410751208E-0001	
 1.04850000000000E+0003	 1.87412102106474E-0001	
 1.05050000000000E+0003	 1.88105793461740E-0001	
 1.05250000000000E+0003	 1.88370484817006E-0001	
 1.05450000000000E+0003	 1.88314176172272E-0001	
 1.05650000000000E+0003	 1.88142867527537E-0001	
 1.05850000000000E+0003	 1.87942558882803E-0001	
 1.06050000000000E+0003	 1.87698250238069E-0001	
 1.06250000000000E+0003	 1.87394941593335E-0001	
 1.06450000000000E+0003	 1.87127632948601E-0001	
 1.06650000000000E+0003	 1.87093824303867E-0001	
 1.06850000000000E+0003	 1.87439515659133E-0001	
 1.07050000000000E+0003	 1.88100207014399E-0001	
 1.07250000000000E+0003	 1.88926898369664E-0001	
 1.07450000000000E+0003	 1.89719589724930E-0001	
 1.07650000000000E+0003	 1.90247281080196E-0001	
 1.07850000000000E+0003	 1.90275972435462E-0001	
 1.08050000000000E+0003	 1.89708163790728E-0001	
 1.08250000000000E+0003	 1.88611355145994E-0001	
 1.08450000000000E+0003	 1.87111546501260E-0001	
 1.08650000000000E+0003	 1.85337737856526E-0001	
 1.08850000000000E+0003	 1.83440929211791E-0001	
 1.09050000000000E+0003	 1.81583620567057E-0001	
 1.09250000000000E+0003	 1.79913311922323E-0001	
 1.09450000000000E+0003	 1.78536003277589E-0001	
 1.09650000000000E+0003	 1.77511694632855E-0001	
 1.09850000000000E+0003	 1.76769885988121E-0001	
 1.10050000000000E+0003	 1.76210077343387E-0001	
 1.10250000000000E+0003	 1.75731768698653E-0001	
 1.10450000000000E+0003	 1.75248960053919E-0001	
 1.10650000000000E+0003	 1.74690151409184E-0001	
 1.10850000000000E+0003	 1.74070842764450E-0001	
 1.11050000000000E+0003	 1.73392534119716E-0001	
 1.11250000000000E+0003	 1.72634725474982E-0001	
 1.11450000000000E+0003	 1.71669916830248E-0001	
 1.11650000000000E+0003	 1.70415108185514E-0001	
 1.11850000000000E+0003	 1.68831299540780E-0001	
 1.12050000000000E+0003	 1.66945990896046E-0001	
 1.12250000000000E+0003	 1.64809682251311E-0001	
 1.12450000000000E+0003	 1.62517873606577E-0001	
 1.12650000000000E+0003	 1.60066064961843E-0001	
 1.12850000000000E+0003	 1.57542256317109E-0001	
 1.13050000000000E+0003	 1.55016947672375E-0001	
 1.13250000000000E+0003	 1.52637639027641E-0001	
 1.13450000000000E+0003	 1.50527330382907E-0001	
 1.13650000000000E+0003	 1.48831021738173E-0001	
 1.13850000000000E+0003	 1.47667713093438E-0001	
 1.14050000000000E+0003	 1.47178904448704E-0001	
 1.14250000000000E+0003	 1.47317595803970E-0001	
 1.14450000000000E+0003	 1.47928287159236E-0001	
 1.14650000000000E+0003	 1.48656478514502E-0001	
 1.14850000000000E+0003	 1.49157669869768E-0001	
 1.15050000000000E+0003	 1.49119361225034E-0001	
 1.15250000000000E+0003	 1.48411552580300E-0001	
 1.15450000000000E+0003	 1.47031243935566E-0001	
 1.15650000000000E+0003	 1.45163935290831E-0001	
 1.15850000000000E+0003	 1.42979126646097E-0001	
 1.16050000000000E+0003	 1.40698818001363E-0001	
 1.16250000000000E+0003	 1.38452509356629E-0001	
 1.16450000000000E+0003	 1.36354200711895E-0001	
 1.16650000000000E+0003	 1.34435892067161E-0001	
 1.16850000000000E+0003	 1.32771583422427E-0001	
 1.17050000000000E+0003	 1.31320274777693E-0001	
 1.17250000000000E+0003	 1.30048466132958E-0001	
 1.17450000000000E+0003	 1.28859157488224E-0001	
 1.17650000000000E+0003	 1.27769348843490E-0001	
 1.17850000000000E+0003	 1.26851540198756E-0001	
 1.18050000000000E+0003	 1.26252231554022E-0001	
 1.18250000000000E+0003	 1.25986422909288E-0001	
 1.18450000000000E+0003	 1.26141614264554E-0001	
 1.18650000000000E+0003	 1.26759305619820E-0001	
 1.18850000000000E+0003	 1.27872496975086E-0001	
 1.19050000000000E+0003	 1.29425188330351E-0001	
 1.19250000000000E+0003	 1.31420379685617E-0001	
 1.19450000000000E+0003	 1.33743571040883E-0001	
 1.19650000000000E+0003	 1.36338262396149E-0001	
 1.19850000000000E+0003	 1.39046453751415E-0001	
 1.20050000000000E+0003	 1.41743645106681E-0001	
 1.20250000000000E+0003	 1.44243836461947E-0001	
 1.20450000000000E+0003	 1.46480027817213E-0001	
 1.20650000000000E+0003	 1.48342719172478E-0001	
 1.20850000000000E+0003	 1.49861410527744E-0001	
 1.21050000000000E+0003	 1.51165601883010E-0001	
 1.21250000000000E+0003	 1.52564293238276E-0001	
 1.21450000000000E+0003	 1.54246484593542E-0001	
 1.21650000000000E+0003	 1.55901675948808E-0001	
 1.21850000000000E+0003	 1.56549867304074E-0001	
 1.22050000000000E+0003	 1.56393058659340E-0001	
 1.22250000000000E+0003	 1.56636750014605E-0001	
 1.22450000000000E+0003	 1.57471441369871E-0001	
 1.22650000000000E+0003	 1.58308632725137E-0001	
 1.22850000000000E+0003	 1.58947324080403E-0001	
 1.23050000000000E+0003	 1.59254015435669E-0001	
 1.23250000000000E+0003	 1.59230206790935E-0001	
 1.23450000000000E+0003	 1.58879898146201E-0001	
 1.23650000000000E+0003	 1.58308589501467E-0001	
 1.23850000000000E+0003	 1.57556780856733E-0001	
 1.24050000000000E+0003	 1.56725472211998E-0001	
 1.24250000000000E+0003	 1.55807163567264E-0001	
 1.24450000000000E+0003	 1.54840854922530E-0001	
 1.24650000000000E+0003	 1.53774046277796E-0001	
 1.24850000000000E+0003	 1.52642237633062E-0001	
 1.25050000000000E+0003	 1.51427928988328E-0001	
 1.25250000000000E+0003	 1.50174620343594E-0001	
 1.25450000000000E+0003	 1.48888311698860E-0001	
 1.25650000000000E+0003	 1.47618503054125E-0001	
 1.25850000000000E+0003	 1.46325194409391E-0001	
 1.26050000000000E+0003	 1.45001385764657E-0001	
 1.26250000000000E+0003	 1.43571577119923E-0001	
 1.26450000000000E+0003	 1.42094768475189E-0001	
 1.26650000000000E+0003	 1.40629959830455E-0001	
 1.26850000000000E+0003	 1.39279651185721E-0001	
 1.27050000000000E+0003	 1.38073342540987E-0001	
 1.27250000000000E+0003	 1.37034033896252E-0001	
 1.27450000000000E+0003	 1.36085225251518E-0001	
 1.27650000000000E+0003	 1.35256916606784E-0001	
 1.27850000000000E+0003	 1.34516607962050E-0001	
 1.28050000000000E+0003	 1.33863799317316E-0001	
 1.28250000000000E+0003	 1.33191990672582E-0001	
 1.28450000000000E+0003	 1.32478182027848E-0001	
 1.28650000000000E+0003	 1.31734373383114E-0001	
 1.28850000000000E+0003	 1.31077064738380E-0001	
 1.29050000000000E+0003	 1.30508256093645E-0001	
 1.29250000000000E+0003	 1.30049447448911E-0001	
 1.29450000000000E+0003	 1.29664638804177E-0001	
 1.29650000000000E+0003	 1.29425330159443E-0001	
 1.29850000000000E+0003	 1.29320521514709E-0001	
 1.30050000000000E+0003	 1.29361712869975E-0001	
 1.30250000000000E+0003	 1.29470904225241E-0001	
 1.30450000000000E+0003	 1.29634595580507E-0001	
 1.30650000000000E+0003	 1.29784286935772E-0001	
 1.30850000000000E+0003	 1.29982478291038E-0001	
 1.31050000000000E+0003	 1.30157169646304E-0001	
 1.31250000000000E+0003	 1.30365861001570E-0001	
 1.31450000000000E+0003	 1.30543052356836E-0001	
 1.31650000000000E+0003	 1.30645743712102E-0001	
 1.31850000000000E+0003	 1.30656435067368E-0001	
 1.32050000000000E+0003	 1.30632126422634E-0001	
 1.32250000000000E+0003	 1.30490817777899E-0001	
 1.32450000000000E+0003	 1.30347009133165E-0001	
 1.32650000000000E+0003	 1.30178700488431E-0001	
 1.32850000000000E+0003	 1.30082891843697E-0001	
 1.33050000000000E+0003	 1.30006583198963E-0001	
 1.33250000000000E+0003	 1.29972774554229E-0001	
 1.33450000000000E+0003	 1.29831465909495E-0001	
 1.33650000000000E+0003	 1.29616657264761E-0001	
 1.33850000000000E+0003	 1.29418848620027E-0001	
 1.34050000000000E+0003	 1.29387539975292E-0001	
 1.34250000000000E+0003	 1.29274731330558E-0001	
 1.34450000000000E+0003	 1.29060922685824E-0001	
 1.34650000000000E+0003	 1.28754614041090E-0001	
 1.34850000000000E+0003	 1.28526805396356E-0001	
 1.35050000000000E+0003	 1.28335496751622E-0001	
 1.35250000000000E+0003	 1.28186688106888E-0001	
 1.35450000000000E+0003	 1.28057879462154E-0001	
 1.35650000000000E+0003	 1.27988070817419E-0001	
 1.35850000000000E+0003	 1.28027262172685E-0001	
 1.36050000000000E+0003	 1.28363953527951E-0001	
 1.36250000000000E+0003	 1.29277144883217E-0001	
 1.36450000000000E+0003	 1.30993836238483E-0001	
 1.36650000000000E+0003	 1.32739027593749E-0001	
 1.36850000000000E+0003	 1.34325218949015E-0001	
 1.37050000000000E+0003	 1.35787410304281E-0001	
 1.37250000000000E+0003	 1.36909101659547E-0001	
 1.37450000000000E+0003	 1.37973793014812E-0001	
 1.37650000000000E+0003	 1.38870484370078E-0001	
 1.37850000000000E+0003	 1.39413175725344E-0001	
 1.38050000000000E+0003	 1.39758867080610E-0001	
 1.38250000000000E+0003	 1.39979058435876E-0001	
 1.38450000000000E+0003	 1.39970249791142E-0001	
 1.38650000000000E+0003	 1.39688941146408E-0001	
 1.38850000000000E+0003	 1.39506132501674E-0001	
 1.39050000000000E+0003	 1.39531823856939E-0001	
 1.39250000000000E+0003	 1.39674015212205E-0001	
 1.39450000000000E+0003	 1.39807706567471E-0001	
 1.39650000000000E+0003	 1.40079897922737E-0001	
 1.39850000000000E+0003	 1.40422589278003E-0001	
 1.40050000000000E+0003	 1.40820780633269E-0001	
 1.40250000000000E+0003	 1.40942971988535E-0001	
 1.40450000000000E+0003	 1.40621163343801E-0001	
 1.40650000000000E+0003	 1.40275854699066E-0001	
 1.40850000000000E+0003	 1.39877546054332E-0001	
 1.41050000000000E+0003	 1.39398737409598E-0001	
 1.41250000000000E+0003	 1.38892428764864E-0001	
 1.41450000000000E+0003	 1.38316120120130E-0001	
 1.41650000000000E+0003	 1.37476311475396E-0001	
 1.41850000000000E+0003	 1.36866502830662E-0001	
 1.42050000000000E+0003	 1.36296694185928E-0001	
 1.42250000000000E+0003	 1.35846885541194E-0001	
 1.42450000000000E+0003	 1.35363076896459E-0001	
 1.42650000000000E+0003	 1.34732268251725E-0001	
 1.42850000000000E+0003	 1.34000959606991E-0001	
 1.43050000000000E+0003	 1.33541650962257E-0001	
 1.43250000000000E+0003	 1.33418842317523E-0001	
 1.43450000000000E+0003	 1.33309033672789E-0001	
 1.43650000000000E+0003	 1.33065225028055E-0001	
 1.43850000000000E+0003	 1.33913416383321E-0001	
 1.44050000000000E+0003	 1.35163607738586E-0001	
 1.44250000000000E+0003	 1.36095299093852E-0001	
 1.44450000000000E+0003	 1.36677490449118E-0001	
 1.44650000000000E+0003	 1.37155181804384E-0001	
 1.44850000000000E+0003	 1.37663873159650E-0001	
 1.45050000000000E+0003	 1.38423064514916E-0001	
 1.45250000000000E+0003	 1.38995255870182E-0001	
 1.45450000000000E+0003	 1.39145447225448E-0001	
 1.45650000000000E+0003	 1.38642138580713E-0001	
 1.45850000000000E+0003	 1.37828329935979E-0001	
 1.46050000000000E+0003	 1.36888021291245E-0001	
 1.46250000000000E+0003	 1.36130212646511E-0001	
 1.46450000000000E+0003	 1.34553404001777E-0001	
 1.46650000000000E+0003	 1.32929595357043E-0001	
 1.46850000000000E+0003	 1.31308786712309E-0001	
 1.47050000000000E+0003	 1.29102978067575E-0001	
 1.47250000000000E+0003	 1.26266669422841E-0001	
 1.47450000000000E+0003	 1.23503860778106E-0001	
 1.47650000000000E+0003	 1.21459552133372E-0001	
 1.47850000000000E+0003	 1.20415243488638E-0001	
 1.48050000000000E+0003	 1.19772934843904E-0001	
 1.48250000000000E+0003	 1.19299126199170E-0001	
 1.48450000000000E+0003	 1.18999317554436E-0001	
 1.48650000000000E+0003	 1.18880008909702E-0001	
 1.48850000000000E+0003	 1.19021700264968E-0001	
 1.49050000000000E+0003	 1.19856391620233E-0001	
 1.49250000000000E+0003	 1.21457582975499E-0001	
 1.49450000000000E+0003	 1.23712774330765E-0001	
 1.49650000000000E+0003	 1.25591965686031E-0001	
 1.49850000000000E+0003	 1.27104157041297E-0001	
 1.50050000000000E+0003	 1.28853348396563E-0001	
 1.50250000000000E+0003	 1.31172039751829E-0001	
 1.50450000000000E+0003	 1.33138731107095E-0001	
 1.50650000000000E+0003	 1.35528422462360E-0001	
 1.50850000000000E+0003	 1.38401613817626E-0001	
 1.51050000000000E+0003	 1.41309305172892E-0001	
 1.51250000000000E+0003	 1.44782496528158E-0001	
 1.51450000000000E+0003	 1.47818687883424E-0001	
 1.51650000000000E+0003	 1.50600379238690E-0001	
 1.51850000000000E+0003	 1.53206570593956E-0001	
 1.52050000000000E+0003	 1.55760261949222E-0001	
 1.52250000000000E+0003	 1.58176453304488E-0001	
 1.52450000000000E+0003	 1.59896144659753E-0001	
 1.52650000000000E+0003	 1.62363836015019E-0001	
 1.52850000000000E+0003	 1.64898027370285E-0001	
 1.53050000000000E+0003	 1.67120718725551E-0001	
 1.53250000000000E+0003	 1.68979410080817E-0001	
 1.53450000000000E+0003	 1.71229601436083E-0001	
 1.53650000000000E+0003	 1.73491792791349E-0001	
 1.53850000000000E+0003	 1.75797984146615E-0001	
 1.54050000000000E+0003	 1.77667175501880E-0001	
 1.54250000000000E+0003	 1.77708866857146E-0001	
 1.54450000000000E+0003	 1.78267058212412E-0001	
 1.54650000000000E+0003	 1.78791749567678E-0001	
 1.54850000000000E+0003	 1.78746940922944E-0001	
 1.55050000000000E+0003	 1.78036632278210E-0001	
 1.55250000000000E+0003	 1.76878323633476E-0001	
 1.55450000000000E+0003	 1.75009514988742E-0001	
 1.55650000000000E+0003	 1.72339206344007E-0001	
 1.55850000000000E+0003	 1.69396897699273E-0001	
 1.56050000000000E+0003	 1.66501089054539E-0001	
 1.56250000000000E+0003	 1.64537280409805E-0001	
 1.56450000000000E+0003	 1.62870471765071E-0001	
 1.56650000000000E+0003	 1.60631663120337E-0001	
 1.56850000000000E+0003	 1.58566354475603E-0001	
 1.57050000000000E+0003	 1.56551045830869E-0001	
 1.57250000000000E+0003	 1.55100237186135E-0001	
 1.57450000000000E+0003	 1.54512428541400E-0001	
 1.57650000000000E+0003	 1.53503619896666E-0001	
 1.57850000000000E+0003	 1.51101311251932E-0001	
 1.58050000000000E+0003	 1.49694502607198E-0001	
 1.58250000000000E+0003	 1.48735193962464E-0001	
 1.58450000000000E+0003	 1.48112885317730E-0001	
 1.58650000000000E+0003	 1.47709076672996E-0001	
 1.58850000000000E+0003	 1.47723268028262E-0001	
 1.59050000000000E+0003	 1.47980459383527E-0001	
 1.59250000000000E+0003	 1.48662150738793E-0001	
 1.59450000000000E+0003	 1.49552842094059E-0001	
 1.59650000000000E+0003	 1.50751033449325E-0001	
 1.59850000000000E+0003	 1.51990724804591E-0001	
 1.60050000000000E+0003	 1.53609916159857E-0001	
 1.60250000000000E+0003	 1.55444107515123E-0001	
 1.60450000000000E+0003	 1.57620798870389E-0001	
 1.60650000000000E+0003	 1.59987490225655E-0001	
 1.60850000000000E+0003	 1.62897181580920E-0001	
 1.61050000000000E+0003	 1.66057372936186E-0001	
 1.61250000000000E+0003	 1.69641064291452E-0001	
 1.61450000000000E+0003	 1.73539755646718E-0001	
 1.61650000000000E+0003	 1.78464947001984E-0001	
 1.61850000000000E+0003	 1.82555638357250E-0001	
 1.62050000000000E+0003	 1.86226329712516E-0001	
 1.62250000000000E+0003	 1.90689521067782E-0001	
 1.62450000000000E+0003	 1.95698712423047E-0001	
 1.62650000000000E+0003	 2.00472403778313E-0001	
 1.62850000000000E+0003	 2.05547095133579E-0001	
 1.63050000000000E+0003	 2.10393786488845E-0001	
 1.63250000000000E+0003	 2.14430477844111E-0001	
 1.63450000000000E+0003	 2.17815669199377E-0001	
 1.63650000000000E+0003	 2.21708360554643E-0001	
 1.63850000000000E+0003	 2.24525051909909E-0001	
 1.64050000000000E+0003	 2.26982743265174E-0001	
 1.64250000000000E+0003	 2.28905934620440E-0001	
 1.64450000000000E+0003	 2.30298625975706E-0001	
 1.64650000000000E+0003	 2.31648817330972E-0001	
 1.64850000000000E+0003	 2.32969508686238E-0001	
 1.65050000000000E+0003	 2.34695200041504E-0001	
 1.65250000000000E+0003	 2.36355391396770E-0001	
 1.65450000000000E+0003	 2.36589582752036E-0001	
 1.65650000000000E+0003	 2.36260774107302E-0001	
 1.65850000000000E+0003	 2.36347465462567E-0001	
 1.66050000000000E+0003	 2.35319656817833E-0001	
 1.66250000000000E+0003	 2.33556848173099E-0001	
 1.66450000000000E+0003	 2.31406039528365E-0001	
 1.66650000000000E+0003	 2.29169230883631E-0001	
 1.66850000000000E+0003	 2.26569922238897E-0001	
 1.67050000000000E+0003	 2.23789113594163E-0001	
 1.67250000000000E+0003	 2.21314304949429E-0001	
 1.67450000000000E+0003	 2.18776496304694E-0001	
 1.67650000000000E+0003	 2.16084187659960E-0001	
 1.67850000000000E+0003	 2.14100879015226E-0001	
 1.68050000000000E+0003	 2.11989570370492E-0001	
 1.68250000000000E+0003	 2.09476261725758E-0001	
 1.68450000000000E+0003	 2.07366453081024E-0001	
 1.68650000000000E+0003	 2.04080144436290E-0001	
 1.68850000000000E+0003	 2.01230335791556E-0001	
 1.69050000000000E+0003	 1.98573027146821E-0001	
 1.69250000000000E+0003	 1.95560218502087E-0001	
 1.69450000000000E+0003	 1.92821409857353E-0001	
 1.69650000000000E+0003	 1.89222101212619E-0001	
 1.69850000000000E+0003	 1.85010292567885E-0001	
 1.70050000000000E+0003	 1.80287983923151E-0001	
 1.70250000000000E+0003	 1.77191675278417E-0001	
 1.70450000000000E+0003	 1.75736366633683E-0001	
 1.70650000000000E+0003	 1.73574057988949E-0001	
 1.70850000000000E+0003	 1.71351249344214E-0001	
 1.71050000000000E+0003	 1.69575440699480E-0001	
 1.71250000000000E+0003	 1.67485132054746E-0001	
 1.71450000000000E+0003	 1.65601823410012E-0001	
 1.71650000000000E+0003	 1.64137014765278E-0001	
 1.71850000000000E+0003	 1.61655706120544E-0001	
 1.72050000000000E+0003	 1.59013897475810E-0001	
 1.72250000000000E+0003	 1.57658088831076E-0001	
 1.72450000000000E+0003	 1.56087280186341E-0001	
 1.72650000000000E+0003	 1.54345471541607E-0001	
 1.72850000000000E+0003	 1.52626662896873E-0001	
 1.73050000000000E+0003	 1.51271854252139E-0001	
 1.73250000000000E+0003	 1.50662045607405E-0001	
 1.73450000000000E+0003	 1.50277736962671E-0001	
 1.73650000000000E+0003	 1.49837928317937E-0001	
 1.73850000000000E+0003	 1.50050119673203E-0001	
 1.74050000000000E+0003	 1.49849311028468E-0001	
 1.74250000000000E+0003	 1.49419002383734E-0001	
 1.74450000000000E+0003	 1.49096693739000E-0001	
 1.74650000000000E+0003	 1.48288885094266E-0001	
 1.74850000000000E+0003	 1.47047576449532E-0001	
 1.75050000000000E+0003	 1.45469267804798E-0001	
 1.75250000000000E+0003	 1.43571959160064E-0001	
 1.75450000000000E+0003	 1.41550150515330E-0001	
 1.75650000000000E+0003	 1.39083341870596E-0001	
 1.75850000000000E+0003	 1.36321533225861E-0001	
 1.76050000000000E+0003	 1.33577724581127E-0001	
 1.76250000000000E+0003	 1.30629915936393E-0001	
 1.76450000000000E+0003	 1.27632607291659E-0001	
 1.76650000000000E+0003	 1.24983298646925E-0001	
 1.76850000000000E+0003	 1.22180490002191E-0001	
 1.77050000000000E+0003	 1.20081681357457E-0001	
 1.77250000000000E+0003	 1.18488872712723E-0001	
 1.77450000000000E+0003	 1.16351564067988E-0001	
 1.77650000000000E+0003	 1.14679755423254E-0001	
 1.77850000000000E+0003	 1.13376946778520E-0001	
 1.78050000000000E+0003	 1.12111638133786E-0001	
 1.78250000000000E+0003	 1.10903329489052E-0001	
 1.78450000000000E+0003	 1.09721020844318E-0001	
 1.78650000000000E+0003	 1.08788712199584E-0001	
 1.78850000000000E+0003	 1.07841403554850E-0001	
 1.79050000000000E+0003	 1.06837094910116E-0001	
 1.79250000000000E+0003	 1.05925286265381E-0001	
 1.79450000000000E+0003	 1.05152477620647E-0001	
 1.79650000000000E+0003	 1.04636668975913E-0001	
 1.79850000000000E+0003	 1.03919360331179E-0001	
 1.80050000000000E+0003	 1.03000551686445E-0001	
 1.80250000000000E+0003	 1.02424243041711E-0001	
 1.80450000000000E+0003	 1.01994934396977E-0001	
 1.80650000000000E+0003	 1.01525125752243E-0001	
 1.80850000000000E+0003	 1.00887817107508E-0001	
 1.81050000000000E+0003	 1.00336008462774E-0001	
 1.81250000000000E+0003	 9.98061998180402E-0002	
 1.81450000000000E+0003	 9.93308911733061E-0002	
 1.81650000000000E+0003	 9.87805825285720E-0002	
 1.81850000000000E+0003	 9.83262738838378E-0002	
 1.82050000000000E+0003	 9.78664652391037E-0002	
 1.82250000000000E+0003	 9.73031565943696E-0002	
 1.82450000000000E+0003	 9.66293479496355E-0002	
 1.82650000000000E+0003	 9.61345393049014E-0002	
 1.82850000000000E+0003	 9.58577306601672E-0002	
 1.83050000000000E+0003	 9.55844220154331E-0002	
 1.83250000000000E+0003	 9.51131133706990E-0002	
 1.83450000000000E+0003	 9.49708047259649E-0002	
 1.83650000000000E+0003	 9.47554960812308E-0002	
 1.83850000000000E+0003	 9.44216874364966E-0002	
 1.84050000000000E+0003	 9.39313787917625E-0002	
 1.84250000000000E+0003	 9.33980701470284E-0002	
 1.84450000000000E+0003	 9.28752615022943E-0002	
 1.84650000000000E+0003	 9.25469528575602E-0002	
 1.84850000000000E+0003	 9.26546442128260E-0002	
 1.85050000000000E+0003	 9.25788355680919E-0002	
 1.85250000000000E+0003	 9.23485269233578E-0002	
 1.85450000000000E+0003	 9.21087182786237E-0002	
 1.85650000000000E+0003	 9.18389096338896E-0002	
 1.85850000000000E+0003	 9.15886009891554E-0002	
 1.86050000000000E+0003	 9.13192923444213E-0002	
 1.86250000000000E+0003	 9.10654836996872E-0002	
 1.86450000000000E+0003	 9.07821750549531E-0002	
 1.86650000000000E+0003	 9.04748664102190E-0002	
 1.86850000000000E+0003	 9.01880577654848E-0002	
 1.87050000000000E+0003	 8.98407491207507E-0002	
 1.87250000000000E+0003	 8.97589404760166E-0002	
 1.87450000000000E+0003	 8.97996318312825E-0002	
 1.87650000000000E+0003	 8.96528231865484E-0002	
 1.87850000000000E+0003	 8.94765145418142E-0002	
 1.88050000000000E+0003	 8.93027058970801E-0002	
 1.88250000000000E+0003	 8.91348972523460E-0002	
 1.88450000000000E+0003	 8.89860886076119E-0002	
 1.88650000000000E+0003	 8.87452799628778E-0002	
 1.88850000000000E+0003	 8.85019713181436E-0002	
 1.89050000000000E+0003	 8.83491626734095E-0002	
 1.89250000000000E+0003	 8.81973540286754E-0002	
 1.89450000000000E+0003	 8.81660453839413E-0002	
 1.89650000000000E+0003	 8.80737367392072E-0002	
 1.89850000000000E+0003	 8.79124280944730E-0002	
 1.90050000000000E+0003	 8.77971194497389E-0002	
 1.90250000000000E+0003	 8.76723108050048E-0002	
 1.90450000000000E+0003	 8.75485021602707E-0002	
 1.90650000000000E+0003	 8.74001935155366E-0002	
 1.90850000000000E+0003	 8.73073848708024E-0002	
 1.91050000000000E+0003	 8.72005762260683E-0002	
 1.91250000000000E+0003	 8.70397675813342E-0002	
 1.91450000000000E+0003	 8.68354589366001E-0002	
 1.91650000000000E+0003	 8.65776502918660E-0002	
 1.91850000000000E+0003	 8.63648416471319E-0002	
 1.92050000000000E+0003	 8.62740330023977E-0002	
 1.92250000000000E+0003	 8.64182243576636E-0002	
 1.92450000000000E+0003	 8.64249157129295E-0002	
 1.92650000000000E+0003	 8.62856070681954E-0002	
 1.92850000000000E+0003	 8.62317984234613E-0002	
 1.93050000000000E+0003	 8.61534897787271E-0002	
 1.93250000000000E+0003	 8.60891811339930E-0002	
 1.93450000000000E+0003	 8.60078724892589E-0002	
 1.93650000000000E+0003	 8.59245638445248E-0002	
 1.93850000000000E+0003	 8.58072551997907E-0002	
 1.94050000000000E+0003	 8.56324465550565E-0002	
 1.94250000000000E+0003	 8.55746379103224E-0002	
 1.94450000000000E+0003	 8.55753292655883E-0002	
 1.94650000000000E+0003	 8.55905206208542E-0002	
 1.94850000000000E+0003	 8.55722119761201E-0002	
 1.95050000000000E+0003	 8.55114033313859E-0002	
 1.95250000000000E+0003	 8.54710946866518E-0002	
 1.95450000000000E+0003	 8.54307860419177E-0002	
 1.95650000000000E+0003	 8.53934773971836E-0002	
 1.95850000000000E+0003	 8.53511687524495E-0002	
 1.96050000000000E+0003	 8.53168601077153E-0002	
 1.96250000000000E+0003	 8.52590514629812E-0002	
 1.96450000000000E+0003	 8.51767428182471E-0002	
 1.96650000000000E+0003	 8.51639341735130E-0002	
 1.96850000000000E+0003	 8.51531255287789E-0002	
 1.97050000000000E+0003	 8.50913168840447E-0002	
 1.97250000000000E+0003	 8.50760082393106E-0002	
 1.97450000000000E+0003	 8.50561995945765E-0002	
 1.97650000000000E+0003	 8.50268909498424E-0002	
 1.97850000000000E+0003	 8.49950823051083E-0002	
 1.98050000000000E+0003	 8.49682736603741E-0002	
 1.98250000000000E+0003	 8.49469650156400E-0002	
 1.98450000000000E+0003	 8.49101563709059E-0002	
 1.98650000000000E+0003	 8.48803477261718E-0002	
 1.98850000000000E+0003	 8.48390390814377E-0002	
 1.99050000000000E+0003	 8.47747304367035E-0002	
 1.99250000000000E+0003	 8.47829217919694E-0002	
 1.99450000000000E+0003	 8.47951131472353E-0002	
 1.99650000000000E+0003	 8.48103045025012E-0002	
 1.99850000000000E+0003	 8.48379958577671E-0002	
 2.00050000000000E+0003	 8.48296872130329E-0002	
 2.00250000000000E+0003	 8.48208785682988E-0002	
 2.00450000000000E+0003	 8.48095699235647E-0002	
 2.00650000000000E+0003	 8.48142612788306E-0002	
 2.00850000000000E+0003	 8.48224526340965E-0002	
 2.01050000000000E+0003	 8.48381439893623E-0002	
 2.01250000000000E+0003	 8.48333353446282E-0002	
 2.01450000000000E+0003	 8.48150266998941E-0002	
 2.01650000000000E+0003	 8.48327180551600E-0002	
 2.01850000000000E+0003	 8.48784094104259E-0002	
 2.02050000000000E+0003	 8.48921007656918E-0002	
 2.02250000000000E+0003	 8.49242921209576E-0002	
 2.02450000000000E+0003	 8.49524834762235E-0002	
 2.02650000000000E+0003	 8.49841748314894E-0002	
 2.02850000000000E+0003	 8.50073661867553E-0002	
 2.03050000000000E+0003	 8.50325575420212E-0002	
 2.03250000000000E+0003	 8.50552488972870E-0002	
 2.03450000000000E+0003	 8.50804402525529E-0002	
 2.03650000000000E+0003	 8.50976316078188E-0002	
 2.03850000000000E+0003	 8.51063229630847E-0002	
 2.04050000000000E+0003	 8.51240143183506E-0002	
 2.04250000000000E+0003	 8.51647056736164E-0002	
 2.04450000000000E+0003	 8.51853970288823E-0002	
 2.04650000000000E+0003	 8.52070883841482E-0002	
 2.04850000000000E+0003	 8.52257797394141E-0002	
 2.05050000000000E+0003	 8.52494710946800E-0002	
 2.05250000000000E+0003	 8.52671624499458E-0002	
 2.05450000000000E+0003	 8.52788538052117E-0002	
 2.05650000000000E+0003	 8.52885451604776E-0002	
 2.05850000000000E+0003	 8.52997365157435E-0002	
 2.06050000000000E+0003	 8.53099278710094E-0002	
 2.06250000000000E+0003	 8.53021192262752E-0002	
 2.06450000000000E+0003	 8.53158105815411E-0002	
 2.06650000000000E+0003	 8.53435019368070E-0002	
 2.06850000000000E+0003	 8.53431932920729E-0002	
 2.07050000000000E+0003	 8.53438846473388E-0002	
 2.07250000000000E+0003	 8.53470760026046E-0002	
 2.07450000000000E+0003	 8.53557673578705E-0002	
 2.07650000000000E+0003	 8.53634587131364E-0002	
 2.07850000000000E+0003	 8.53641500684023E-0002	
 2.08050000000000E+0003	 8.53648414236682E-0002	
 2.08250000000000E+0003	 8.53680327789340E-0002	
 2.08450000000000E+0003	 8.53767241341999E-0002	
 2.08650000000000E+0003	 8.53744154894658E-0002	
 2.08850000000000E+0003	 8.53731068447317E-0002	
 2.09050000000000E+0003	 8.53857981999976E-0002	
 2.09250000000000E+0003	 8.53979895552634E-0002	
 2.09450000000000E+0003	 8.54001809105293E-0002	
 2.09650000000000E+0003	 8.53998722657952E-0002	
 2.09850000000000E+0003	 8.53975636210611E-0002	
 2.10050000000000E+0003	 8.54002549763270E-0002	
 2.10250000000000E+0003	 8.53954463315928E-0002	
 2.10450000000000E+0003	 8.53931376868587E-0002	
 2.10650000000000E+0003	 8.53913290421246E-0002	
 2.10850000000000E+0003	 8.53830203973905E-0002	
 2.11050000000000E+0003	 8.53717117526564E-0002	
 2.11250000000000E+0003	 8.53659031079223E-0002	
 2.11450000000000E+0003	 8.53635944631881E-0002	
 2.11650000000000E+0003	 8.53607858184540E-0002	
 2.11850000000000E+0003	 8.53474771737199E-0002	
 2.12050000000000E+0003	 8.53326685289858E-0002	
 2.12250000000000E+0003	 8.53203598842517E-0002	
 2.12450000000000E+0003	 8.53095512395175E-0002	
 2.12650000000000E+0003	 8.52887425947834E-0002	
 2.12850000000000E+0003	 8.52634339500493E-0002	
 2.13050000000000E+0003	 8.52391253053152E-0002	
 2.13250000000000E+0003	 8.52123166605811E-0002	
 2.13450000000000E+0003	 8.51820080158469E-0002	
 2.13650000000000E+0003	 8.51506993711128E-0002	
 2.13850000000000E+0003	 8.51153907263787E-0002	
 2.14050000000000E+0003	 8.50795820816446E-0002	
 2.14250000000000E+0003	 8.50402734369105E-0002	
 2.14450000000000E+0003	 8.50034647921763E-0002	
 2.14650000000000E+0003	 8.49661561474422E-0002	
 2.14850000000000E+0003	 8.49248475027081E-0002	
 2.15050000000000E+0003	 8.48835388579740E-0002	
 2.15250000000000E+0003	 8.48407302132399E-0002	
 2.15450000000000E+0003	 8.47904215685057E-0002	
 2.15650000000000E+0003	 8.47446129237716E-0002	
 2.15850000000000E+0003	 8.46963042790375E-0002	
 2.16050000000000E+0003	 8.46449956343034E-0002	
 2.16250000000000E+0003	 8.45896869895693E-0002	
 2.16450000000000E+0003	 8.45363783448351E-0002	
 2.16650000000000E+0003	 8.44880697001010E-0002	
 2.16850000000000E+0003	 8.44497610553669E-0002	
 2.17050000000000E+0003	 8.44009524106328E-0002	
 2.17250000000000E+0003	 8.43401437658987E-0002	
 2.17450000000000E+0003	 8.42803351211645E-0002	
 2.17650000000000E+0003	 8.42300264764304E-0002	
 2.17850000000000E+0003	 8.41787178316963E-0002	
 2.18050000000000E+0003	 8.41249091869622E-0002	
 2.18250000000000E+0003	 8.40641005422281E-0002	
 2.18450000000000E+0003	 8.40057918974939E-0002	
 2.18650000000000E+0003	 8.39494832527598E-0002	
 2.18850000000000E+0003	 8.38956746080257E-0002	
 2.19050000000000E+0003	 8.38448659632916E-0002	
 2.19250000000000E+0003	 8.37965573185575E-0002	
 2.19450000000000E+0003	 8.37432486738233E-0002	
 2.19650000000000E+0003	 8.36904400290892E-0002	
 2.19850000000000E+0003	 8.36346313843551E-0002	
 2.20050000000000E+0003	 8.35808227396210E-0002	
 2.20250000000000E+0003	 8.35300140948869E-0002	
 2.20450000000000E+0003	 8.34792054501527E-0002	
 2.20650000000000E+0003	 8.34253968054186E-0002	
 2.20850000000000E+0003	 8.33805881606845E-0002	
 2.21050000000000E+0003	 8.33397795159504E-0002	
 2.21250000000000E+0003	 8.32974708712163E-0002	
 2.21450000000000E+0003	 8.32521622264822E-0002	
 2.21650000000000E+0003	 8.32033535817480E-0002	
 2.21850000000000E+0003	 8.31535449370139E-0002	
 2.22050000000000E+0003	 8.31057362922798E-0002	
 2.22250000000000E+0003	 8.30639276475457E-0002	
 2.22450000000000E+0003	 8.30286190028116E-0002	
 2.22650000000000E+0003	 8.29898103580774E-0002	
 2.22850000000000E+0003	 8.29540017133433E-0002	
 2.23050000000000E+0003	 8.29231930686092E-0002	
 2.23250000000000E+0003	 8.28953844238751E-0002	
 2.23450000000000E+0003	 8.28660757791410E-0002	
 2.23650000000000E+0003	 8.28367671344068E-0002	
 2.23850000000000E+0003	 8.28109584896727E-0002	
 2.24050000000000E+0003	 8.27916498449386E-0002	
 2.24250000000000E+0003	 8.27748412002045E-0002	
 2.24450000000000E+0003	 8.27570325554704E-0002	
 2.24650000000000E+0003	 8.27402239107362E-0002	
 2.24850000000000E+0003	 8.27259152660021E-0002	
 2.25050000000000E+0003	 8.27151066212680E-0002	
 2.25250000000000E+0003	 8.27062979765339E-0002	
 2.25450000000000E+0003	 8.26964893317998E-0002	
 2.25650000000000E+0003	 8.26851806870656E-0002	
 2.25850000000000E+0003	 8.26768720423315E-0002	
 2.26050000000000E+0003	 8.26740633975974E-0002	
 2.26250000000000E+0003	 8.26697547528633E-0002	
 2.26450000000000E+0003	 8.26564461081292E-0002	
 2.26650000000000E+0003	 8.26411374633950E-0002	
 2.26850000000000E+0003	 8.26323288186609E-0002	
 2.27050000000000E+0003	 8.26275201739268E-0002	
 2.27250000000000E+0003	 8.26207115291927E-0002	
 2.27450000000000E+0003	 8.26094028844586E-0002	
 2.27650000000000E+0003	 8.25980942397244E-0002	
 2.27850000000000E+0003	 8.25872855949903E-0002	
 2.28050000000000E+0003	 8.25699769502562E-0002	
 2.28250000000000E+0003	 8.25561683055221E-0002	
 2.28450000000000E+0003	 8.25673596607880E-0002	
 2.28650000000000E+0003	 8.26080510160538E-0002	
 2.28850000000000E+0003	 8.26682423713197E-0002	
 2.29050000000000E+0003	 8.27329337265856E-0002	
 2.29250000000000E+0003	 8.28106250818515E-0002	
 2.29450000000000E+0003	 8.28958164371174E-0002	
 2.29650000000000E+0003	 8.29715077923832E-0002	
 2.29850000000000E+0003	 8.30316991476491E-0002	
 2.30050000000000E+0003	 8.30733905029150E-0002	
 2.30250000000000E+0003	 8.30755818581809E-0002	
 2.30450000000000E+0003	 8.30702732134468E-0002	
 2.30650000000000E+0003	 8.31264645687126E-0002	
 2.30850000000000E+0003	 8.32036559239785E-0002	
 2.31050000000000E+0003	 8.32138472792444E-0002	
 2.31250000000000E+0003	 8.31495386345103E-0002	
 2.31450000000000E+0003	 8.31242299897762E-0002	
 2.31650000000000E+0003	 8.31844213450421E-0002	
 2.31850000000000E+0003	 8.32586127003079E-0002	
 2.32050000000000E+0003	 8.33648040555738E-0002	
 2.32250000000000E+0003	 8.34819954108397E-0002	
 2.32450000000000E+0003	 8.35451867661056E-0002	
 2.32650000000000E+0003	 8.35338781213715E-0002	
 2.32850000000000E+0003	 8.34065694766373E-0002	
 2.33050000000000E+0003	 8.32767608319032E-0002	
 2.33250000000000E+0003	 8.32049521871691E-0002	
 2.33450000000000E+0003	 8.31916435424350E-0002	
 2.33650000000000E+0003	 8.32368348977009E-0002	
 2.33850000000000E+0003	 8.33205262529667E-0002	
 2.34050000000000E+0003	 8.35117176082326E-0002	
 2.34250000000000E+0003	 8.36774089634985E-0002	
 2.34450000000000E+0003	 8.35081003187644E-0002	
 2.34650000000000E+0003	 8.33552916740303E-0002	
 2.34850000000000E+0003	 8.35324830292961E-0002	
 2.35050000000000E+0003	 8.34406743845620E-0002	
 2.35250000000000E+0003	 8.31578657398279E-0002	
 2.35450000000000E+0003	 8.32175570950938E-0002	
 2.35650000000000E+0003	 8.35092484503597E-0002	
 2.35850000000000E+0003	 8.36444398056255E-0002	
 2.36050000000000E+0003	 8.35746311608914E-0002	
 2.36250000000000E+0003	 8.35083225161573E-0002	
 2.36450000000000E+0003	 8.35275138714232E-0002	
 2.36650000000000E+0003	 8.35767052266891E-0002	
 2.36850000000000E+0003	 8.36438965819549E-0002	
 2.37050000000000E+0003	 8.36675879372208E-0002	
 2.37250000000000E+0003	 8.35707792924867E-0002	
 2.37450000000000E+0003	 8.34164706477526E-0002	
 2.37650000000000E+0003	 8.34396620030185E-0002	
 2.37850000000000E+0003	 8.37168533582843E-0002	
 2.38050000000000E+0003	 8.40215447135502E-0002	
 2.38250000000000E+0003	 8.41457360688161E-0002	
 2.38450000000000E+0003	 8.41024274240820E-0002	
 2.38650000000000E+0003	 8.40236187793479E-0002	
 2.38850000000000E+0003	 8.39938101346137E-0002	
 2.39050000000000E+0003	 8.40190014898796E-0002	
 2.39250000000000E+0003	 8.40761928451455E-0002	
 2.39450000000000E+0003	 8.41478842004114E-0002	
 2.39650000000000E+0003	 8.42185755556773E-0002	
 2.39850000000000E+0003	 8.42902669109431E-0002	
 2.40050000000000E+0003	 8.43629582662090E-0002	
 2.40250000000000E+0003	 8.44376496214749E-0002	
 2.40450000000000E+0003	 8.45158409767408E-0002	
 2.40650000000000E+0003	 8.45940323320067E-0002	
 2.40850000000000E+0003	 8.46732236872726E-0002	
 2.41050000000000E+0003	 8.47604150425384E-0002	
 2.41250000000000E+0003	 8.48471063978043E-0002	
 2.41450000000000E+0003	 8.49307977530702E-0002	
 2.41650000000000E+0003	 8.50174891083361E-0002	
 2.41850000000000E+0003	 8.51081804636020E-0002	
 2.42050000000000E+0003	 8.52013718188678E-0002	
 2.42250000000000E+0003	 8.53015631741337E-0002	
 2.42450000000000E+0003	 8.54082545293996E-0002	
 2.42650000000000E+0003	 8.55079458846655E-0002	
 2.42850000000000E+0003	 8.56046372399314E-0002	
 2.43050000000000E+0003	 8.57063285951972E-0002	
 2.43250000000000E+0003	 8.58145199504631E-0002	
 2.43450000000000E+0003	 8.59217113057290E-0002	
 2.43650000000000E+0003	 8.60319026609949E-0002	
 2.43850000000000E+0003	 8.61420940162608E-0002	
 2.44050000000000E+0003	 8.62527853715266E-0002	
 2.44250000000000E+0003	 8.63654767267925E-0002	
 2.44450000000000E+0003	 8.64791680820584E-0002	
 2.44650000000000E+0003	 8.65913594373243E-0002	
 2.44850000000000E+0003	 8.67065507925902E-0002	
 2.45050000000000E+0003	 8.68217421478560E-0002	
 2.45250000000000E+0003	 8.69419335031219E-0002	
 2.45450000000000E+0003	 8.70661248583878E-0002	
 2.45650000000000E+0003	 8.71923162136537E-0002	
 2.45850000000000E+0003	 8.73150075689196E-0002	
 2.46050000000000E+0003	 8.74421989241854E-0002	
 2.46250000000000E+0003	 8.75713902794513E-0002	
 2.46450000000000E+0003	 8.77040816347172E-0002	
 2.46650000000000E+0003	 8.78397729899831E-0002	
 2.46850000000000E+0003	 8.79764643452490E-0002	
 2.47050000000000E+0003	 8.81126557005148E-0002	
 2.47250000000000E+0003	 8.82493470557807E-0002	
 2.47450000000000E+0003	 8.83885384110466E-0002	
 2.47650000000000E+0003	 8.85372297663125E-0002	
 2.47850000000000E+0003	 8.86854211215784E-0002	
 2.48050000000000E+0003	 8.88291124768442E-0002	
 2.48250000000000E+0003	 8.89713038321101E-0002	
 2.48450000000000E+0003	 8.91159951873760E-0002	
 2.48650000000000E+0003	 8.92601865426419E-0002	
 2.48850000000000E+0003	 8.94043778979078E-0002	
 2.49050000000000E+0003	 8.95530692531736E-0002	
 2.49250000000000E+0003	 8.97032606084395E-0002	
 2.49450000000000E+0003	 8.98529519637054E-0002	
 2.49650000000000E+0003	 9.00056433189713E-0002	
 2.49850000000000E+0003	 9.01633346742372E-0002	
 2.50050000000000E+0003	 9.03190260295030E-0002	
 2.50250000000000E+0003	 9.04712173847689E-0002	
 2.50450000000000E+0003	 9.06264087400348E-0002	
 2.50650000000000E+0003	 9.07881000953007E-0002	
 2.50850000000000E+0003	 9.09467914505666E-0002	
 2.51050000000000E+0003	 9.11019828058325E-0002	
 2.51250000000000E+0003	 9.12556741610983E-0002	
 2.51450000000000E+0003	 9.14018655163642E-0002	
 2.51650000000000E+0003	 9.15445568716301E-0002	
 2.51850000000000E+0003	 9.16902482268960E-0002	
 2.52050000000000E+0003	 9.18384395821619E-0002	
 2.52250000000000E+0003	 9.19846309374277E-0002	
 2.52450000000000E+0003	 9.21213222926936E-0002	
 2.52650000000000E+0003	 9.22535136479595E-0002	
 2.52850000000000E+0003	 9.23877050032254E-0002	
 2.53050000000000E+0003	 9.25233963584913E-0002	
 2.53250000000000E+0003	 9.26545877137571E-0002	
 2.53450000000000E+0003	 9.27847790690230E-0002	
 2.53650000000000E+0003	 9.29154704242889E-0002	
 2.53850000000000E+0003	 9.30421617795548E-0002	
 2.54050000000000E+0003	 9.31643531348207E-0002	
 2.54250000000000E+0003	 9.32795444900865E-0002	
 2.54450000000000E+0003	 9.33912358453524E-0002	
 2.54650000000000E+0003	 9.35049272006183E-0002	
 2.54850000000000E+0003	 9.36171185558842E-0002	
 2.55050000000000E+0003	 9.37258099111501E-0002	
 2.55250000000000E+0003	 9.38380012664159E-0002	
 2.55450000000000E+0003	 9.39511926216818E-0002	
 2.55650000000000E+0003	 9.40538839769477E-0002	
 2.55850000000000E+0003	 9.41525753322136E-0002	
 2.56050000000000E+0003	 9.42537666874795E-0002	
 2.56250000000000E+0003	 9.43484580427453E-0002	
 2.56450000000000E+0003	 9.44396493980112E-0002	
 2.56650000000000E+0003	 9.45308407532771E-0002	
 2.56850000000000E+0003	 9.46255321085430E-0002	
 2.57050000000000E+0003	 9.47217234638089E-0002	
 2.57250000000000E+0003	 9.48224148190747E-0002	
 2.57450000000000E+0003	 9.49311061743406E-0002	
 2.57650000000000E+0003	 9.50452975296065E-0002	
 2.57850000000000E+0003	 9.51604888848724E-0002	
 2.58050000000000E+0003	 9.52836802401383E-0002	
 2.58250000000000E+0003	 9.54128715954041E-0002	
 2.58450000000000E+0003	 9.55515629506700E-0002	
 2.58650000000000E+0003	 9.56967543059359E-0002	
 2.58850000000000E+0003	 9.58469456612018E-0002	
 2.59050000000000E+0003	 9.59951370164677E-0002	
 2.59250000000000E+0003	 9.61513283717335E-0002	
 2.59450000000000E+0003	 9.63130197269994E-0002	
 2.59650000000000E+0003	 9.64782110822653E-0002	
 2.59850000000000E+0003	 9.66449024375312E-0002	
 2.60050000000000E+0003	 9.68155937927971E-0002	
 2.60250000000000E+0003	 9.69917851480629E-0002	
 2.60450000000000E+0003	 9.71734765033288E-0002	
 2.60650000000000E+0003	 9.73586678585947E-0002	
 2.60850000000000E+0003	 9.75423592138606E-0002	
 2.61050000000000E+0003	 9.77245505691265E-0002	
 2.61250000000000E+0003	 9.79062419243924E-0002	
 2.61450000000000E+0003	 9.80859332796582E-0002	
 2.61650000000000E+0003	 9.82681246349241E-0002	
 2.61850000000000E+0003	 9.84548159901900E-0002	
 2.62050000000000E+0003	 9.86390073454559E-0002	
 2.62250000000000E+0003	 9.88241987007218E-0002	
 2.62450000000000E+0003	 9.90098900559876E-0002	
 2.62650000000000E+0003	 9.91935814112535E-0002	
 2.62850000000000E+0003	 9.93762727665194E-0002	
 2.63050000000000E+0003	 9.95639641217853E-0002	
 2.63250000000000E+0003	 9.97446554770512E-0002	
 2.63450000000000E+0003	 9.99233468323170E-0002	
 2.63650000000000E+0003	 1.00102538187583E-0001	
 2.63850000000000E+0003	 1.00290229542849E-0001	
 2.64050000000000E+0003	 1.00474420898115E-0001	
 2.64250000000000E+0003	 1.00655612253381E-0001	
 2.64450000000000E+0003	 1.00834803608646E-0001	
 2.64650000000000E+0003	 1.01019494963912E-0001	
 2.64850000000000E+0003	 1.01201686319178E-0001	
 2.65050000000000E+0003	 1.01385877674444E-0001	
 2.65250000000000E+0003	 1.01565569029710E-0001	
 2.65450000000000E+0003	 1.01748760384976E-0001	
 2.65650000000000E+0003	 1.01931451740242E-0001	
 2.65850000000000E+0003	 1.02118643095508E-0001	
 2.66050000000000E+0003	 1.02302334450773E-0001	
 2.66250000000000E+0003	 1.02489525806039E-0001	
 2.66450000000000E+0003	 1.02673217161305E-0001	
 2.66650000000000E+0003	 1.02861408516571E-0001	
 2.66850000000000E+0003	 1.03053599871837E-0001	
 2.67050000000000E+0003	 1.03246791227103E-0001	
 2.67250000000000E+0003	 1.03436982582369E-0001	
 2.67450000000000E+0003	 1.03630673937635E-0001	
 2.67650000000000E+0003	 1.03825865292901E-0001	
 2.67850000000000E+0003	 1.04027556648166E-0001	
 2.68050000000000E+0003	 1.04227748003432E-0001	
 2.68250000000000E+0003	 1.04419439358698E-0001	
 2.68450000000000E+0003	 1.04603630713964E-0001	
 2.68650000000000E+0003	 1.04793822069230E-0001	
 2.68850000000000E+0003	 1.04981513424496E-0001	
 2.69050000000000E+0003	 1.05178204779762E-0001	
 2.69250000000000E+0003	 1.05379396135028E-0001	
 2.69450000000000E+0003	 1.05576087490293E-0001	
 2.69650000000000E+0003	 1.05774778845559E-0001	
 2.69850000000000E+0003	 1.05982470200825E-0001	
 2.70050000000000E+0003	 1.06192161556091E-0001	
 2.70250000000000E+0003	 1.06400352911357E-0001	
 2.70450000000000E+0003	 1.06616044266623E-0001	
 2.70650000000000E+0003	 1.06843735621889E-0001	
 2.70850000000000E+0003	 1.07080926977155E-0001	
 2.71050000000000E+0003	 1.07320118332420E-0001	
 2.71250000000000E+0003	 1.07558809687686E-0001	
 2.71450000000000E+0003	 1.07807501042952E-0001	
 2.71650000000000E+0003	 1.08063692398218E-0001	
 2.71850000000000E+0003	 1.08321883753484E-0001	
 2.72050000000000E+0003	 1.08584575108750E-0001	
 2.72250000000000E+0003	 1.08853266464016E-0001	
 2.72450000000000E+0003	 1.09120457819282E-0001	
 2.72650000000000E+0003	 1.09391149174548E-0001	
 2.72850000000000E+0003	 1.09640840529813E-0001	
 2.73050000000000E+0003	 1.09876531885079E-0001	
 2.73250000000000E+0003	 1.10117223240345E-0001	
 2.73450000000000E+0003	 1.10357414595611E-0001	
 2.73650000000000E+0003	 1.10592105950877E-0001	
 2.73850000000000E+0003	 1.10818797306143E-0001	
 2.74050000000000E+0003	 1.11033988661409E-0001	
 2.74250000000000E+0003	 1.11246180016675E-0001	
 2.74450000000000E+0003	 1.11457371371940E-0001	
 2.74650000000000E+0003	 1.11675562727206E-0001	
 2.74850000000000E+0003	 1.11894254082472E-0001	
 2.75050000000000E+0003	 1.12101445437738E-0001	
 2.75250000000000E+0003	 1.12297136793004E-0001	
 2.75450000000000E+0003	 1.12502328148270E-0001	
 2.75650000000000E+0003	 1.12715519503536E-0001	
 2.75850000000000E+0003	 1.12934710858802E-0001	
 2.76050000000000E+0003	 1.13155902214068E-0001	
 2.76250000000000E+0003	 1.13383093569333E-0001	
 2.76450000000000E+0003	 1.13610284924599E-0001	
 2.76650000000000E+0003	 1.13847476279865E-0001	
 2.76850000000000E+0003	 1.14085167635131E-0001	
 2.77050000000000E+0003	 1.14326858990397E-0001	
 2.77250000000000E+0003	 1.14576550345663E-0001	
 2.77450000000000E+0003	 1.14851741700929E-0001	
 2.77650000000000E+0003	 1.15108933056195E-0001	
 2.77850000000000E+0003	 1.15346124411460E-0001	
 2.78050000000000E+0003	 1.15596315766726E-0001	
 2.78250000000000E+0003	 1.15868507121992E-0001	
 2.78450000000000E+0003	 1.16146698477258E-0001	
 2.78650000000000E+0003	 1.16443389832524E-0001	
 2.78850000000000E+0003	 1.16767081187790E-0001	
 2.79050000000000E+0003	 1.17086772543056E-0001	
 2.79250000000000E+0003	 1.17374463898322E-0001	
 2.79450000000000E+0003	 1.17670155253587E-0001	
 2.79650000000000E+0003	 1.17990346608853E-0001	
 2.79850000000000E+0003	 1.18333537964119E-0001	
 2.80050000000000E+0003	 1.18655729319385E-0001	
 2.80250000000000E+0003	 1.18968920674651E-0001	
 2.80450000000000E+0003	 1.19299612029917E-0001	
 2.80650000000000E+0003	 1.19645303385183E-0001	
 2.80850000000000E+0003	 1.20000994740449E-0001	
 2.81050000000000E+0003	 1.20370186095715E-0001	
 2.81250000000000E+0003	 1.20726377450980E-0001	
 2.81450000000000E+0003	 1.21083568806246E-0001	
 2.81650000000000E+0003	 1.21459260161512E-0001	
 2.81850000000000E+0003	 1.21848451516778E-0001	
 2.82050000000000E+0003	 1.22243142872044E-0001	
 2.82250000000000E+0003	 1.22648834227310E-0001	
 2.82450000000000E+0003	 1.23068025582576E-0001	
 2.82650000000000E+0003	 1.23498716937842E-0001	
 2.82850000000000E+0003	 1.23950408293107E-0001	
 2.83050000000000E+0003	 1.24432599648373E-0001	
 2.83250000000000E+0003	 1.24952791003639E-0001	
 2.83450000000000E+0003	 1.25513482358905E-0001	
 2.83650000000000E+0003	 1.26138673714171E-0001	
 2.83850000000000E+0003	 1.26870365069437E-0001	
 2.84050000000000E+0003	 1.27672556424703E-0001	
 2.84250000000000E+0003	 1.28595247779969E-0001	
 2.84450000000000E+0003	 1.29781439135234E-0001	
 2.84650000000000E+0003	 1.31240130490500E-0001	
 2.84850000000000E+0003	 1.32872821845766E-0001	
 2.85050000000000E+0003	 1.34446513201032E-0001	
 2.85250000000000E+0003	 1.35735704556298E-0001	
 2.85450000000000E+0003	 1.36586395911564E-0001	
 2.85650000000000E+0003	 1.37027587266830E-0001	
 2.85850000000000E+0003	 1.37248778622096E-0001	
 2.86050000000000E+0003	 1.37440969977362E-0001	
 2.86250000000000E+0003	 1.37706161332627E-0001	
 2.86450000000000E+0003	 1.38151352687893E-0001	
 2.86650000000000E+0003	 1.38798044043159E-0001	
 2.86850000000000E+0003	 1.39571735398425E-0001	
 2.87050000000000E+0003	 1.40390926753691E-0001	
 2.87250000000000E+0003	 1.41191118108957E-0001	
 2.87450000000000E+0003	 1.41783809464223E-0001	
 2.87650000000000E+0003	 1.42082500819489E-0001	
 2.87850000000000E+0003	 1.42251692174754E-0001	
 2.88050000000000E+0003	 1.42398883530020E-0001	
 2.88250000000000E+0003	 1.42563574885286E-0001	
 2.88450000000000E+0003	 1.42794766240552E-0001	
 2.88650000000000E+0003	 1.43114457595818E-0001	
 2.88850000000000E+0003	 1.43516648951084E-0001	
 2.89050000000000E+0003	 1.43990340306350E-0001	
 2.89250000000000E+0003	 1.44525531661616E-0001	
 2.89450000000000E+0003	 1.45132223016881E-0001	
 2.89650000000000E+0003	 1.45772414372147E-0001	
 2.89850000000000E+0003	 1.46398105727413E-0001	
 2.90050000000000E+0003	 1.47048297082679E-0001	
 2.90250000000000E+0003	 1.47761488437945E-0001	
 2.90450000000000E+0003	 1.48536679793211E-0001	
 2.90650000000000E+0003	 1.49385371148477E-0001	
 2.90850000000000E+0003	 1.50366562503743E-0001	
 2.91050000000000E+0003	 1.51540253859009E-0001	
 2.91250000000000E+0003	 1.52932445214274E-0001	
 2.91450000000000E+0003	 1.54459636569540E-0001	
 2.91650000000000E+0003	 1.56013327924806E-0001	
 2.91850000000000E+0003	 1.57565019280072E-0001	
 2.92050000000000E+0003	 1.59005210635338E-0001	
 2.92250000000000E+0003	 1.60245901990604E-0001	
 2.92450000000000E+0003	 1.61217093345870E-0001	
 2.92650000000000E+0003	 1.61894284701136E-0001	
 2.92850000000000E+0003	 1.62331476056401E-0001	
 2.93050000000000E+0003	 1.62526167411667E-0001	
 2.93250000000000E+0003	 1.62445358766933E-0001	
 2.93450000000000E+0003	 1.62208550122199E-0001	
 2.93650000000000E+0003	 1.61864241477465E-0001	
 2.93850000000000E+0003	 1.61387432832731E-0001	
 2.94050000000000E+0003	 1.60801624187997E-0001	
 2.94250000000000E+0003	 1.60214815543263E-0001	
 2.94450000000000E+0003	 1.59674506898528E-0001	
 2.94650000000000E+0003	 1.59184698253794E-0001	
 2.94850000000000E+0003	 1.58797889609060E-0001	
 2.95050000000000E+0003	 1.58621080964326E-0001	
 2.95250000000000E+0003	 1.58715772319592E-0001	
 2.95450000000000E+0003	 1.58914963674858E-0001	
 2.95650000000000E+0003	 1.59116155030124E-0001	
 2.95850000000000E+0003	 1.59277346385390E-0001	
 2.96050000000000E+0003	 1.59291037740656E-0001	
 2.96250000000000E+0003	 1.59106229095921E-0001	
 2.96450000000000E+0003	 1.58719420451187E-0001	
 2.96650000000000E+0003	 1.58205611806453E-0001	
 2.96850000000000E+0003	 1.57658303161719E-0001	
 2.97050000000000E+0003	 1.56900994516985E-0001	
 2.97250000000000E+0003	 1.55779185872251E-0001	
 2.97450000000000E+0003	 1.54582377227517E-0001	
 2.97650000000000E+0003	 1.53557568582783E-0001	
 2.97850000000000E+0003	 1.52722759938048E-0001	
 2.98050000000000E+0003	 1.52016451293314E-0001	
 2.98250000000000E+0003	 1.51330142648580E-0001	
 2.98450000000000E+0003	 1.50667334003846E-0001	
 2.98650000000000E+0003	 1.50082525359112E-0001	
 2.98850000000000E+0003	 1.49574216714378E-0001	
 2.99050000000000E+0003	 1.49146408069644E-0001	
 2.99250000000000E+0003	 1.48801099424910E-0001	
 2.99450000000000E+0003	 1.48466290780176E-0001	
 2.99650000000000E+0003	 1.48224482135441E-0001	
 2.99850000000000E+0003	 1.48100173490707E-0001	
 3.00050000000000E+0003	 1.48016364845973E-0001	
 3.00250000000000E+0003	 1.48017556201239E-0001	
 3.00450000000000E+0003	 1.48113247556505E-0001	
 3.00650000000000E+0003	 1.48255938911771E-0001	
 3.00850000000000E+0003	 1.48471630267037E-0001	
 3.01050000000000E+0003	 1.48812821622303E-0001	
 3.01250000000000E+0003	 1.49238512977568E-0001	
 3.01450000000000E+0003	 1.49664704332834E-0001	
 3.01650000000000E+0003	 1.50051895688100E-0001	
 3.01850000000000E+0003	 1.50420087043366E-0001	
 3.02050000000000E+0003	 1.50831278398632E-0001	
 3.02250000000000E+0003	 1.51333969753898E-0001	
 3.02450000000000E+0003	 1.51926661109164E-0001	
 3.02650000000000E+0003	 1.52507852464430E-0001	
 3.02850000000000E+0003	 1.53067543819695E-0001	
 3.03050000000000E+0003	 1.53642235174961E-0001	
 3.03250000000000E+0003	 1.54236426530227E-0001	
 3.03450000000000E+0003	 1.54849617885493E-0001	
 3.03650000000000E+0003	 1.55403809240759E-0001	
 3.03850000000000E+0003	 1.55952500596025E-0001	
 3.04050000000000E+0003	 1.56608191951291E-0001	
 3.04250000000000E+0003	 1.57301383306557E-0001	
 3.04450000000000E+0003	 1.57938574661823E-0001	
 3.04650000000000E+0003	 1.58536766017088E-0001	
 3.04850000000000E+0003	 1.59163457372354E-0001	
 3.05050000000000E+0003	 1.59875648727620E-0001	
 3.05250000000000E+0003	 1.60580340082886E-0001	
 3.05450000000000E+0003	 1.61253531438152E-0001	
 3.05650000000000E+0003	 1.61940722793418E-0001	
 3.05850000000000E+0003	 1.62598914148684E-0001	
 3.06050000000000E+0003	 1.63217105503950E-0001	
 3.06250000000000E+0003	 1.63824296859215E-0001	
 3.06450000000000E+0003	 1.64425988214481E-0001	
 3.06650000000000E+0003	 1.65036679569747E-0001	
 3.06850000000000E+0003	 1.65600870925013E-0001	
 3.07050000000000E+0003	 1.66068062280279E-0001	
 3.07250000000000E+0003	 1.66515253635545E-0001	
 3.07450000000000E+0003	 1.66975444990811E-0001	
 3.07650000000000E+0003	 1.67478136346077E-0001	
 3.07850000000000E+0003	 1.67999327701342E-0001	
 3.08050000000000E+0003	 1.68441519056608E-0001	
 3.08250000000000E+0003	 1.68827710411874E-0001	
 3.08450000000000E+0003	 1.69227901767140E-0001	
 3.08650000000000E+0003	 1.69588593122406E-0001	
 3.08850000000000E+0003	 1.69934784477672E-0001	
 3.09050000000000E+0003	 1.70311475832938E-0001	
 3.09250000000000E+0003	 1.70643167188204E-0001	
 3.09450000000000E+0003	 1.70943358543470E-0001	
 3.09650000000000E+0003	 1.71283049898735E-0001	
 3.09850000000000E+0003	 1.71670241254001E-0001	
 3.10050000000000E+0003	 1.72078432609267E-0001	
 3.10250000000000E+0003	 1.72466123964533E-0001	
 3.10450000000000E+0003	 1.72859815319799E-0001	
 3.10650000000000E+0003	 1.73303506675065E-0001	
 3.10850000000000E+0003	 1.73805698030331E-0001	
 3.11050000000000E+0003	 1.74267889385597E-0001	
 3.11250000000000E+0003	 1.74710080740862E-0001	
 3.11450000000000E+0003	 1.75272272096128E-0001	
 3.11650000000000E+0003	 1.75905463451394E-0001	
 3.11850000000000E+0003	 1.76504654806660E-0001	
 3.12050000000000E+0003	 1.77063846161926E-0001	
 3.12250000000000E+0003	 1.77558037517192E-0001	
 3.12450000000000E+0003	 1.78075228872458E-0001	
 3.12650000000000E+0003	 1.78697920227724E-0001	
 3.12850000000000E+0003	 1.79398111582989E-0001	
 3.13050000000000E+0003	 1.80110302938255E-0001	
 3.13250000000000E+0003	 1.80786994293521E-0001	
 3.13450000000000E+0003	 1.81491685648787E-0001	
 3.13650000000000E+0003	 1.82278377004053E-0001	
 3.13850000000000E+0003	 1.83130568359319E-0001	
 3.14050000000000E+0003	 1.83927259714585E-0001	
 3.14250000000000E+0003	 1.84644451069851E-0001	
 3.14450000000000E+0003	 1.85414142425117E-0001	
 3.14650000000000E+0003	 1.86244833780382E-0001	
 3.14850000000000E+0003	 1.87106525135648E-0001	
 3.15050000000000E+0003	 1.88064216490914E-0001	
 3.15250000000000E+0003	 1.89065907846180E-0001	
 3.15450000000000E+0003	 1.89924099201446E-0001	
 3.15650000000000E+0003	 1.90727790556712E-0001	
 3.15850000000000E+0003	 1.91612481911978E-0001	
 3.16050000000000E+0003	 1.92547173267244E-0001	
 3.16250000000000E+0003	 1.93498364622509E-0001	
 3.16450000000000E+0003	 1.94462055977775E-0001	
 3.16650000000000E+0003	 1.95433747333041E-0001	
 3.16850000000000E+0003	 1.96416938688307E-0001	
 3.17050000000000E+0003	 1.97402630043573E-0001	
 3.17250000000000E+0003	 1.98387321398839E-0001	
 3.17450000000000E+0003	 1.99366012754105E-0001	
 3.17650000000000E+0003	 2.00335704109371E-0001	
 3.17850000000000E+0003	 2.01314895464637E-0001	
 3.18050000000000E+0003	 2.02307086819902E-0001	
 3.18250000000000E+0003	 2.03286778175168E-0001	
 3.18450000000000E+0003	 2.04249469530434E-0001	
 3.18650000000000E+0003	 2.05207660885700E-0001	
 3.18850000000000E+0003	 2.06166852240966E-0001	
 3.19050000000000E+0003	 2.07108543596232E-0001	
 3.19250000000000E+0003	 2.08025234951498E-0001	
 3.19450000000000E+0003	 2.08917426306764E-0001	
 3.19650000000000E+0003	 2.09790117662029E-0001	
 3.19850000000000E+0003	 2.10666309017295E-0001	
 3.20050000000000E+0003	 2.11547000372561E-0001	
 3.20250000000000E+0003	 2.12413691727827E-0001	
 3.20450000000000E+0003	 2.13264383083093E-0001	
 3.20650000000000E+0003	 2.14102074438359E-0001	
 3.20850000000000E+0003	 2.14916265793625E-0001	
 3.21050000000000E+0003	 2.15719957148891E-0001	
 3.21250000000000E+0003	 2.16534148504156E-0001	
 3.21450000000000E+0003	 2.17357339859422E-0001	
 3.21650000000000E+0003	 2.18177031214688E-0001	
 3.21850000000000E+0003	 2.18990722569954E-0001	
 3.22050000000000E+0003	 2.19799413925220E-0001	
 3.22250000000000E+0003	 2.20610605280486E-0001	
 3.22450000000000E+0003	 2.21432296635752E-0001	
 3.22650000000000E+0003	 2.22256987991018E-0001	
 3.22850000000000E+0003	 2.23090679346284E-0001	
 3.23050000000000E+0003	 2.23981870701549E-0001	
 3.23250000000000E+0003	 2.24961562056815E-0001	
 3.23450000000000E+0003	 2.25877753412081E-0001	
 3.23650000000000E+0003	 2.26660944767347E-0001	
 3.23850000000000E+0003	 2.27477136122613E-0001	
 3.24050000000000E+0003	 2.28365327477879E-0001	
 3.24250000000000E+0003	 2.29283018833145E-0001	
 3.24450000000000E+0003	 2.30248210188411E-0001	
 3.24650000000000E+0003	 2.31277401543676E-0001	
 3.24850000000000E+0003	 2.32259592898942E-0001	
 3.25050000000000E+0003	 2.33172284254208E-0001	
 3.25250000000000E+0003	 2.34116475609474E-0001	
 3.25450000000000E+0003	 2.35131166964740E-0001	
 3.25650000000000E+0003	 2.36162858320006E-0001	
 3.25850000000000E+0003	 2.37152049675272E-0001	
 3.26050000000000E+0003	 2.38136741030538E-0001	
 3.26250000000000E+0003	 2.39139432385803E-0001	
 3.26450000000000E+0003	 2.40138623741069E-0001	
 3.26650000000000E+0003	 2.41128315096335E-0001	
 3.26850000000000E+0003	 2.42152006451601E-0001	
 3.27050000000000E+0003	 2.43203197806867E-0001	
 3.27250000000000E+0003	 2.44124889162133E-0001	
 3.27450000000000E+0003	 2.44926580517399E-0001	
 3.27650000000000E+0003	 2.45730271872665E-0001	
 3.27850000000000E+0003	 2.46519963227931E-0001	
 3.28050000000000E+0003	 2.47292154583196E-0001	
 3.28250000000000E+0003	 2.48046845938462E-0001	
 3.28450000000000E+0003	 2.48772537293728E-0001	
 3.28650000000000E+0003	 2.49445228648994E-0001	
 3.28850000000000E+0003	 2.50085920004260E-0001	
 3.29050000000000E+0003	 2.50751611359526E-0001	
 3.29250000000000E+0003	 2.51407802714792E-0001	
 3.29450000000000E+0003	 2.51975994070058E-0001	
 3.29650000000000E+0003	 2.52479185425323E-0001	
 3.29850000000000E+0003	 2.52927876780589E-0001	
 3.30050000000000E+0003	 2.53361568135855E-0001	
 3.30250000000000E+0003	 2.53850259491121E-0001	
 3.30450000000000E+0003	 2.54425450846387E-0001	
 3.30650000000000E+0003	 2.54947642201653E-0001	
 3.30850000000000E+0003	 2.55312833556919E-0001	
 3.31050000000000E+0003	 2.55603524912185E-0001	
 3.31250000000000E+0003	 2.55916216267450E-0001	
 3.31450000000000E+0003	 2.56285407622716E-0001	
 3.31650000000000E+0003	 2.56685098977982E-0001	
 3.31850000000000E+0003	 2.57087290333248E-0001	
 3.32050000000000E+0003	 2.57493981688514E-0001	
 3.32250000000000E+0003	 2.57915173043780E-0001	
 3.32450000000000E+0003	 2.58382864399046E-0001	
 3.32650000000000E+0003	 2.58848555754312E-0001	
 3.32850000000000E+0003	 2.59257747109578E-0001	
 3.33050000000000E+0003	 2.59670938464843E-0001	
 3.33250000000000E+0003	 2.60121129820109E-0001	
 3.33450000000000E+0003	 2.60596821175375E-0001	
 3.33650000000000E+0003	 2.61134512530641E-0001	
 3.33850000000000E+0003	 2.61705703885907E-0001	
 3.34050000000000E+0003	 2.62197395241173E-0001	
 3.34250000000000E+0003	 2.62654586596439E-0001	
 3.34450000000000E+0003	 2.63126777951705E-0001	
 3.34650000000000E+0003	 2.63599969306970E-0001	
 3.34850000000000E+0003	 2.64161160662236E-0001	
 3.35050000000000E+0003	 2.64779352017502E-0001	
 3.35250000000000E+0003	 2.65271543372768E-0001	
 3.35450000000000E+0003	 2.65680734728034E-0001	
 3.35650000000000E+0003	 2.66161926083300E-0001	
 3.35850000000000E+0003	 2.66706617438566E-0001	
 3.36050000000000E+0003	 2.67264808793832E-0001	
 3.36250000000000E+0003	 2.67784000149098E-0001	
 3.36450000000000E+0003	 2.68333191504363E-0001	
 3.36650000000000E+0003	 2.68986882859629E-0001	
 3.36850000000000E+0003	 2.69651574214895E-0001	
 3.37050000000000E+0003	 2.70146765570161E-0001	
 3.37250000000000E+0003	 2.70498456925427E-0001	
 3.37450000000000E+0003	 2.70907648280693E-0001	
 3.37650000000000E+0003	 2.71415339635959E-0001	
 3.37850000000000E+0003	 2.71924030991225E-0001	
 3.38050000000000E+0003	 2.72410722346490E-0001	
 3.38250000000000E+0003	 2.72871413701756E-0001	
 3.38450000000000E+0003	 2.73327105057022E-0001	
 3.38650000000000E+0003	 2.73797796412288E-0001	
 3.38850000000000E+0003	 2.74326987767554E-0001	
 3.39050000000000E+0003	 2.74952679122820E-0001	
 3.39250000000000E+0003	 2.75478870478086E-0001	
 3.39450000000000E+0003	 2.75784561833352E-0001	
 3.39650000000000E+0003	 2.76126253188617E-0001	
 3.39850000000000E+0003	 2.76689444543883E-0001	
 3.40050000000000E+0003	 2.77302135899149E-0001	
 3.40250000000000E+0003	 2.77616327254415E-0001	
 3.40450000000000E+0003	 2.77744018609681E-0001	
 3.40650000000000E+0003	 2.78006709964947E-0001	
 3.40850000000000E+0003	 2.78396901320213E-0001	
 3.41050000000000E+0003	 2.78752592675479E-0001	
 3.41250000000000E+0003	 2.79060284030745E-0001	
 3.41450000000000E+0003	 2.79293975386010E-0001	
 3.41650000000000E+0003	 2.79462166741276E-0001	
 3.41850000000000E+0003	 2.79654858096542E-0001	
 3.42050000000000E+0003	 2.79887049451808E-0001	
 3.42250000000000E+0003	 2.80087740807074E-0001	
 3.42450000000000E+0003	 2.80262432162340E-0001	
 3.42650000000000E+0003	 2.80460623517606E-0001	
 3.42850000000000E+0003	 2.80695814872872E-0001	
 3.43050000000000E+0003	 2.80869506228137E-0001	
 3.43250000000000E+0003	 2.80980197583403E-0001	
 3.43450000000000E+0003	 2.81137888938669E-0001	
 3.43650000000000E+0003	 2.81214080293935E-0001	
 3.43850000000000E+0003	 2.81070771649201E-0001	
 3.44050000000000E+0003	 2.80853463004467E-0001	
 3.44250000000000E+0003	 2.80699154359733E-0001	
 3.44450000000000E+0003	 2.80588345714999E-0001	
 3.44650000000000E+0003	 2.80499037070264E-0001	
 3.44850000000000E+0003	 2.80399228425530E-0001	
 3.45050000000000E+0003	 2.80252419780796E-0001	
 3.45250000000000E+0003	 2.80078111136062E-0001	
 3.45450000000000E+0003	 2.79867802491328E-0001	
 3.45650000000000E+0003	 2.79647993846594E-0001	
 3.45850000000000E+0003	 2.79449185201860E-0001	
 3.46050000000000E+0003	 2.79215376557126E-0001	
 3.46250000000000E+0003	 2.78886067912392E-0001	
 3.46450000000000E+0003	 2.78610259267657E-0001	
 3.46650000000000E+0003	 2.78472450622923E-0001	
 3.46850000000000E+0003	 2.78252141978189E-0001	
 3.47050000000000E+0003	 2.77731833333455E-0001	
 3.47250000000000E+0003	 2.77084524688721E-0001	
 3.47450000000000E+0003	 2.76545716043987E-0001	
 3.47650000000000E+0003	 2.76108407399253E-0001	
 3.47850000000000E+0003	 2.75714598754519E-0001	
 3.48050000000000E+0003	 2.75234290109784E-0001	
 3.48250000000000E+0003	 2.74617981465050E-0001	
 3.48450000000000E+0003	 2.74057172820316E-0001	
 3.48650000000000E+0003	 2.73560864175582E-0001	
 3.48850000000000E+0003	 2.73003555530848E-0001	
 3.49050000000000E+0003	 2.72408746886114E-0001	
 3.49250000000000E+0003	 2.71842438241380E-0001	
 3.49450000000000E+0003	 2.71284129596646E-0001	
 3.49650000000000E+0003	 2.70712320951911E-0001	
 3.49850000000000E+0003	 2.70073512307177E-0001	
 3.50050000000000E+0003	 2.69410703662443E-0001	
 3.50250000000000E+0003	 2.68772895017709E-0001	
 3.50450000000000E+0003	 2.68052586372975E-0001	
 3.50650000000000E+0003	 2.67277777728241E-0001	
 3.50850000000000E+0003	 2.66548469083507E-0001	
 3.51050000000000E+0003	 2.65889160438773E-0001	
 3.51250000000000E+0003	 2.65318351794039E-0001	
 3.51450000000000E+0003	 2.64673543149304E-0001	
 3.51650000000000E+0003	 2.63883734504570E-0001	
 3.51850000000000E+0003	 2.63071925859836E-0001	
 3.52050000000000E+0003	 2.62298117215102E-0001	
 3.52250000000000E+0003	 2.61567308570368E-0001	
 3.52450000000000E+0003	 2.60755499925634E-0001	
 3.52650000000000E+0003	 2.59845191280900E-0001	
 3.52850000000000E+0003	 2.59025382636166E-0001	
 3.53050000000000E+0003	 2.58278073991431E-0001	
 3.53250000000000E+0003	 2.57524265346697E-0001	
 3.53450000000000E+0003	 2.56795456701963E-0001	
 3.53650000000000E+0003	 2.56034148057229E-0001	
 3.53850000000000E+0003	 2.55119839412495E-0001	
 3.54050000000000E+0003	 2.54197530767761E-0001	
 3.54250000000000E+0003	 2.53335722123027E-0001	
 3.54450000000000E+0003	 2.52403913478293E-0001	
 3.54650000000000E+0003	 2.51328604833559E-0001	
 3.54850000000000E+0003	 2.50254796188824E-0001	
 3.55050000000000E+0003	 2.49291987544090E-0001	
 3.55250000000000E+0003	 2.48313678899356E-0001	
 3.55450000000000E+0003	 2.47286870254622E-0001	
 3.55650000000000E+0003	 2.46279061609888E-0001	
 3.55850000000000E+0003	 2.45251252965154E-0001	
 3.56050000000000E+0003	 2.44160944320420E-0001	
 3.56250000000000E+0003	 2.42932635675686E-0001	
 3.56450000000000E+0003	 2.41546827030951E-0001	
 3.56650000000000E+0003	 2.40181518386217E-0001	
 3.56850000000000E+0003	 2.39159209741483E-0001	
 3.57050000000000E+0003	 2.38297901096749E-0001	
 3.57250000000000E+0003	 2.37206592452015E-0001	
 3.57450000000000E+0003	 2.35977283807281E-0001	
 3.57650000000000E+0003	 2.34748975162547E-0001	
 3.57850000000000E+0003	 2.33520666517813E-0001	
 3.58050000000000E+0003	 2.32281357873078E-0001	
 3.58250000000000E+0003	 2.31018549228344E-0001	
 3.58450000000000E+0003	 2.29729240583610E-0001	
 3.58650000000000E+0003	 2.28289431938876E-0001	
 3.58850000000000E+0003	 2.26698123294142E-0001	
 3.59050000000000E+0003	 2.25299814649408E-0001	
 3.59250000000000E+0003	 2.24005506004674E-0001	
 3.59450000000000E+0003	 2.22600197359940E-0001	
 3.59650000000000E+0003	 2.21170888715206E-0001	
 3.59850000000000E+0003	 2.19795080070471E-0001	
 3.60050000000000E+0003	 2.18381271425737E-0001	
 3.60250000000000E+0003	 2.16918962781003E-0001	
 3.60450000000000E+0003	 2.15393154136269E-0001	
 3.60650000000000E+0003	 2.13735345491535E-0001	
 3.60850000000000E+0003	 2.12037036846801E-0001	
 3.61050000000000E+0003	 2.10468728202067E-0001	
 3.61250000000000E+0003	 2.08930919557333E-0001	
 3.61450000000000E+0003	 2.07336110912598E-0001	
 3.61650000000000E+0003	 2.05878802267864E-0001	
 3.61850000000000E+0003	 2.04557993623130E-0001	
 3.62050000000000E+0003	 2.03072184978396E-0001	
 3.62250000000000E+0003	 2.01375376333662E-0001	
 3.62450000000000E+0003	 1.99640067688928E-0001	
 3.62650000000000E+0003	 1.98025759044194E-0001	
 3.62850000000000E+0003	 1.96473450399460E-0001	
 3.63050000000000E+0003	 1.94786641754725E-0001	
 3.63250000000000E+0003	 1.93166333109991E-0001	
 3.63450000000000E+0003	 1.91613524465257E-0001	
 3.63650000000000E+0003	 1.90051715820523E-0001	
 3.63850000000000E+0003	 1.88458907175789E-0001	
 3.64050000000000E+0003	 1.86808598531055E-0001	
 3.64250000000000E+0003	 1.85080789886321E-0001	
 3.64450000000000E+0003	 1.83315481241587E-0001	
 3.64650000000000E+0003	 1.81532172596853E-0001	
 3.64850000000000E+0003	 1.79852863952118E-0001	
 3.65050000000000E+0003	 1.78390555307384E-0001	
 3.65250000000000E+0003	 1.76964246662650E-0001	
 3.65450000000000E+0003	 1.75558438017916E-0001	
 3.65650000000000E+0003	 1.74175629373182E-0001	
 3.65850000000000E+0003	 1.72812820728448E-0001	
 3.66050000000000E+0003	 1.71447012083714E-0001	
 3.66250000000000E+0003	 1.69947703438980E-0001	
 3.66450000000000E+0003	 1.68432394794245E-0001	
 3.66650000000000E+0003	 1.67038086149511E-0001	
 3.66850000000000E+0003	 1.65693777504777E-0001	
 3.67050000000000E+0003	 1.64269968860043E-0001	
 3.67250000000000E+0003	 1.63000660215309E-0001	
 3.67450000000000E+0003	 1.61850851570575E-0001	
 3.67650000000000E+0003	 1.60648542925841E-0001	
 3.67850000000000E+0003	 1.59654234281107E-0001	
 3.68050000000000E+0003	 1.58719425636372E-0001	
 3.68250000000000E+0003	 1.57775116991638E-0001	
 3.68450000000000E+0003	 1.56878808346904E-0001	
 3.68650000000000E+0003	 1.56033499702170E-0001	
 3.68850000000000E+0003	 1.55296191057436E-0001	
 3.69050000000000E+0003	 1.54481382412702E-0001	
 3.69250000000000E+0003	 1.53573073767968E-0001	
 3.69450000000000E+0003	 1.52833765123234E-0001	
 3.69650000000000E+0003	 1.52169956478500E-0001	
 3.69850000000000E+0003	 1.51502147833765E-0001	
 3.70050000000000E+0003	 1.50860339189031E-0001	
 3.70250000000000E+0003	 1.50207030544297E-0001	
 3.70450000000000E+0003	 1.49555721899563E-0001	
 3.70650000000000E+0003	 1.48925413254829E-0001	
 3.70850000000000E+0003	 1.48274604610095E-0001	
 3.71050000000000E+0003	 1.47622295965361E-0001	
 3.71250000000000E+0003	 1.47079487320627E-0001	
 3.71450000000000E+0003	 1.46730178675892E-0001	
 3.71650000000000E+0003	 1.46384370031158E-0001	
 3.71850000000000E+0003	 1.45948561386424E-0001	
 3.72050000000000E+0003	 1.45461752741690E-0001	
 3.72250000000000E+0003	 1.44969944096956E-0001	
 3.72450000000000E+0003	 1.44537635452222E-0001	
 3.72650000000000E+0003	 1.44143326807488E-0001	
 3.72850000000000E+0003	 1.43783018162754E-0001	
 3.73050000000000E+0003	 1.43386209518019E-0001	
 3.73250000000000E+0003	 1.42981900873285E-0001	
 3.73450000000000E+0003	 1.42582092228551E-0001	
 3.73650000000000E+0003	 1.42148283583817E-0001	
 3.73850000000000E+0003	 1.41823474939083E-0001	
 3.74050000000000E+0003	 1.41564166294349E-0001	
 3.74250000000000E+0003	 1.41251857649615E-0001	
 3.74450000000000E+0003	 1.40841049004881E-0001	
 3.74650000000000E+0003	 1.40443740360147E-0001	
 3.74850000000000E+0003	 1.40080431715412E-0001	
 3.75050000000000E+0003	 1.39781623070678E-0001	
 3.75250000000000E+0003	 1.39643814425944E-0001	
 3.75450000000000E+0003	 1.39618505781210E-0001	
 3.75650000000000E+0003	 1.39522197136476E-0001	
 3.75850000000000E+0003	 1.39313888491742E-0001	
 3.76050000000000E+0003	 1.39105079847008E-0001	
 3.76250000000000E+0003	 1.38933771202274E-0001	
 3.76450000000000E+0003	 1.38733962557539E-0001	
 3.76650000000000E+0003	 1.38498653912805E-0001	
 3.76850000000000E+0003	 1.38288345268071E-0001	
 3.77050000000000E+0003	 1.38116536623337E-0001	
 3.77250000000000E+0003	 1.37981227978603E-0001	
 3.77450000000000E+0003	 1.37828919333869E-0001	
 3.77650000000000E+0003	 1.37634110689135E-0001	
 3.77850000000000E+0003	 1.37426802044401E-0001	
 3.78050000000000E+0003	 1.37221993399667E-0001	
 3.78250000000000E+0003	 1.37012684754932E-0001	
 3.78450000000000E+0003	 1.36817876110198E-0001	
 3.78650000000000E+0003	 1.36659567465464E-0001	
 3.78850000000000E+0003	 1.36551758820730E-0001	
 3.79050000000000E+0003	 1.36412450175996E-0001	
 3.79250000000000E+0003	 1.36192641531262E-0001	
 3.79450000000000E+0003	 1.35917832886528E-0001	
 3.79650000000000E+0003	 1.35641024241794E-0001	
 3.79850000000000E+0003	 1.35439215597059E-0001	
 3.80050000000000E+0003	 1.35209906952325E-0001	
 3.80250000000000E+0003	 1.34989598307591E-0001	
 3.80450000000000E+0003	 1.34923289662857E-0001	
 3.80650000000000E+0003	 1.34879481018123E-0001	
 3.80850000000000E+0003	 1.34832172373389E-0001	
 3.81050000000000E+0003	 1.34738863728655E-0001	
 3.81250000000000E+0003	 1.34577055083921E-0001	
 3.81450000000000E+0003	 1.34332246439186E-0001	
 3.81650000000000E+0003	 1.34085437794452E-0001	
 3.81850000000000E+0003	 1.34020129149718E-0001	
 3.82050000000000E+0003	 1.33969820504984E-0001	
 3.82250000000000E+0003	 1.33810011860250E-0001	
 3.82450000000000E+0003	 1.33682703215516E-0001	
 3.82650000000000E+0003	 1.33568394570782E-0001	
 3.82850000000000E+0003	 1.33459585926048E-0001	
 3.83050000000000E+0003	 1.33379777281314E-0001	
 3.83250000000000E+0003	 1.33324968636579E-0001	
 3.83450000000000E+0003	 1.33313159991845E-0001	
 3.83650000000000E+0003	 1.33204851347111E-0001	
 3.83850000000000E+0003	 1.32937042702377E-0001	
 3.84050000000000E+0003	 1.32741734057643E-0001	
 3.84250000000000E+0003	 1.32664425412909E-0001	
 3.84450000000000E+0003	 1.32654616768175E-0001	
 3.84650000000000E+0003	 1.32569808123441E-0001	
 3.84850000000000E+0003	 1.32387499478706E-0001	
 3.85050000000000E+0003	 1.32236690833972E-0001	
 3.85250000000000E+0003	 1.32365882189238E-0001	
 3.85450000000000E+0003	 1.32546573544504E-0001	
 3.85650000000000E+0003	 1.32378264899770E-0001	
 3.85850000000000E+0003	 1.32080956255036E-0001	
 3.86050000000000E+0003	 1.31928647610302E-0001	
 3.86250000000000E+0003	 1.31925338965568E-0001	
 3.86450000000000E+0003	 1.31863530320833E-0001	
 3.86650000000000E+0003	 1.31779721676099E-0001	
 3.86850000000000E+0003	 1.31696913031365E-0001	
 3.87050000000000E+0003	 1.31610604386631E-0001	
 3.87250000000000E+0003	 1.31582295741897E-0001	
 3.87450000000000E+0003	 1.31548987097163E-0001	
 3.87650000000000E+0003	 1.31474678452429E-0001	
 3.87850000000000E+0003	 1.31445369807695E-0001	
 3.88050000000000E+0003	 1.31363561162961E-0001	
 3.88250000000000E+0003	 1.31258752518226E-0001	
 3.88450000000000E+0003	 1.31234443873492E-0001	
 3.88650000000000E+0003	 1.31198635228758E-0001	
 3.88850000000000E+0003	 1.31233326584024E-0001	
 3.89050000000000E+0003	 1.31378517939290E-0001	
 3.89250000000000E+0003	 1.31352209294556E-0001	
 3.89450000000000E+0003	 1.31148400649822E-0001	
 3.89650000000000E+0003	 1.31036592005088E-0001	
 3.89850000000000E+0003	 1.30965283360353E-0001	
 3.90050000000000E+0003	 1.30762474715619E-0001	
 3.90250000000000E+0003	 1.30719666070885E-0001	
 3.90450000000000E+0003	 1.30943357426151E-0001	
 3.90650000000000E+0003	 1.31014048781417E-0001	
 3.90850000000000E+0003	 1.30942240136683E-0001	
 3.91050000000000E+0003	 1.30911431491949E-0001	
 3.91250000000000E+0003	 1.30871622847215E-0001	
 3.91450000000000E+0003	 1.30782314202480E-0001	
 3.91650000000000E+0003	 1.30677005557746E-0001	
 3.91850000000000E+0003	 1.30627696913012E-0001	
 3.92050000000000E+0003	 1.30654388268278E-0001	
 3.92250000000000E+0003	 1.30688079623544E-0001	
 3.92450000000000E+0003	 1.30720270978810E-0001	
 3.92650000000000E+0003	 1.30693462334076E-0001	
 3.92850000000000E+0003	 1.30615153689342E-0001	
 3.93050000000000E+0003	 1.30529345044608E-0001	
 3.93250000000000E+0003	 1.30455536399873E-0001	
 3.93450000000000E+0003	 1.30486727755139E-0001	
 3.93650000000000E+0003	 1.30551919110405E-0001	
 3.93850000000000E+0003	 1.30557110465671E-0001	
 3.94050000000000E+0003	 1.30528801820937E-0001	
 3.94250000000000E+0003	 1.30494493176203E-0001	
 3.94450000000000E+0003	 1.30405684531469E-0001	
 3.94650000000000E+0003	 1.30319375886735E-0001	
 3.94850000000000E+0003	 1.30308067242000E-0001	
 3.95050000000000E+0003	 1.30355758597266E-0001	
 3.95250000000000E+0003	 1.30392449952532E-0001	
 3.95450000000000E+0003	 1.30387641307798E-0001	
 3.95650000000000E+0003	 1.30365832663064E-0001	
 3.95850000000000E+0003	 1.30332024018330E-0001	
 3.96050000000000E+0003	 1.30292215373596E-0001	
 3.96250000000000E+0003	 1.30271906728862E-0001	
 3.96450000000000E+0003	 1.30280598084128E-0001	
 3.96650000000000E+0003	 1.30293789439393E-0001	
 3.96850000000000E+0003	 1.30279480794659E-0001	
 3.97050000000000E+0003	 1.30252172149925E-0001	
 3.97250000000000E+0003	 1.30228863505191E-0001	
 3.97450000000000E+0003	 1.30206554860457E-0001	
 3.97650000000000E+0003	 1.30188746215723E-0001	
 3.97850000000000E+0003	 1.30186937570989E-0001	
 3.98050000000000E+0003	 1.30191128926255E-0001	
 3.98250000000000E+0003	 1.30199820281520E-0001	
 3.98450000000000E+0003	 1.30201011636786E-0001	
 3.98650000000000E+0003	 1.30174202992052E-0001	
 3.98850000000000E+0003	 1.30131394347318E-0001	
 3.99050000000000E+0003	 1.30106585702584E-0001	
 3.99250000000000E+0003	 1.30098777057850E-0001	
 3.99450000000000E+0003	 1.30098968413116E-0001	
 3.99650000000000E+0003	 1.30089659768382E-0001	
 3.99850000000000E+0003	 1.30069566176471E-0001	

>1	DATALINE
