*CPCWIN*

>1	DATALINE
DATALINE
1
Operator:

Description:

Remarks:





15.9.2008
11:29


_x	_y
	
	
UNIT	UNIT
 4.50500000000000E+0002	 1.59352289346526E-0001	
 4.52500000000000E+0002	 1.60408124840239E-0001	
 4.54500000000000E+0002	 1.61076460333952E-0001	
 4.56500000000000E+0002	 1.61263295827664E-0001	
 4.58500000000000E+0002	 1.61879131321377E-0001	
 4.60500000000000E+0002	 1.62929466815090E-0001	
 4.62500000000000E+0002	 1.63941302308802E-0001	
 4.64500000000000E+0002	 1.64773137802515E-0001	
 4.66500000000000E+0002	 1.65657473296228E-0001	
 4.68500000000000E+0002	 1.66429308789940E-0001	
 4.70500000000000E+0002	 1.67048144283653E-0001	
 4.72500000000000E+0002	 1.67419479777365E-0001	
 4.74500000000000E+0002	 1.68287815271078E-0001	
 4.76500000000000E+0002	 1.69302150764791E-0001	
 4.78500000000000E+0002	 1.70255986258503E-0001	
 4.80500000000000E+0002	 1.70960821752216E-0001	
 4.82500000000000E+0002	 1.71712157245929E-0001	
 4.84500000000000E+0002	 1.72440992739641E-0001	
 4.86500000000000E+0002	 1.73358828233354E-0001	
 4.88500000000000E+0002	 1.74330163727067E-0001	
 4.90500000000000E+0002	 1.75312999220779E-0001	
 4.92500000000000E+0002	 1.76200334714492E-0001	
 4.94500000000000E+0002	 1.77187670208204E-0001	
 4.96500000000000E+0002	 1.78049505701917E-0001	
 4.98500000000000E+0002	 1.78973841195630E-0001	
 5.00500000000000E+0002	 1.79646176689342E-0001	
 5.02500000000000E+0002	 1.80506512183055E-0001	
 5.04500000000000E+0002	 1.81635347676768E-0001	
 5.06500000000000E+0002	 1.82732683170480E-0001	
 5.08500000000000E+0002	 1.83647018664193E-0001	
 5.10500000000000E+0002	 1.84624354157906E-0001	
 5.12500000000000E+0002	 1.85539189651618E-0001	
 5.14500000000000E+0002	 1.86476525145331E-0001	
 5.16500000000000E+0002	 1.87256360639043E-0001	
 5.18500000000000E+0002	 1.88218696132756E-0001	
 5.20500000000000E+0002	 1.89154531626469E-0001	
 5.22500000000000E+0002	 1.89916367120181E-0001	
 5.24500000000000E+0002	 1.90447202613894E-0001	
 5.26500000000000E+0002	 1.91482538107607E-0001	
 5.28500000000000E+0002	 1.92416373601319E-0001	
 5.30500000000000E+0002	 1.92792709095032E-0001	
 5.32500000000000E+0002	 1.92846544588745E-0001	
 5.34500000000000E+0002	 1.92947380082457E-0001	
 5.36500000000000E+0002	 1.92859715576170E-0001	
 5.38500000000000E+0002	 1.92617551069882E-0001	
 5.40500000000000E+0002	 1.92174886563595E-0001	
 5.42500000000000E+0002	 1.91696222057308E-0001	
 5.44500000000000E+0002	 1.91147057551020E-0001	
 5.46500000000000E+0002	 1.90618393044733E-0001	
 5.48500000000000E+0002	 1.90076728538446E-0001	
 5.50500000000000E+0002	 1.89682064032158E-0001	
 5.52500000000000E+0002	 1.89316899525871E-0001	
 5.54500000000000E+0002	 1.89076735019584E-0001	
 5.56500000000000E+0002	 1.88932570513296E-0001	
 5.58500000000000E+0002	 1.88895406007009E-0001	
 5.60500000000000E+0002	 1.88757241500722E-0001	
 5.62500000000000E+0002	 1.88566576994434E-0001	
 5.64500000000000E+0002	 1.88314912488147E-0001	
 5.66500000000000E+0002	 1.88149747981859E-0001	
 5.68500000000000E+0002	 1.88005083475572E-0001	
 5.70500000000000E+0002	 1.87860418969285E-0001	
 5.72500000000000E+0002	 1.87649754462997E-0001	
 5.74500000000000E+0002	 1.87474589956710E-0001	
 5.76500000000000E+0002	 1.87240925450423E-0001	
 5.78500000000000E+0002	 1.86940260944135E-0001	
 5.80500000000000E+0002	 1.86303596437848E-0001	
 5.82500000000000E+0002	 1.85514431931561E-0001	
 5.84500000000000E+0002	 1.84722267425273E-0001	
 5.86500000000000E+0002	 1.84166602918986E-0001	
 5.88500000000000E+0002	 1.83819938412698E-0001	
 5.90500000000000E+0002	 1.83702273906411E-0001	
 5.92500000000000E+0002	 1.83736609400124E-0001	
 5.94500000000000E+0002	 1.83907444893836E-0001	
 5.96500000000000E+0002	 1.83997780387549E-0001	
 5.98500000000000E+0002	 1.84039615881262E-0001	
 6.00500000000000E+0002	 1.84076451374974E-0001	
 6.02500000000000E+0002	 1.84211786868687E-0001	
 6.04500000000000E+0002	 1.84335622362400E-0001	
 6.06500000000000E+0002	 1.84530457856112E-0001	
 6.08500000000000E+0002	 1.84663793349825E-0001	
 6.10500000000000E+0002	 1.84772128843537E-0001	
 6.12500000000000E+0002	 1.84791464337250E-0001	
 6.14500000000000E+0002	 1.84758799830963E-0001	
 6.16500000000000E+0002	 1.84565635324675E-0001	
 6.18500000000000E+0002	 1.84010970818388E-0001	
 6.20500000000000E+0002	 1.83099806312101E-0001	
 6.22500000000000E+0002	 1.82262641805813E-0001	
 6.24500000000000E+0002	 1.81448977299526E-0001	
 6.26500000000000E+0002	 1.80787812793239E-0001	
 6.28500000000000E+0002	 1.80211148286951E-0001	
 6.30500000000000E+0002	 1.79748483780664E-0001	
 6.32500000000000E+0002	 1.79267819274376E-0001	
 6.34500000000000E+0002	 1.78835654768089E-0001	
 6.36500000000000E+0002	 1.78448490261802E-0001	
 6.38500000000000E+0002	 1.78224825755514E-0001	
 6.40500000000000E+0002	 1.77930161249227E-0001	
 6.42500000000000E+0002	 1.77563996742940E-0001	
 6.44500000000000E+0002	 1.77033332236652E-0001	
 6.46500000000000E+0002	 1.76517167730365E-0001	
 6.48500000000000E+0002	 1.75983003224078E-0001	
 6.50500000000000E+0002	 1.75428838717790E-0001	
 6.52500000000000E+0002	 1.74872174211503E-0001	
 6.54500000000000E+0002	 1.74565009705215E-0001	
 6.56500000000000E+0002	 1.74361345198928E-0001	
 6.58500000000000E+0002	 1.74235680692641E-0001	
 6.60500000000000E+0002	 1.74139016186353E-0001	
 6.62500000000000E+0002	 1.73913351680066E-0001	
 6.64500000000000E+0002	 1.72403187173779E-0001	
 6.66500000000000E+0002	 1.67914022667491E-0001	
 6.68500000000000E+0002	 1.66405858161204E-0001	
 6.70500000000000E+0002	 1.70385693654917E-0001	
 6.72500000000000E+0002	 1.71250529148629E-0001	
 6.74500000000000E+0002	 1.70610864642342E-0001	
 6.76500000000000E+0002	 1.69696700136054E-0001	
 6.78500000000000E+0002	 1.68831035629767E-0001	
 6.80500000000000E+0002	 1.68051371123480E-0001	
 6.82500000000000E+0002	 1.67455206617192E-0001	
 6.84500000000000E+0002	 1.66939542110905E-0001	
 6.86500000000000E+0002	 1.66569377604618E-0001	
 6.88500000000000E+0002	 1.66150213098330E-0001	
 6.90500000000000E+0002	 1.65891048592043E-0001	
 6.92500000000000E+0002	 1.65711884085756E-0001	
 6.94500000000000E+0002	 1.65684719579468E-0001	
 6.96500000000000E+0002	 1.65666555073181E-0001	
 6.98500000000000E+0002	 1.65653890566893E-0001	
 7.00500000000000E+0002	 1.65485226060606E-0001	
 7.02500000000000E+0002	 1.65148061554319E-0001	
 7.04500000000000E+0002	 1.64512397048031E-0001	
 7.06500000000000E+0002	 1.63771732541744E-0001	
 7.08500000000000E+0002	 1.62857568035457E-0001	
 7.10500000000000E+0002	 1.61894903529169E-0001	
 7.12500000000000E+0002	 1.60828239022882E-0001	
 7.14500000000000E+0002	 1.59695574516595E-0001	
 7.16500000000000E+0002	 1.58561910010307E-0001	
 7.18500000000000E+0002	 1.57776245504020E-0001	
 7.20500000000000E+0002	 1.56961080997732E-0001	
 7.22500000000000E+0002	 1.55771916491445E-0001	
 7.24500000000000E+0002	 1.54535251985158E-0001	
 7.26500000000000E+0002	 1.53383587478870E-0001	
 7.28500000000000E+0002	 1.52174922972583E-0001	
 7.30500000000000E+0002	 1.51033758466296E-0001	
 7.32500000000000E+0002	 1.49921093960008E-0001	
 7.34500000000000E+0002	 1.48979929453721E-0001	
 7.36500000000000E+0002	 1.48117764947434E-0001	
 7.38500000000000E+0002	 1.47355100441146E-0001	
 7.40500000000000E+0002	 1.46609435934859E-0001	
 7.42500000000000E+0002	 1.45955771428571E-0001	
 7.44500000000000E+0002	 1.45313606922284E-0001	
 7.46500000000000E+0002	 1.44735442415997E-0001	
 7.48500000000000E+0002	 1.44121777909709E-0001	
 7.50500000000000E+0002	 1.43522113403422E-0001	
 7.52500000000000E+0002	 1.42831948897135E-0001	
 7.54500000000000E+0002	 1.42117284390847E-0001	
 7.56500000000000E+0002	 1.41291119884560E-0001	
 7.58500000000000E+0002	 1.40444955378273E-0001	
 7.60500000000000E+0002	 1.39603290871985E-0001	
 7.62500000000000E+0002	 1.38909626365698E-0001	
 7.64500000000000E+0002	 1.38211961859410E-0001	
 7.66500000000000E+0002	 1.37466297353123E-0001	
 7.68500000000000E+0002	 1.36550132846836E-0001	
 7.70500000000000E+0002	 1.35665468340548E-0001	
 7.72500000000000E+0002	 1.34899803834261E-0001	
 7.74500000000000E+0002	 1.34464139327974E-0001	
 7.76500000000000E+0002	 1.34432974821686E-0001	
 7.78500000000000E+0002	 1.34662310315399E-0001	
 7.80500000000000E+0002	 1.34445645809112E-0001	
 7.82500000000000E+0002	 1.33625481302824E-0001	
 7.84500000000000E+0002	 1.32618316796537E-0001	
 7.86500000000000E+0002	 1.31874152290249E-0001	
 7.88500000000000E+0002	 1.31265487783962E-0001	
 7.90500000000000E+0002	 1.30847323277675E-0001	
 7.92500000000000E+0002	 1.30718158771387E-0001	
 7.94500000000000E+0002	 1.31009994265100E-0001	
 7.96500000000000E+0002	 1.31436829758813E-0001	
 7.98500000000000E+0002	 1.31865665252525E-0001	
 8.00500000000000E+0002	 1.32224500746238E-0001	
 8.02500000000000E+0002	 1.32456836239951E-0001	
 8.04500000000000E+0002	 1.32233671733663E-0001	
 8.06500000000000E+0002	 1.31475007227376E-0001	
 8.08500000000000E+0002	 1.30276342721088E-0001	
 8.10500000000000E+0002	 1.29046178214801E-0001	
 8.12500000000000E+0002	 1.27898513708514E-0001	
 8.14500000000000E+0002	 1.26959349202226E-0001	
 8.16500000000000E+0002	 1.26184684695939E-0001	
 8.18500000000000E+0002	 1.25632020189652E-0001	
 8.20500000000000E+0002	 1.25193355683364E-0001	
 8.22500000000000E+0002	 1.24915191177077E-0001	
 8.24500000000000E+0002	 1.24705526670790E-0001	
 8.26500000000000E+0002	 1.24578862164502E-0001	
 8.28500000000000E+0002	 1.24474197658215E-0001	
 8.30500000000000E+0002	 1.24519033151927E-0001	
 8.32500000000000E+0002	 1.24655868645640E-0001	
 8.34500000000000E+0002	 1.24921204139353E-0001	
 8.36500000000000E+0002	 1.25196039633065E-0001	
 8.38500000000000E+0002	 1.25507375126778E-0001	
 8.40500000000000E+0002	 1.25766710620491E-0001	
 8.42500000000000E+0002	 1.26045046114203E-0001	
 8.44500000000000E+0002	 1.26318381607916E-0001	
 8.46500000000000E+0002	 1.26698217101629E-0001	
 8.48500000000000E+0002	 1.27125552595341E-0001	
 8.50500000000000E+0002	 1.27637888089054E-0001	
 8.52500000000000E+0002	 1.28200223582766E-0001	
 8.54500000000000E+0002	 1.28816559076479E-0001	
 8.56500000000000E+0002	 1.29356894570192E-0001	
 8.58500000000000E+0002	 1.29832230063904E-0001	
 8.60500000000000E+0002	 1.30113065557617E-0001	
 8.62500000000000E+0002	 1.30194401051330E-0001	
 8.64500000000000E+0002	 1.30022736545042E-0001	
 8.66500000000000E+0002	 1.29726072038755E-0001	
 8.68500000000000E+0002	 1.29535407532468E-0001	
 8.70500000000000E+0002	 1.29951243026180E-0001	
 8.72500000000000E+0002	 1.30359078519893E-0001	
 8.74500000000000E+0002	 1.29703914013605E-0001	
 8.76500000000000E+0002	 1.28383749507318E-0001	
 8.78500000000000E+0002	 1.27255085001031E-0001	
 8.80500000000000E+0002	 1.26376920494743E-0001	
 8.82500000000000E+0002	 1.25721755988456E-0001	
 8.84500000000000E+0002	 1.25185591482169E-0001	
 8.86500000000000E+0002	 1.24796426975881E-0001	
 8.88500000000000E+0002	 1.24525762469594E-0001	
 8.90500000000000E+0002	 1.24447097963307E-0001	
 8.92500000000000E+0002	 1.24516933457019E-0001	
 8.94500000000000E+0002	 1.24708268950732E-0001	
 8.96500000000000E+0002	 1.24883604444444E-0001	
 8.98500000000000E+0002	 1.25019939938157E-0001	
 9.00500000000000E+0002	 1.25083775431870E-0001	
 9.02500000000000E+0002	 1.25214610925582E-0001	
 9.04500000000000E+0002	 1.25518946419295E-0001	
 9.06500000000000E+0002	 1.26058281913008E-0001	
 9.08500000000000E+0002	 1.26730617406720E-0001	
 9.10500000000000E+0002	 1.27446952900433E-0001	
 9.12500000000000E+0002	 1.28034288394146E-0001	
 9.14500000000000E+0002	 1.28436623887858E-0001	
 9.16500000000000E+0002	 1.28567459381571E-0001	
 9.18500000000000E+0002	 1.28445794875283E-0001	
 9.20500000000000E+0002	 1.28182630368996E-0001	
 9.22500000000000E+0002	 1.27989465862709E-0001	
 9.24500000000000E+0002	 1.27968301356421E-0001	
 9.26500000000000E+0002	 1.28233636850134E-0001	
 9.28500000000000E+0002	 1.28794972343847E-0001	
 9.30500000000000E+0002	 1.29587307837559E-0001	
 9.32500000000000E+0002	 1.30493143331272E-0001	
 9.34500000000000E+0002	 1.31426478824985E-0001	
 9.36500000000000E+0002	 1.32321314318697E-0001	
 9.38500000000000E+0002	 1.33160649812410E-0001	
 9.40500000000000E+0002	 1.33885985306122E-0001	
 9.42500000000000E+0002	 1.34472320799835E-0001	
 9.44500000000000E+0002	 1.34843656293548E-0001	
 9.46500000000000E+0002	 1.34964491787260E-0001	
 9.48500000000000E+0002	 1.34882327280973E-0001	
 9.50500000000000E+0002	 1.34699662774686E-0001	
 9.52500000000000E+0002	 1.34611498268398E-0001	
 9.54500000000000E+0002	 1.34861333762111E-0001	
 9.56500000000000E+0002	 1.35550669255824E-0001	
 9.58500000000000E+0002	 1.36696504749536E-0001	
 9.60500000000000E+0002	 1.38248340243249E-0001	
 9.62500000000000E+0002	 1.40062675736961E-0001	
 9.64500000000000E+0002	 1.42056511230674E-0001	
 9.66500000000000E+0002	 1.44151346724387E-0001	
 9.68500000000000E+0002	 1.46344682218099E-0001	
 9.70500000000000E+0002	 1.48745017711812E-0001	
 9.72500000000000E+0002	 1.51636853205525E-0001	
 9.74500000000000E+0002	 1.55314188699237E-0001	
 9.76500000000000E+0002	 1.60072024192950E-0001	
 9.78500000000000E+0002	 1.66048859686663E-0001	
 9.80500000000000E+0002	 1.73108695180375E-0001	
 9.82500000000000E+0002	 1.80739530674088E-0001	
 9.84500000000000E+0002	 1.88214366167800E-0001	
 9.86500000000000E+0002	 1.94731701661513E-0001	
 9.88500000000000E+0002	 1.99733537155226E-0001	
 9.90500000000000E+0002	 2.02900872648938E-0001	
 9.92500000000000E+0002	 2.04204208142651E-0001	
 9.94500000000000E+0002	 2.03818043636364E-0001	
 9.96500000000000E+0002	 2.02200379130076E-0001	
 9.98500000000000E+0002	 1.99985214623789E-0001	
 1.00050000000000E+0003	 1.97949050117502E-0001	
 1.00250000000000E+0003	 1.96725385611214E-0001	
 1.00450000000000E+0003	 1.96798721104927E-0001	
 1.00650000000000E+0003	 1.98256556598639E-0001	
 1.00850000000000E+0003	 2.00885392092352E-0001	
 1.01050000000000E+0003	 2.04198227586065E-0001	
 1.01250000000000E+0003	 2.07749063079777E-0001	
 1.01450000000000E+0003	 2.11140898573490E-0001	
 1.01650000000000E+0003	 2.14296234067203E-0001	
 1.01850000000000E+0003	 2.17341069560915E-0001	
 1.02050000000000E+0003	 2.20589405054628E-0001	
 1.02250000000000E+0003	 2.24243240548341E-0001	
 1.02450000000000E+0003	 2.28369576042053E-0001	
 1.02650000000000E+0003	 2.32642411535766E-0001	
 1.02850000000000E+0003	 2.36597747029478E-0001	
 1.03050000000000E+0003	 2.39757582523191E-0001	
 1.03250000000000E+0003	 2.41942918016904E-0001	
 1.03450000000000E+0003	 2.43189753510616E-0001	
 1.03650000000000E+0003	 2.43847589004329E-0001	
 1.03850000000000E+0003	 2.44254924498042E-0001	
 1.04050000000000E+0003	 2.44805759991754E-0001	
 1.04250000000000E+0003	 2.45703595485467E-0001	
 1.04450000000000E+0003	 2.47028430979180E-0001	
 1.04650000000000E+0003	 2.48532766472892E-0001	
 1.04850000000000E+0003	 2.49832601966605E-0001	
 1.05050000000000E+0003	 2.50496437460317E-0001	
 1.05250000000000E+0003	 2.50476272954030E-0001	
 1.05450000000000E+0003	 2.49965608447743E-0001	
 1.05650000000000E+0003	 2.49360943941455E-0001	
 1.05850000000000E+0003	 2.48814779435168E-0001	
 1.06050000000000E+0003	 2.48284114928881E-0001	
 1.06250000000000E+0003	 2.47661950422593E-0001	
 1.06450000000000E+0003	 2.47159285916306E-0001	
 1.06650000000000E+0003	 2.47045621410019E-0001	
 1.06850000000000E+0003	 2.47561956903731E-0001	
 1.07050000000000E+0003	 2.48657292397444E-0001	
 1.07250000000000E+0003	 2.50144627891156E-0001	
 1.07450000000000E+0003	 2.51581963384869E-0001	
 1.07650000000000E+0003	 2.52562298878582E-0001	
 1.07850000000000E+0003	 2.52668634372294E-0001	
 1.08050000000000E+0003	 2.51766469866007E-0001	
 1.08250000000000E+0003	 2.49934305359720E-0001	
 1.08450000000000E+0003	 2.47435140853432E-0001	
 1.08650000000000E+0003	 2.44527976347145E-0001	
 1.08850000000000E+0003	 2.41534811840858E-0001	
 1.09050000000000E+0003	 2.38692647334570E-0001	
 1.09250000000000E+0003	 2.36293982828283E-0001	
 1.09450000000000E+0003	 2.34469318321995E-0001	
 1.09650000000000E+0003	 2.33274153815708E-0001	
 1.09850000000000E+0003	 2.32519489309421E-0001	
 1.10050000000000E+0003	 2.32065324803133E-0001	
 1.10250000000000E+0003	 2.31700160296846E-0001	
 1.10450000000000E+0003	 2.31273495790559E-0001	
 1.10650000000000E+0003	 2.30672331284271E-0001	
 1.10850000000000E+0003	 2.29956166777984E-0001	
 1.11050000000000E+0003	 2.29122002271697E-0001	
 1.11250000000000E+0003	 2.28110837765409E-0001	
 1.11450000000000E+0003	 2.26705673259122E-0001	
 1.11650000000000E+0003	 2.24796508752834E-0001	
 1.11850000000000E+0003	 2.22335844246547E-0001	
 1.12050000000000E+0003	 2.19441179740260E-0001	
 1.12250000000000E+0003	 2.16192515233972E-0001	
 1.12450000000000E+0003	 2.12668850727685E-0001	
 1.12650000000000E+0003	 2.08884186221398E-0001	
 1.12850000000000E+0003	 2.04937521715110E-0001	
 1.13050000000000E+0003	 2.00931357208823E-0001	
 1.13250000000000E+0003	 1.97103692702536E-0001	
 1.13450000000000E+0003	 1.93652028196248E-0001	
 1.13650000000000E+0003	 1.90800363689961E-0001	
 1.13850000000000E+0003	 1.88781199183673E-0001	
 1.14050000000000E+0003	 1.87816534677386E-0001	
 1.14250000000000E+0003	 1.87899870171099E-0001	
 1.14450000000000E+0003	 1.88757705664811E-0001	
 1.14650000000000E+0003	 1.89853041158524E-0001	
 1.14850000000000E+0003	 1.90584876652237E-0001	
 1.15050000000000E+0003	 1.90433712145949E-0001	
 1.15250000000000E+0003	 1.89210047639662E-0001	
 1.15450000000000E+0003	 1.86988883133375E-0001	
 1.15650000000000E+0003	 1.84016718627087E-0001	
 1.15850000000000E+0003	 1.80627554120800E-0001	
 1.16050000000000E+0003	 1.77141889614512E-0001	
 1.16250000000000E+0003	 1.73751225108225E-0001	
 1.16450000000000E+0003	 1.70589060601938E-0001	
 1.16650000000000E+0003	 1.67707896095650E-0001	
 1.16850000000000E+0003	 1.65151731589363E-0001	
 1.17050000000000E+0003	 1.62910067083076E-0001	
 1.17250000000000E+0003	 1.60897402576788E-0001	
 1.17450000000000E+0003	 1.59010238070501E-0001	
 1.17650000000000E+0003	 1.57270573564214E-0001	
 1.17850000000000E+0003	 1.55811909057926E-0001	
 1.18050000000000E+0003	 1.54753244551639E-0001	
 1.18250000000000E+0003	 1.54183580045351E-0001	
 1.18450000000000E+0003	 1.54193415539064E-0001	
 1.18650000000000E+0003	 1.54859251032777E-0001	
 1.18850000000000E+0003	 1.56191586526489E-0001	
 1.19050000000000E+0003	 1.58182922020202E-0001	
 1.19250000000000E+0003	 1.60769757513915E-0001	
 1.19450000000000E+0003	 1.63851093007627E-0001	
 1.19650000000000E+0003	 1.67311928501340E-0001	
 1.19850000000000E+0003	 1.71003763995053E-0001	
 1.20050000000000E+0003	 1.74668099488765E-0001	
 1.20250000000000E+0003	 1.78115934982478E-0001	
 1.20450000000000E+0003	 1.81181270476190E-0001	
 1.20650000000000E+0003	 1.83779605969903E-0001	
 1.20850000000000E+0003	 1.85883441463616E-0001	
 1.21050000000000E+0003	 1.87689276957328E-0001	
 1.21250000000000E+0003	 1.89532612451041E-0001	
 1.21450000000000E+0003	 1.91706447944754E-0001	
 1.21650000000000E+0003	 1.93803783438466E-0001	
 1.21850000000000E+0003	 1.94921618932179E-0001	
 1.22050000000000E+0003	 1.95177454425892E-0001	
 1.22250000000000E+0003	 1.95824789919604E-0001	
 1.22450000000000E+0003	 1.97015625413317E-0001	
 1.22650000000000E+0003	 1.98241460907029E-0001	
 1.22850000000000E+0003	 1.99230796400742E-0001	
 1.23050000000000E+0003	 1.99919631894455E-0001	
 1.23250000000000E+0003	 2.00226467388167E-0001	
 1.23450000000000E+0003	 2.00183302881880E-0001	
 1.23650000000000E+0003	 1.99779138375593E-0001	
 1.23850000000000E+0003	 1.99117973869305E-0001	
 1.24050000000000E+0003	 1.98242309363018E-0001	
 1.24250000000000E+0003	 1.97219144856731E-0001	
 1.24450000000000E+0003	 1.96044480350443E-0001	
 1.24650000000000E+0003	 1.94729815844156E-0001	
 1.24850000000000E+0003	 1.93257651337868E-0001	
 1.25050000000000E+0003	 1.91697986831581E-0001	
 1.25250000000000E+0003	 1.90041822325294E-0001	
 1.25450000000000E+0003	 1.88349157819006E-0001	
 1.25650000000000E+0003	 1.86617493312719E-0001	
 1.25850000000000E+0003	 1.84868828806432E-0001	
 1.26050000000000E+0003	 1.83072164300144E-0001	
 1.26250000000000E+0003	 1.81228499793857E-0001	
 1.26450000000000E+0003	 1.79348835287570E-0001	
 1.26650000000000E+0003	 1.77535170781282E-0001	
 1.26850000000000E+0003	 1.75825006274995E-0001	
 1.27050000000000E+0003	 1.74290341768707E-0001	
 1.27250000000000E+0003	 1.72915177262420E-0001	
 1.27450000000000E+0003	 1.71686512756133E-0001	
 1.27650000000000E+0003	 1.70570848249845E-0001	
 1.27850000000000E+0003	 1.69599683743558E-0001	
 1.28050000000000E+0003	 1.68735019237271E-0001	
 1.28250000000000E+0003	 1.67843854730983E-0001	
 1.28450000000000E+0003	 1.66816690224696E-0001	
 1.28650000000000E+0003	 1.65765025718409E-0001	
 1.28850000000000E+0003	 1.64800861212121E-0001	
 1.29050000000000E+0003	 1.63997696705834E-0001	
 1.29250000000000E+0003	 1.63356532199546E-0001	
 1.29450000000000E+0003	 1.62891367693259E-0001	
 1.29650000000000E+0003	 1.62603203186972E-0001	
 1.29850000000000E+0003	 1.62514038680684E-0001	
 1.30050000000000E+0003	 1.62597374174397E-0001	
 1.30250000000000E+0003	 1.62794709668110E-0001	
 1.30450000000000E+0003	 1.63022545161822E-0001	
 1.30650000000000E+0003	 1.63240880655535E-0001	
 1.30850000000000E+0003	 1.63466216149248E-0001	
 1.31050000000000E+0003	 1.63686051642960E-0001	
 1.31250000000000E+0003	 1.63901387136673E-0001	
 1.31450000000000E+0003	 1.64045222630385E-0001	
 1.31650000000000E+0003	 1.64041058124098E-0001	
 1.31850000000000E+0003	 1.63899393617811E-0001	
 1.32050000000000E+0003	 1.63626729111523E-0001	
 1.32250000000000E+0003	 1.63249564605236E-0001	
 1.32450000000000E+0003	 1.62861900098949E-0001	
 1.32650000000000E+0003	 1.62518735592661E-0001	
 1.32850000000000E+0003	 1.62298071086374E-0001	
 1.33050000000000E+0003	 1.62186906580087E-0001	
 1.33250000000000E+0003	 1.62168242073799E-0001	
 1.33450000000000E+0003	 1.62100077567512E-0001	
 1.33650000000000E+0003	 1.61911913061224E-0001	
 1.33850000000000E+0003	 1.61685748554937E-0001	
 1.34050000000000E+0003	 1.61495584048650E-0001	
 1.34250000000000E+0003	 1.61200919542362E-0001	
 1.34450000000000E+0003	 1.60814755036075E-0001	
 1.34650000000000E+0003	 1.60299590529788E-0001	
 1.34850000000000E+0003	 1.59862426023500E-0001	
 1.35050000000000E+0003	 1.59543761517213E-0001	
 1.35250000000000E+0003	 1.59348597010926E-0001	
 1.35450000000000E+0003	 1.59222432504638E-0001	
 1.35650000000000E+0003	 1.59177267998351E-0001	
 1.35850000000000E+0003	 1.59286603492063E-0001	
 1.36050000000000E+0003	 1.59754438985776E-0001	
 1.36250000000000E+0003	 1.60937274479489E-0001	
 1.36450000000000E+0003	 1.63083609973201E-0001	
 1.36650000000000E+0003	 1.65470445466914E-0001	
 1.36850000000000E+0003	 1.67760280960627E-0001	
 1.37050000000000E+0003	 1.69797616454339E-0001	
 1.37250000000000E+0003	 1.71381951948052E-0001	
 1.37450000000000E+0003	 1.72747287441765E-0001	
 1.37650000000000E+0003	 1.73812622935477E-0001	
 1.37850000000000E+0003	 1.74437958429190E-0001	
 1.38050000000000E+0003	 1.74665793922902E-0001	
 1.38250000000000E+0003	 1.74691129416615E-0001	
 1.38450000000000E+0003	 1.74448464910328E-0001	
 1.38650000000000E+0003	 1.73982800404040E-0001	
 1.38850000000000E+0003	 1.73699635897753E-0001	
 1.39050000000000E+0003	 1.73706971391466E-0001	
 1.39250000000000E+0003	 1.73871306885178E-0001	
 1.39450000000000E+0003	 1.74157642378891E-0001	
 1.39650000000000E+0003	 1.74641977872604E-0001	
 1.39850000000000E+0003	 1.75318313366316E-0001	
 1.40050000000000E+0003	 1.76137148860029E-0001	
 1.40250000000000E+0003	 1.76683484353741E-0001	
 1.40450000000000E+0003	 1.76817319847454E-0001	
 1.40650000000000E+0003	 1.76838155341167E-0001	
 1.40850000000000E+0003	 1.76828990834879E-0001	
 1.41050000000000E+0003	 1.76692326328592E-0001	
 1.41250000000000E+0003	 1.76393161822305E-0001	
 1.41450000000000E+0003	 1.75911497316017E-0001	
 1.41650000000000E+0003	 1.74942832809730E-0001	
 1.41850000000000E+0003	 1.74107668303443E-0001	
 1.42050000000000E+0003	 1.73356503797155E-0001	
 1.42250000000000E+0003	 1.72669839290868E-0001	
 1.42450000000000E+0003	 1.71829174784580E-0001	
 1.42650000000000E+0003	 1.70717010278293E-0001	
 1.42850000000000E+0003	 1.69572345772006E-0001	
 1.43050000000000E+0003	 1.68705681265718E-0001	
 1.43250000000000E+0003	 1.68243016759431E-0001	
 1.43450000000000E+0003	 1.67819852253144E-0001	
 1.43650000000000E+0003	 1.67608187746856E-0001	
 1.43850000000000E+0003	 1.68618023240569E-0001	
 1.44050000000000E+0003	 1.70097858734282E-0001	
 1.44250000000000E+0003	 1.71344194227994E-0001	
 1.44450000000000E+0003	 1.72209529721707E-0001	
 1.44650000000000E+0003	 1.73033865215420E-0001	
 1.44850000000000E+0003	 1.73990700709132E-0001	
 1.45050000000000E+0003	 1.75131536202845E-0001	
 1.45250000000000E+0003	 1.75925871696557E-0001	
 1.45450000000000E+0003	 1.75931707190270E-0001	
 1.45650000000000E+0003	 1.75273042683983E-0001	
 1.45850000000000E+0003	 1.74085378177695E-0001	
 1.46050000000000E+0003	 1.72870713671408E-0001	
 1.46250000000000E+0003	 1.71610549165121E-0001	
 1.46450000000000E+0003	 1.69400884658833E-0001	
 1.46650000000000E+0003	 1.67078720152546E-0001	
 1.46850000000000E+0003	 1.64689055646259E-0001	
 1.47050000000000E+0003	 1.61455891139971E-0001	
 1.47250000000000E+0003	 1.57528226633684E-0001	
 1.47450000000000E+0003	 1.53733062127396E-0001	
 1.47650000000000E+0003	 1.51044397621109E-0001	
 1.47850000000000E+0003	 1.49431233114822E-0001	
 1.48050000000000E+0003	 1.48356068608534E-0001	
 1.48250000000000E+0003	 1.47504404102247E-0001	
 1.48450000000000E+0003	 1.46880739595960E-0001	
 1.48650000000000E+0003	 1.46516575089672E-0001	
 1.48850000000000E+0003	 1.46582910583385E-0001	
 1.49050000000000E+0003	 1.47637246077098E-0001	
 1.49250000000000E+0003	 1.49507081570810E-0001	
 1.49450000000000E+0003	 1.51893417064523E-0001	
 1.49650000000000E+0003	 1.54064252558235E-0001	
 1.49850000000000E+0003	 1.55984088051948E-0001	
 1.50050000000000E+0003	 1.58419423545661E-0001	
 1.50250000000000E+0003	 1.61223259039373E-0001	
 1.50450000000000E+0003	 1.63566594533086E-0001	
 1.50650000000000E+0003	 1.67056430026799E-0001	
 1.50850000000000E+0003	 1.71168265520511E-0001	
 1.51050000000000E+0003	 1.75427101014224E-0001	
 1.51250000000000E+0003	 1.80371436507937E-0001	
 1.51450000000000E+0003	 1.84652272001649E-0001	
 1.51650000000000E+0003	 1.88500107495362E-0001	
 1.51850000000000E+0003	 1.91798442989074E-0001	
 1.52050000000000E+0003	 1.95245778482787E-0001	
 1.52250000000000E+0003	 1.98701113976500E-0001	
 1.52450000000000E+0003	 2.01580949470212E-0001	
 1.52650000000000E+0003	 2.05414284963925E-0001	
 1.52850000000000E+0003	 2.09190120457638E-0001	
 1.53050000000000E+0003	 2.12477955951350E-0001	
 1.53250000000000E+0003	 2.15350291445063E-0001	
 1.53450000000000E+0003	 2.18631626938776E-0001	
 1.53650000000000E+0003	 2.21661462432488E-0001	
 1.53850000000000E+0003	 2.24678797926201E-0001	
 1.54050000000000E+0003	 2.27051633419913E-0001	
 1.54250000000000E+0003	 2.27974968913626E-0001	
 1.54450000000000E+0003	 2.29527304407339E-0001	
 1.54650000000000E+0003	 2.30582639901051E-0001	
 1.54850000000000E+0003	 2.30631975394764E-0001	
 1.55050000000000E+0003	 2.29423810888477E-0001	
 1.55250000000000E+0003	 2.27305646382189E-0001	
 1.55450000000000E+0003	 2.24210481875902E-0001	
 1.55650000000000E+0003	 2.19846817369615E-0001	
 1.55850000000000E+0003	 2.15463652863327E-0001	
 1.56050000000000E+0003	 2.11228988357040E-0001	
 1.56250000000000E+0003	 2.08676323850752E-0001	
 1.56450000000000E+0003	 2.06274159344465E-0001	
 1.56650000000000E+0003	 2.03111494838178E-0001	
 1.56850000000000E+0003	 2.00225830331890E-0001	
 1.57050000000000E+0003	 1.97602665825603E-0001	
 1.57250000000000E+0003	 1.95666001319316E-0001	
 1.57450000000000E+0003	 1.94703836813028E-0001	
 1.57650000000000E+0003	 1.93468172306741E-0001	
 1.57850000000000E+0003	 1.90917007800454E-0001	
 1.58050000000000E+0003	 1.89567843294166E-0001	
 1.58250000000000E+0003	 1.88726178787879E-0001	
 1.58450000000000E+0003	 1.88190514281591E-0001	
 1.58650000000000E+0003	 1.87959849775304E-0001	
 1.58850000000000E+0003	 1.88226185269017E-0001	
 1.59050000000000E+0003	 1.88797520762729E-0001	
 1.59250000000000E+0003	 1.89825356256442E-0001	
 1.59450000000000E+0003	 1.91113691750155E-0001	
 1.59650000000000E+0003	 1.92713527243867E-0001	
 1.59850000000000E+0003	 1.94409862737580E-0001	
 1.60050000000000E+0003	 1.96520198231293E-0001	
 1.60250000000000E+0003	 1.98916533725005E-0001	
 1.60450000000000E+0003	 2.01719869218718E-0001	
 1.60650000000000E+0003	 2.04821704712430E-0001	
 1.60850000000000E+0003	 2.08573040206143E-0001	
 1.61050000000000E+0003	 2.12789875699856E-0001	
 1.61250000000000E+0003	 2.17533711193568E-0001	
 1.61450000000000E+0003	 2.22588046687281E-0001	
 1.61650000000000E+0003	 2.29128382180994E-0001	
 1.61850000000000E+0003	 2.35076717674706E-0001	
 1.62050000000000E+0003	 2.40477553168419E-0001	
 1.62250000000000E+0003	 2.46927388662132E-0001	
 1.62450000000000E+0003	 2.54112224155844E-0001	
 1.62650000000000E+0003	 2.61233059649557E-0001	
 1.62850000000000E+0003	 2.68799395143269E-0001	
 1.63050000000000E+0003	 2.76148730636982E-0001	
 1.63250000000000E+0003	 2.82373566130695E-0001	
 1.63450000000000E+0003	 2.87912401624407E-0001	
 1.63650000000000E+0003	 2.93846737118120E-0001	
 1.63850000000000E+0003	 2.98518572611833E-0001	
 1.64050000000000E+0003	 3.02641908105545E-0001	
 1.64250000000000E+0003	 3.05776243599258E-0001	
 1.64450000000000E+0003	 3.08036579092971E-0001	
 1.64650000000000E+0003	 3.10120914586683E-0001	
 1.64850000000000E+0003	 3.12006750080396E-0001	
 1.65050000000000E+0003	 3.14723085574108E-0001	
 1.65250000000000E+0003	 3.17487921067821E-0001	
 1.65450000000000E+0003	 3.18031256561534E-0001	
 1.65650000000000E+0003	 3.18233592055246E-0001	
 1.65850000000000E+0003	 3.18543427548959E-0001	
 1.66050000000000E+0003	 3.16848263042672E-0001	
 1.66250000000000E+0003	 3.13817598536384E-0001	
 1.66450000000000E+0003	 3.10051934030097E-0001	
 1.66650000000000E+0003	 3.06436269523810E-0001	
 1.66850000000000E+0003	 3.02126105017522E-0001	
 1.67050000000000E+0003	 2.97170440511235E-0001	
 1.67250000000000E+0003	 2.92914776004947E-0001	
 1.67450000000000E+0003	 2.88929611498660E-0001	
 1.67650000000000E+0003	 2.84342446992373E-0001	
 1.67850000000000E+0003	 2.80775782486085E-0001	
 1.68050000000000E+0003	 2.76964617979798E-0001	
 1.68250000000000E+0003	 2.72569953473511E-0001	
 1.68450000000000E+0003	 2.68314788967223E-0001	
 1.68650000000000E+0003	 2.63065624460936E-0001	
 1.68850000000000E+0003	 2.58765459954649E-0001	
 1.69050000000000E+0003	 2.54304795448361E-0001	
 1.69250000000000E+0003	 2.49295130942074E-0001	
 1.69450000000000E+0003	 2.44719966435786E-0001	
 1.69650000000000E+0003	 2.38695801929499E-0001	
 1.69850000000000E+0003	 2.32148637423212E-0001	
 1.70050000000000E+0003	 2.25871972916924E-0001	
 1.70250000000000E+0003	 2.21026808410637E-0001	
 1.70450000000000E+0003	 2.18327643904350E-0001	
 1.70650000000000E+0003	 2.14944979398062E-0001	
 1.70850000000000E+0003	 2.11708814891775E-0001	
 1.71050000000000E+0003	 2.08994650385488E-0001	
 1.71250000000000E+0003	 2.05814985879200E-0001	
 1.71450000000000E+0003	 2.02691821372913E-0001	
 1.71650000000000E+0003	 1.99962656866625E-0001	
 1.71850000000000E+0003	 1.96349992360338E-0001	
 1.72050000000000E+0003	 1.92832827854051E-0001	
 1.72250000000000E+0003	 1.90751663347763E-0001	
 1.72450000000000E+0003	 1.88377998841476E-0001	
 1.72650000000000E+0003	 1.85865334335189E-0001	
 1.72850000000000E+0003	 1.83546169828901E-0001	
 1.73050000000000E+0003	 1.81479005322614E-0001	
 1.73250000000000E+0003	 1.80271340816327E-0001	
 1.73450000000000E+0003	 1.79671176310039E-0001	
 1.73650000000000E+0003	 1.78815011803752E-0001	
 1.73850000000000E+0003	 1.78738347297464E-0001	
 1.74050000000000E+0003	 1.78331682791177E-0001	
 1.74250000000000E+0003	 1.77635518284890E-0001	
 1.74450000000000E+0003	 1.76926353778602E-0001	
 1.74650000000000E+0003	 1.75514689272315E-0001	
 1.74850000000000E+0003	 1.73534024766028E-0001	
 1.75050000000000E+0003	 1.71203860259740E-0001	
 1.75250000000000E+0003	 1.68477195753453E-0001	
 1.75450000000000E+0003	 1.65444531247166E-0001	
 1.75650000000000E+0003	 1.62057366740878E-0001	
 1.75850000000000E+0003	 1.58185202234591E-0001	
 1.76050000000000E+0003	 1.54506037728303E-0001	
 1.76250000000000E+0003	 1.50812873222016E-0001	
 1.76450000000000E+0003	 1.47105208715729E-0001	
 1.76650000000000E+0003	 1.43948044209441E-0001	
 1.76850000000000E+0003	 1.40549879703154E-0001	
 1.77050000000000E+0003	 1.37697715196867E-0001	
 1.77250000000000E+0003	 1.35798050690579E-0001	
 1.77450000000000E+0003	 1.33530386184292E-0001	
 1.77650000000000E+0003	 1.31737721678005E-0001	
 1.77850000000000E+0003	 1.30249557171717E-0001	
 1.78050000000000E+0003	 1.28782392665430E-0001	
 1.78250000000000E+0003	 1.27337728159142E-0001	
 1.78450000000000E+0003	 1.26071563652855E-0001	
 1.78650000000000E+0003	 1.24993899146568E-0001	
 1.78850000000000E+0003	 1.23783234640280E-0001	
 1.79050000000000E+0003	 1.22506570133993E-0001	
 1.79250000000000E+0003	 1.21477405627706E-0001	
 1.79450000000000E+0003	 1.20631741121418E-0001	
 1.79650000000000E+0003	 1.20001076615131E-0001	
 1.79850000000000E+0003	 1.19127412108844E-0001	
 1.80050000000000E+0003	 1.18138747602556E-0001	
 1.80250000000000E+0003	 1.17472583096269E-0001	
 1.80450000000000E+0003	 1.16944418589981E-0001	
 1.80650000000000E+0003	 1.16380754083694E-0001	
 1.80850000000000E+0003	 1.15617089577407E-0001	
 1.81050000000000E+0003	 1.14956425071119E-0001	
 1.81250000000000E+0003	 1.14351260564832E-0001	
 1.81450000000000E+0003	 1.13812096058545E-0001	
 1.81650000000000E+0003	 1.13249431552257E-0001	
 1.81850000000000E+0003	 1.12714267045970E-0001	
 1.82050000000000E+0003	 1.12166102539683E-0001	
 1.82250000000000E+0003	 1.11458938033395E-0001	
 1.82450000000000E+0003	 1.10705773527108E-0001	
 1.82650000000000E+0003	 1.10020109020820E-0001	
 1.82850000000000E+0003	 1.09565444514533E-0001	
 1.83050000000000E+0003	 1.09344780008246E-0001	
 1.83250000000000E+0003	 1.08932115501958E-0001	
 1.83450000000000E+0003	 1.08832950995671E-0001	
 1.83650000000000E+0003	 1.08598786489384E-0001	
 1.83850000000000E+0003	 1.08206621983096E-0001	
 1.84050000000000E+0003	 1.07561457476809E-0001	
 1.84250000000000E+0003	 1.06863792970522E-0001	
 1.84450000000000E+0003	 1.06437128464234E-0001	
 1.84650000000000E+0003	 1.06113463957947E-0001	
 1.84850000000000E+0003	 1.06206299451659E-0001	
 1.85050000000000E+0003	 1.06122134945372E-0001	
 1.85250000000000E+0003	 1.05876970439085E-0001	
 1.85450000000000E+0003	 1.05610805932797E-0001	
 1.85650000000000E+0003	 1.05315641426510E-0001	
 1.85850000000000E+0003	 1.05042476920223E-0001	
 1.86050000000000E+0003	 1.04756312413935E-0001	
 1.86250000000000E+0003	 1.04455147907648E-0001	
 1.86450000000000E+0003	 1.04070983401361E-0001	
 1.86650000000000E+0003	 1.03591818895073E-0001	
 1.86850000000000E+0003	 1.03271654388786E-0001	
 1.87050000000000E+0003	 1.03006489882498E-0001	
 1.87250000000000E+0003	 1.02984325376211E-0001	
 1.87450000000000E+0003	 1.03061160869924E-0001	
 1.87650000000000E+0003	 1.02908496363636E-0001	
 1.87850000000000E+0003	 1.02716331857349E-0001	
 1.88050000000000E+0003	 1.02525167351062E-0001	
 1.88250000000000E+0003	 1.02340502844774E-0001	
 1.88450000000000E+0003	 1.02179338338487E-0001	
 1.88650000000000E+0003	 1.01871173832200E-0001	
 1.88850000000000E+0003	 1.01609009325912E-0001	
 1.89050000000000E+0003	 1.01470344819625E-0001	
 1.89250000000000E+0003	 1.01297680313337E-0001	
 1.89450000000000E+0003	 1.01309515807050E-0001	
 1.89650000000000E+0003	 1.01216851300763E-0001	
 1.89850000000000E+0003	 1.01060686794475E-0001	
 1.90050000000000E+0003	 1.00956522288188E-0001	
 1.90250000000000E+0003	 1.00825357781901E-0001	
 1.90450000000000E+0003	 1.00687193275613E-0001	
 1.90650000000000E+0003	 1.00525028769326E-0001	
 1.90850000000000E+0003	 1.00424364263039E-0001	
 1.91050000000000E+0003	 1.00306199756751E-0001	
 1.91250000000000E+0003	 1.00143535250464E-0001	
 1.91450000000000E+0003	 9.99058707441765E-0002	
 1.91650000000000E+0003	 9.96097062378891E-0002	
 1.91850000000000E+0003	 9.94650417316017E-0002	
 1.92050000000000E+0003	 9.93388772253144E-0002	
 1.92250000000000E+0003	 9.95097127190270E-0002	
 1.92450000000000E+0003	 9.95150482127396E-0002	
 1.92650000000000E+0003	 9.94108837064523E-0002	
 1.92850000000000E+0003	 9.93952192001649E-0002	
 1.93050000000000E+0003	 9.93215546938776E-0002	
 1.93250000000000E+0003	 9.92558901875902E-0002	
 1.93450000000000E+0003	 9.91817256813028E-0002	
 1.93650000000000E+0003	 9.91005611750155E-0002	
 1.93850000000000E+0003	 9.89778966687281E-0002	
 1.94050000000000E+0003	 9.87752321624407E-0002	
 1.94250000000000E+0003	 9.87390676561534E-0002	
 1.94450000000000E+0003	 9.87154031498660E-0002	
 1.94650000000000E+0003	 9.87682386435786E-0002	
 1.94850000000000E+0003	 9.87870741372913E-0002	
 1.95050000000000E+0003	 9.87534096310039E-0002	
 1.95250000000000E+0003	 9.87252451247166E-0002	
 1.95450000000000E+0003	 9.86975806184292E-0002	
 1.95650000000000E+0003	 9.86559161121418E-0002	
 1.95850000000000E+0003	 9.86177516058545E-0002	
 1.96050000000000E+0003	 9.85935870995671E-0002	
 1.96250000000000E+0003	 9.85519225932797E-0002	
 1.96450000000000E+0003	 9.84617580869924E-0002	
 1.96650000000000E+0003	 9.84710935807050E-0002	
 1.96850000000000E+0003	 9.84514290744176E-0002	
 1.97050000000000E+0003	 9.83962645681303E-0002	
 1.97250000000000E+0003	 9.84056000618429E-0002	
 1.97450000000000E+0003	 9.84059355555556E-0002	
 1.97650000000000E+0003	 9.83892710492682E-0002	
 1.97850000000000E+0003	 9.83711065429808E-0002	
 1.98050000000000E+0003	 9.83484420366935E-0002	
 1.98250000000000E+0003	 9.83447775304061E-0002	
 1.98450000000000E+0003	 9.83156130241187E-0002	
 1.98650000000000E+0003	 9.83019485178314E-0002	
 1.98850000000000E+0003	 9.82507840115440E-0002	
 1.99050000000000E+0003	 9.81866195052566E-0002	
 1.99250000000000E+0003	 9.82219549989693E-0002	
 1.99450000000000E+0003	 9.82277904926819E-0002	
 1.99650000000000E+0003	 9.82746259863946E-0002	
 1.99850000000000E+0003	 9.83304614801072E-0002	
 2.00050000000000E+0003	 9.83302969738198E-0002	
 2.00250000000000E+0003	 9.83361324675325E-0002	
 2.00450000000000E+0003	 9.83489679612451E-0002	
 2.00650000000000E+0003	 9.83773034549577E-0002	
 2.00850000000000E+0003	 9.83941389486704E-0002	
 2.01050000000000E+0003	 9.84179744423830E-0002	
 2.01250000000000E+0003	 9.84253099360957E-0002	
 2.01450000000000E+0003	 9.84221454298083E-0002	
 2.01650000000000E+0003	 9.84734809235209E-0002	
 2.01850000000000E+0003	 9.85333164172336E-0002	
 2.02050000000000E+0003	 9.85576519109462E-0002	
 2.02250000000000E+0003	 9.86204874046588E-0002	
 2.02450000000000E+0003	 9.86698228983715E-0002	
 2.02650000000000E+0003	 9.87166583920841E-0002	
 2.02850000000000E+0003	 9.87604938857967E-0002	
 2.03050000000000E+0003	 9.88008293795094E-0002	
 2.03250000000000E+0003	 9.88351648732220E-0002	
 2.03450000000000E+0003	 9.88780003669347E-0002	
 2.03650000000000E+0003	 9.89193358606473E-0002	
 2.03850000000000E+0003	 9.89451713543599E-0002	
 2.04050000000000E+0003	 9.89805068480726E-0002	
 2.04250000000000E+0003	 9.90198423417852E-0002	
 2.04450000000000E+0003	 9.90466778354978E-0002	
 2.04650000000000E+0003	 9.90840133292105E-0002	
 2.04850000000000E+0003	 9.91203488229231E-0002	
 2.05050000000000E+0003	 9.91536843166357E-0002	
 2.05250000000000E+0003	 9.91795198103484E-0002	
 2.05450000000000E+0003	 9.92013553040610E-0002	
 2.05650000000000E+0003	 9.92201907977737E-0002	
 2.05850000000000E+0003	 9.92370262914863E-0002	
 2.06050000000000E+0003	 9.92543617851989E-0002	
 2.06250000000000E+0003	 9.92481972789116E-0002	
 2.06450000000000E+0003	 9.92760327726242E-0002	
 2.06650000000000E+0003	 9.92918682663368E-0002	
 2.06850000000000E+0003	 9.92962037600495E-0002	
 2.07050000000000E+0003	 9.93075392537621E-0002	
 2.07250000000000E+0003	 9.93138747474747E-0002	
 2.07450000000000E+0003	 9.93217102411874E-0002	
 2.07650000000000E+0003	 9.93340457349000E-0002	
 2.07850000000000E+0003	 9.93478812286127E-0002	
 2.08050000000000E+0003	 9.93607167223253E-0002	
 2.08250000000000E+0003	 9.93605522160379E-0002	
 2.08450000000000E+0003	 9.93723877097506E-0002	
 2.08650000000000E+0003	 9.93722232034632E-0002	
 2.08850000000000E+0003	 9.93815586971758E-0002	
 2.09050000000000E+0003	 9.93953941908885E-0002	
 2.09250000000000E+0003	 9.94092296846011E-0002	
 2.09450000000000E+0003	 9.94160651783137E-0002	
 2.09650000000000E+0003	 9.94239006720264E-0002	
 2.09850000000000E+0003	 9.94267361657390E-0002	
 2.10050000000000E+0003	 9.94305716594517E-0002	
 2.10250000000000E+0003	 9.94289071531643E-0002	
 2.10450000000000E+0003	 9.94362426468769E-0002	
 2.10650000000000E+0003	 9.94425781405896E-0002	
 2.10850000000000E+0003	 9.94454136343022E-0002	
 2.11050000000000E+0003	 9.94327491280148E-0002	
 2.11250000000000E+0003	 9.94275846217275E-0002	
 2.11450000000000E+0003	 9.94259201154401E-0002	
 2.11650000000000E+0003	 9.94242556091528E-0002	
 2.11850000000000E+0003	 9.94145911028654E-0002	
 2.12050000000000E+0003	 9.94084265965780E-0002	
 2.12250000000000E+0003	 9.93992620902907E-0002	
 2.12450000000000E+0003	 9.93875975840033E-0002	
 2.12650000000000E+0003	 9.93654330777159E-0002	
 2.12850000000000E+0003	 9.93462685714286E-0002	
 2.13050000000000E+0003	 9.93201040651412E-0002	
 2.13250000000000E+0003	 9.92979395588538E-0002	
 2.13450000000000E+0003	 9.92712750525665E-0002	
 2.13650000000000E+0003	 9.92426105462791E-0002	
 2.13850000000000E+0003	 9.91999460399918E-0002	
 2.14050000000000E+0003	 9.91587815337044E-0002	
 2.14250000000000E+0003	 9.91221170274170E-0002	
 2.14450000000000E+0003	 9.90859525211297E-0002	
 2.14650000000000E+0003	 9.90357880148423E-0002	
 2.14850000000000E+0003	 9.89891235085549E-0002	
 2.15050000000000E+0003	 9.89479590022676E-0002	
 2.15250000000000E+0003	 9.89092944959802E-0002	
 2.15450000000000E+0003	 9.88581299896928E-0002	
 2.15650000000000E+0003	 9.88044654834055E-0002	
 2.15850000000000E+0003	 9.87483009771181E-0002	
 2.16050000000000E+0003	 9.86941364708308E-0002	
 2.16250000000000E+0003	 9.86369719645434E-0002	
 2.16450000000000E+0003	 9.85733074582560E-0002	
 2.16650000000000E+0003	 9.85146429519687E-0002	
 2.16850000000000E+0003	 9.84714784456813E-0002	
 2.17050000000000E+0003	 9.84218139393939E-0002	
 2.17250000000000E+0003	 9.83506494331066E-0002	
 2.17450000000000E+0003	 9.82744849268192E-0002	
 2.17650000000000E+0003	 9.82108204205318E-0002	
 2.17850000000000E+0003	 9.81536559142445E-0002	
 2.18050000000000E+0003	 9.80914914079571E-0002	
 2.18250000000000E+0003	 9.80313269016698E-0002	
 2.18450000000000E+0003	 9.79661623953824E-0002	
 2.18650000000000E+0003	 9.79044978890950E-0002	
 2.18850000000000E+0003	 9.78423333828077E-0002	
 2.19050000000000E+0003	 9.77846688765203E-0002	
 2.19250000000000E+0003	 9.77310043702329E-0002	
 2.19450000000000E+0003	 9.76758398639456E-0002	
 2.19650000000000E+0003	 9.76171753576582E-0002	
 2.19850000000000E+0003	 9.75630108513709E-0002	
 2.20050000000000E+0003	 9.75083463450835E-0002	
 2.20250000000000E+0003	 9.74546818387961E-0002	
 2.20450000000000E+0003	 9.74000173325088E-0002	
 2.20650000000000E+0003	 9.73523528262214E-0002	
 2.20850000000000E+0003	 9.73046883199340E-0002	
 2.21050000000000E+0003	 9.72615238136467E-0002	
 2.21250000000000E+0003	 9.72083593073593E-0002	
 2.21450000000000E+0003	 9.71601948010719E-0002	
 2.21650000000000E+0003	 9.71180302947846E-0002	
 2.21850000000000E+0003	 9.70798657884972E-0002	
 2.22050000000000E+0003	 9.70367012822099E-0002	
 2.22250000000000E+0003	 9.69950367759225E-0002	
 2.22450000000000E+0003	 9.69523722696351E-0002	
 2.22650000000000E+0003	 9.69197077633478E-0002	
 2.22850000000000E+0003	 9.68795432570604E-0002	
 2.23050000000000E+0003	 9.68468787507730E-0002	
 2.23250000000000E+0003	 9.68202142444857E-0002	
 2.23450000000000E+0003	 9.68015497381983E-0002	
 2.23650000000000E+0003	 9.67783852319109E-0002	
 2.23850000000000E+0003	 9.67587207256236E-0002	
 2.24050000000000E+0003	 9.67390562193362E-0002	
 2.24250000000000E+0003	 9.67308917130489E-0002	
 2.24450000000000E+0003	 9.67257272067615E-0002	
 2.24650000000000E+0003	 9.67255627004741E-0002	
 2.24850000000000E+0003	 9.67183981941868E-0002	
 2.25050000000000E+0003	 9.67157336878994E-0002	
 2.25250000000000E+0003	 9.67105691816120E-0002	
 2.25450000000000E+0003	 9.67134046753247E-0002	
 2.25650000000000E+0003	 9.67142401690373E-0002	
 2.25850000000000E+0003	 9.67190756627499E-0002	
 2.26050000000000E+0003	 9.67169111564626E-0002	
 2.26250000000000E+0003	 9.67187466501752E-0002	
 2.26450000000000E+0003	 9.67185821438879E-0002	
 2.26650000000000E+0003	 9.67154176376005E-0002	
 2.26850000000000E+0003	 9.66987531313131E-0002	
 2.27050000000000E+0003	 9.66935886250258E-0002	
 2.27250000000000E+0003	 9.66874241187384E-0002	
 2.27450000000000E+0003	 9.66897596124510E-0002	
 2.27650000000000E+0003	 9.66950951061637E-0002	
 2.27850000000000E+0003	 9.67114305998763E-0002	
 2.28050000000000E+0003	 9.67202660935890E-0002	
 2.28250000000000E+0003	 9.67231015873016E-0002	
 2.28450000000000E+0003	 9.67524370810142E-0002	
 2.28650000000000E+0003	 9.68622725747269E-0002	
 2.28850000000000E+0003	 9.70166080684395E-0002	
 2.29050000000000E+0003	 9.71874435621521E-0002	
 2.29250000000000E+0003	 9.73792790558648E-0002	
 2.29450000000000E+0003	 9.75921145495774E-0002	
 2.29650000000000E+0003	 9.77754500432900E-0002	
 2.29850000000000E+0003	 9.79127855370027E-0002	
 2.30050000000000E+0003	 9.79836210307153E-0002	
 2.30250000000000E+0003	 9.79379565244280E-0002	
 2.30450000000000E+0003	 9.78767920181406E-0002	
 2.30650000000000E+0003	 9.79666275118532E-0002	
 2.30850000000000E+0003	 9.80739630055659E-0002	
 2.31050000000000E+0003	 9.80297984992785E-0002	
 2.31250000000000E+0003	 9.78166339929911E-0002	
 2.31450000000000E+0003	 9.76804694867038E-0002	
 2.31650000000000E+0003	 9.77373049804164E-0002	
 2.31850000000000E+0003	 9.78576404741290E-0002	
 2.32050000000000E+0003	 9.80819759678417E-0002	
 2.32250000000000E+0003	 9.83648114615543E-0002	
 2.32450000000000E+0003	 9.84826469552670E-0002	
 2.32650000000000E+0003	 9.83894824489796E-0002	
 2.32850000000000E+0003	 9.81433179426922E-0002	
 2.33050000000000E+0003	 9.79101534364049E-0002	
 2.33250000000000E+0003	 9.77209889301175E-0002	
 2.33450000000000E+0003	 9.75668244238301E-0002	
 2.33650000000000E+0003	 9.76011599175428E-0002	
 2.33850000000000E+0003	 9.77854954112554E-0002	
 2.34050000000000E+0003	 9.82268309049680E-0002	
 2.34250000000000E+0003	 9.86746663986807E-0002	
 2.34450000000000E+0003	 9.85525018923933E-0002	
 2.34650000000000E+0003	 9.82018373861060E-0002	
 2.34850000000000E+0003	 9.79651728798186E-0002	
 2.35050000000000E+0003	 9.76965083735312E-0002	
 2.35250000000000E+0003	 9.74943438672439E-0002	
 2.35450000000000E+0003	 9.76781793609565E-0002	
 2.35650000000000E+0003	 9.81595148546691E-0002	
 2.35850000000000E+0003	 9.83603503483818E-0002	
 2.36050000000000E+0003	 9.82201858420944E-0002	
 2.36250000000000E+0003	 9.81295213358071E-0002	
 2.36450000000000E+0003	 9.82423568295197E-0002	
 2.36650000000000E+0003	 9.83761923232323E-0002	
 2.36850000000000E+0003	 9.84810278169450E-0002	
 2.37050000000000E+0003	 9.84103633106576E-0002	
 2.37250000000000E+0003	 9.80021988043702E-0002	
 2.37450000000000E+0003	 9.74820342980829E-0002	
 2.37650000000000E+0003	 9.74958697917955E-0002	
 2.37850000000000E+0003	 9.82512052855081E-0002	
 2.38050000000000E+0003	 9.91695407792208E-0002	
 2.38250000000000E+0003	 9.95928762729334E-0002	
 2.38450000000000E+0003	 9.94882117666461E-0002	
 2.38650000000000E+0003	 9.92055472603587E-0002	
 2.38850000000000E+0003	 9.90153827540713E-0002	
 2.39050000000000E+0003	 9.89657182477840E-0002	
 2.39250000000000E+0003	 9.90120537414966E-0002	
 2.39450000000000E+0003	 9.90983892352092E-0002	
 2.39650000000000E+0003	 9.91947247289219E-0002	
 2.39850000000000E+0003	 9.92935602226345E-0002	
 2.40050000000000E+0003	 9.94043957163471E-0002	
 2.40250000000000E+0003	 9.95117312100598E-0002	
 2.40450000000000E+0003	 9.96260667037724E-0002	
 2.40650000000000E+0003	 9.97424021974851E-0002	
 2.40850000000000E+0003	 9.98582376911977E-0002	
 2.41050000000000E+0003	 9.99795731849103E-0002	
 2.41250000000000E+0003	 1.00114408678623E-0001	
 2.41450000000000E+0003	 1.00241244172336E-0001	
 2.41650000000000E+0003	 1.00367579666048E-0001	
 2.41850000000000E+0003	 1.00493415159761E-0001	
 2.42050000000000E+0003	 1.00629250653474E-0001	
 2.42250000000000E+0003	 1.00768586147186E-0001	
 2.42450000000000E+0003	 1.00918921640899E-0001	
 2.42650000000000E+0003	 1.01066757134611E-0001	
 2.42850000000000E+0003	 1.01221592628324E-0001	
 2.43050000000000E+0003	 1.01369428122037E-0001	
 2.43250000000000E+0003	 1.01518263615749E-0001	
 2.43450000000000E+0003	 1.01669099109462E-0001	
 2.43650000000000E+0003	 1.01830434603175E-0001	
 2.43850000000000E+0003	 1.01991270096887E-0001	
 2.44050000000000E+0003	 1.02156105590600E-0001	
 2.44250000000000E+0003	 1.02319941084313E-0001	
 2.44450000000000E+0003	 1.02483776578025E-0001	
 2.44650000000000E+0003	 1.02638612071738E-0001	
 2.44850000000000E+0003	 1.02804447565450E-0001	
 2.45050000000000E+0003	 1.02971783059163E-0001	
 2.45250000000000E+0003	 1.03146618552876E-0001	
 2.45450000000000E+0003	 1.03316454046588E-0001	
 2.45650000000000E+0003	 1.03487289540301E-0001	
 2.45850000000000E+0003	 1.03658625034014E-0001	
 2.46050000000000E+0003	 1.03840960527726E-0001	
 2.46250000000000E+0003	 1.04027296021439E-0001	
 2.46450000000000E+0003	 1.04218631515152E-0001	
 2.46650000000000E+0003	 1.04405967008864E-0001	
 2.46850000000000E+0003	 1.04596802502577E-0001	
 2.47050000000000E+0003	 1.04794137996289E-0001	
 2.47250000000000E+0003	 1.05000973490002E-0001	
 2.47450000000000E+0003	 1.05197308983715E-0001	
 2.47650000000000E+0003	 1.05395644477427E-0001	
 2.47850000000000E+0003	 1.05604479971140E-0001	
 2.48050000000000E+0003	 1.05814315464853E-0001	
 2.48250000000000E+0003	 1.06015150958565E-0001	
 2.48450000000000E+0003	 1.06218486452278E-0001	
 2.48650000000000E+0003	 1.06425321945991E-0001	
 2.48850000000000E+0003	 1.06635657439703E-0001	
 2.49050000000000E+0003	 1.06843492933416E-0001	
 2.49250000000000E+0003	 1.07053828427128E-0001	
 2.49450000000000E+0003	 1.07266663920841E-0001	
 2.49650000000000E+0003	 1.07482999414554E-0001	
 2.49850000000000E+0003	 1.07699834908266E-0001	
 2.50050000000000E+0003	 1.07918670401979E-0001	
 2.50250000000000E+0003	 1.08135005895692E-0001	
 2.50450000000000E+0003	 1.08348341389404E-0001	
 2.50650000000000E+0003	 1.08566676883117E-0001	
 2.50850000000000E+0003	 1.08784012376830E-0001	
 2.51050000000000E+0003	 1.08991347870542E-0001	
 2.51250000000000E+0003	 1.09191183364255E-0001	
 2.51450000000000E+0003	 1.09387518857967E-0001	
 2.51650000000000E+0003	 1.09577854351680E-0001	
 2.51850000000000E+0003	 1.09765689845393E-0001	
 2.52050000000000E+0003	 1.09951525339105E-0001	
 2.52250000000000E+0003	 1.10133860832818E-0001	
 2.52450000000000E+0003	 1.10308696326531E-0001	
 2.52650000000000E+0003	 1.10484531820243E-0001	
 2.52850000000000E+0003	 1.10651867313956E-0001	
 2.53050000000000E+0003	 1.10817702807669E-0001	
 2.53250000000000E+0003	 1.10978038301381E-0001	
 2.53450000000000E+0003	 1.11136373795094E-0001	
 2.53650000000000E+0003	 1.11289209288806E-0001	
 2.53850000000000E+0003	 1.11443044782519E-0001	
 2.54050000000000E+0003	 1.11595380276232E-0001	
 2.54250000000000E+0003	 1.11745715769944E-0001	
 2.54450000000000E+0003	 1.11886051263657E-0001	
 2.54650000000000E+0003	 1.12025886757370E-0001	
 2.54850000000000E+0003	 1.12161222251082E-0001	
 2.55050000000000E+0003	 1.12297057744795E-0001	
 2.55250000000000E+0003	 1.12439393238508E-0001	
 2.55450000000000E+0003	 1.12587228732220E-0001	
 2.55650000000000E+0003	 1.12720564225933E-0001	
 2.55850000000000E+0003	 1.12853899719645E-0001	
 2.56050000000000E+0003	 1.12989735213358E-0001	
 2.56250000000000E+0003	 1.13124570707071E-0001	
 2.56450000000000E+0003	 1.13256906200783E-0001	
 2.56650000000000E+0003	 1.13392741694496E-0001	
 2.56850000000000E+0003	 1.13527077188209E-0001	
 2.57050000000000E+0003	 1.13674412681921E-0001	
 2.57250000000000E+0003	 1.13824748175634E-0001	
 2.57450000000000E+0003	 1.13988583669347E-0001	
 2.57650000000000E+0003	 1.14148919163059E-0001	
 2.57850000000000E+0003	 1.14316254656772E-0001	
 2.58050000000000E+0003	 1.14490590150484E-0001	
 2.58250000000000E+0003	 1.14683925644197E-0001	
 2.58450000000000E+0003	 1.14884761137910E-0001	
 2.58650000000000E+0003	 1.15093596631622E-0001	
 2.58850000000000E+0003	 1.15302932125335E-0001	
 2.59050000000000E+0003	 1.15514267619048E-0001	
 2.59250000000000E+0003	 1.15722103112760E-0001	
 2.59450000000000E+0003	 1.15944938606473E-0001	
 2.59650000000000E+0003	 1.16171774100186E-0001	
 2.59850000000000E+0003	 1.16407109593898E-0001	
 2.60050000000000E+0003	 1.16642945087611E-0001	
 2.60250000000000E+0003	 1.16878780581323E-0001	
 2.60450000000000E+0003	 1.17108116075036E-0001	
 2.60650000000000E+0003	 1.17343951568749E-0001	
 2.60850000000000E+0003	 1.17578787062461E-0001	
 2.61050000000000E+0003	 1.17816622556174E-0001	
 2.61250000000000E+0003	 1.18049458049887E-0001	
 2.61450000000000E+0003	 1.18279793543599E-0001	
 2.61650000000000E+0003	 1.18507629037312E-0001	
 2.61850000000000E+0003	 1.18740464531025E-0001	
 2.62050000000000E+0003	 1.18970800024737E-0001	
 2.62250000000000E+0003	 1.19204635518450E-0001	
 2.62450000000000E+0003	 1.19435971012162E-0001	
 2.62650000000000E+0003	 1.19671806505875E-0001	
 2.62850000000000E+0003	 1.19903641999588E-0001	
 2.63050000000000E+0003	 1.20141977493300E-0001	
 2.63250000000000E+0003	 1.20374312987013E-0001	
 2.63450000000000E+0003	 1.20607148480726E-0001	
 2.63650000000000E+0003	 1.20839983974438E-0001	
 2.63850000000000E+0003	 1.21073819468151E-0001	
 2.64050000000000E+0003	 1.21301654961864E-0001	
 2.64250000000000E+0003	 1.21528990455576E-0001	
 2.64450000000000E+0003	 1.21756325949289E-0001	
 2.64650000000000E+0003	 1.21982661443001E-0001	
 2.64850000000000E+0003	 1.22210496936714E-0001	
 2.65050000000000E+0003	 1.22446832430427E-0001	
 2.65250000000000E+0003	 1.22677167924139E-0001	
 2.65450000000000E+0003	 1.22910003417852E-0001	
 2.65650000000000E+0003	 1.23146338911565E-0001	
 2.65850000000000E+0003	 1.23382674405277E-0001	
 2.66050000000000E+0003	 1.23615509898990E-0001	
 2.66250000000000E+0003	 1.23847345392703E-0001	
 2.66450000000000E+0003	 1.24087680886415E-0001	
 2.66650000000000E+0003	 1.24334016380128E-0001	
 2.66850000000000E+0003	 1.24577851873840E-0001	
 2.67050000000000E+0003	 1.24824687367553E-0001	
 2.67250000000000E+0003	 1.25075022861266E-0001	
 2.67450000000000E+0003	 1.25325858354978E-0001	
 2.67650000000000E+0003	 1.25577193848691E-0001	
 2.67850000000000E+0003	 1.25834529342404E-0001	
 2.68050000000000E+0003	 1.26098364836116E-0001	
 2.68250000000000E+0003	 1.26357200329829E-0001	
 2.68450000000000E+0003	 1.26609535823542E-0001	
 2.68650000000000E+0003	 1.26858871317254E-0001	
 2.68850000000000E+0003	 1.27114206810967E-0001	
 2.69050000000000E+0003	 1.27379542304679E-0001	
 2.69250000000000E+0003	 1.27650877798392E-0001	
 2.69450000000000E+0003	 1.27921713292105E-0001	
 2.69650000000000E+0003	 1.28199048785817E-0001	
 2.69850000000000E+0003	 1.28484384279530E-0001	
 2.70050000000000E+0003	 1.28774219773243E-0001	
 2.70250000000000E+0003	 1.29065055266955E-0001	
 2.70450000000000E+0003	 1.29368890760668E-0001	
 2.70650000000000E+0003	 1.29680726254381E-0001	
 2.70850000000000E+0003	 1.30002061748093E-0001	
 2.71050000000000E+0003	 1.30331397241806E-0001	
 2.71250000000000E+0003	 1.30664232735518E-0001	
 2.71450000000000E+0003	 1.31000068229231E-0001	
 2.71650000000000E+0003	 1.31346903722944E-0001	
 2.71850000000000E+0003	 1.31695239216656E-0001	
 2.72050000000000E+0003	 1.32050574710369E-0001	
 2.72250000000000E+0003	 1.32400910204082E-0001	
 2.72450000000000E+0003	 1.32749745697794E-0001	
 2.72650000000000E+0003	 1.33096081191507E-0001	
 2.72850000000000E+0003	 1.33429916685220E-0001	
 2.73050000000000E+0003	 1.33748252178932E-0001	
 2.73250000000000E+0003	 1.34067587672645E-0001	
 2.73450000000000E+0003	 1.34375423166357E-0001	
 2.73650000000000E+0003	 1.34676758660070E-0001	
 2.73850000000000E+0003	 1.34970094153783E-0001	
 2.74050000000000E+0003	 1.35259929647495E-0001	
 2.74250000000000E+0003	 1.35533765141208E-0001	
 2.74450000000000E+0003	 1.35800600634921E-0001	
 2.74650000000000E+0003	 1.36069436128633E-0001	
 2.74850000000000E+0003	 1.36354271622346E-0001	
 2.75050000000000E+0003	 1.36632107116059E-0001	
 2.75250000000000E+0003	 1.36903942609771E-0001	
 2.75450000000000E+0003	 1.37175778103484E-0001	
 2.75650000000000E+0003	 1.37465113597196E-0001	
 2.75850000000000E+0003	 1.37762949090909E-0001	
 2.76050000000000E+0003	 1.38070284584622E-0001	
 2.76250000000000E+0003	 1.38381120078334E-0001	
 2.76450000000000E+0003	 1.38702455572047E-0001	
 2.76650000000000E+0003	 1.39021791065760E-0001	
 2.76850000000000E+0003	 1.39347126559472E-0001	
 2.77050000000000E+0003	 1.39675962053185E-0001	
 2.77250000000000E+0003	 1.40018297546898E-0001	
 2.77450000000000E+0003	 1.40373633040610E-0001	
 2.77650000000000E+0003	 1.40733468534323E-0001	
 2.77850000000000E+0003	 1.41082304028035E-0001	
 2.78050000000000E+0003	 1.41450639521748E-0001	
 2.78250000000000E+0003	 1.41834475015461E-0001	
 2.78450000000000E+0003	 1.42224810509173E-0001	
 2.78650000000000E+0003	 1.42622146002886E-0001	
 2.78850000000000E+0003	 1.43044981496599E-0001	
 2.79050000000000E+0003	 1.43474316990311E-0001	
 2.79250000000000E+0003	 1.43902652484024E-0001	
 2.79450000000000E+0003	 1.44332987977737E-0001	
 2.79650000000000E+0003	 1.44778823471449E-0001	
 2.79850000000000E+0003	 1.45241658965162E-0001	
 2.80050000000000E+0003	 1.45706994458874E-0001	
 2.80250000000000E+0003	 1.46173329952587E-0001	
 2.80450000000000E+0003	 1.46660165446300E-0001	
 2.80650000000000E+0003	 1.47150500940012E-0001	
 2.80850000000000E+0003	 1.47648836433725E-0001	
 2.81050000000000E+0003	 1.48166171927438E-0001	
 2.81250000000000E+0003	 1.48690507421150E-0001	
 2.81450000000000E+0003	 1.49220342914863E-0001	
 2.81650000000000E+0003	 1.49767678408576E-0001	
 2.81850000000000E+0003	 1.50326013902288E-0001	
 2.82050000000000E+0003	 1.50895349396001E-0001	
 2.82250000000000E+0003	 1.51474184889713E-0001	
 2.82450000000000E+0003	 1.52074020383426E-0001	
 2.82650000000000E+0003	 1.52698355877139E-0001	
 2.82850000000000E+0003	 1.53348691370851E-0001	
 2.83050000000000E+0003	 1.54022026864564E-0001	
 2.83250000000000E+0003	 1.54739362358277E-0001	
 2.83450000000000E+0003	 1.55524197851989E-0001	
 2.83650000000000E+0003	 1.56394033345702E-0001	
 2.83850000000000E+0003	 1.57382868839415E-0001	
 2.84050000000000E+0003	 1.58505704333127E-0001	
 2.84250000000000E+0003	 1.59832039826840E-0001	
 2.84450000000000E+0003	 1.61485875320552E-0001	
 2.84650000000000E+0003	 1.63487710814265E-0001	
 2.84850000000000E+0003	 1.65738046307978E-0001	
 2.85050000000000E+0003	 1.67966381801690E-0001	
 2.85250000000000E+0003	 1.69847717295403E-0001	
 2.85450000000000E+0003	 1.71146052789116E-0001	
 2.85650000000000E+0003	 1.71868388282828E-0001	
 2.85850000000000E+0003	 1.72260223776541E-0001	
 2.86050000000000E+0003	 1.72598559270254E-0001	
 2.86250000000000E+0003	 1.73064394763966E-0001	
 2.86450000000000E+0003	 1.73793730257679E-0001	
 2.86650000000000E+0003	 1.74799065751391E-0001	
 2.86850000000000E+0003	 1.75987901245104E-0001	
 2.87050000000000E+0003	 1.77230736738817E-0001	
 2.87250000000000E+0003	 1.78393572232529E-0001	
 2.87450000000000E+0003	 1.79292407726242E-0001	
 2.87650000000000E+0003	 1.79847243219955E-0001	
 2.87850000000000E+0003	 1.80200078713667E-0001	
 2.88050000000000E+0003	 1.80485914207380E-0001	
 2.88250000000000E+0003	 1.80789749701093E-0001	
 2.88450000000000E+0003	 1.81174585194805E-0001	
 2.88650000000000E+0003	 1.81669420688518E-0001	
 2.88850000000000E+0003	 1.82273256182230E-0001	
 2.89050000000000E+0003	 1.82977091675943E-0001	
 2.89250000000000E+0003	 1.83760927169656E-0001	
 2.89450000000000E+0003	 1.84619262663368E-0001	
 2.89650000000000E+0003	 1.85530598157081E-0001	
 2.89850000000000E+0003	 1.86449933650794E-0001	
 2.90050000000000E+0003	 1.87388269144506E-0001	
 2.90250000000000E+0003	 1.88376104638219E-0001	
 2.90450000000000E+0003	 1.89446940131932E-0001	
 2.90650000000000E+0003	 1.90638775625644E-0001	
 2.90850000000000E+0003	 1.91993611119357E-0001	
 2.91050000000000E+0003	 1.93564946613069E-0001	
 2.91250000000000E+0003	 1.95400782106782E-0001	
 2.91450000000000E+0003	 1.97453117600495E-0001	
 2.91650000000000E+0003	 1.99610453094207E-0001	
 2.91850000000000E+0003	 2.01793288587920E-0001	
 2.92050000000000E+0003	 2.03842624081633E-0001	
 2.92250000000000E+0003	 2.05604459575345E-0001	
 2.92450000000000E+0003	 2.06973795069058E-0001	
 2.92650000000000E+0003	 2.07929130562771E-0001	
 2.92850000000000E+0003	 2.08541966056483E-0001	
 2.93050000000000E+0003	 2.08847301550196E-0001	
 2.93250000000000E+0003	 2.08841637043908E-0001	
 2.93450000000000E+0003	 2.08603472537621E-0001	
 2.93650000000000E+0003	 2.08159808031334E-0001	
 2.93850000000000E+0003	 2.07489643525046E-0001	
 2.94050000000000E+0003	 2.06638979018759E-0001	
 2.94250000000000E+0003	 2.05727314512472E-0001	
 2.94450000000000E+0003	 2.04829650006184E-0001	
 2.94650000000000E+0003	 2.04011985499897E-0001	
 2.94850000000000E+0003	 2.03371820993610E-0001	
 2.95050000000000E+0003	 2.03023656487322E-0001	
 2.95250000000000E+0003	 2.03002991981035E-0001	
 2.95450000000000E+0003	 2.03162327474747E-0001	
 2.95650000000000E+0003	 2.03369662968460E-0001	
 2.95850000000000E+0003	 2.03498498462173E-0001	
 2.96050000000000E+0003	 2.03428333955885E-0001	
 2.96250000000000E+0003	 2.03100669449598E-0001	
 2.96450000000000E+0003	 2.02493504943311E-0001	
 2.96650000000000E+0003	 2.01687340437023E-0001	
 2.96850000000000E+0003	 2.00769175930736E-0001	
 2.97050000000000E+0003	 1.99585511424449E-0001	
 2.97250000000000E+0003	 1.98033846918161E-0001	
 2.97450000000000E+0003	 1.96430682411874E-0001	
 2.97650000000000E+0003	 1.95029517905586E-0001	
 2.97850000000000E+0003	 1.93832853399299E-0001	
 2.98050000000000E+0003	 1.92776688893012E-0001	
 2.98250000000000E+0003	 1.91774524386724E-0001	
 2.98450000000000E+0003	 1.90818359880437E-0001	
 2.98650000000000E+0003	 1.89947695374150E-0001	
 2.98850000000000E+0003	 1.89170030867862E-0001	
 2.99050000000000E+0003	 1.88492866361575E-0001	
 2.99250000000000E+0003	 1.87922201855288E-0001	
 2.99450000000000E+0003	 1.87410537349000E-0001	
 2.99650000000000E+0003	 1.87019372842713E-0001	
 2.99850000000000E+0003	 1.86775208336425E-0001	
 3.00050000000000E+0003	 1.86632043830138E-0001	
 3.00250000000000E+0003	 1.86613879323851E-0001	
 3.00450000000000E+0003	 1.86716714817563E-0001	
 3.00650000000000E+0003	 1.86905050311276E-0001	
 3.00850000000000E+0003	 1.87190385804989E-0001	
 3.01050000000000E+0003	 1.87610221298701E-0001	
 3.01250000000000E+0003	 1.88136556792414E-0001	
 3.01450000000000E+0003	 1.88689392286127E-0001	
 3.01650000000000E+0003	 1.89233227779839E-0001	
 3.01850000000000E+0003	 1.89793063273552E-0001	
 3.02050000000000E+0003	 1.90430898767264E-0001	
 3.02250000000000E+0003	 1.91167734260977E-0001	
 3.02450000000000E+0003	 1.92005069754690E-0001	
 3.02650000000000E+0003	 1.92862405248402E-0001	
 3.02850000000000E+0003	 1.93705740742115E-0001	
 3.03050000000000E+0003	 1.94555576235828E-0001	
 3.03250000000000E+0003	 1.95423911729540E-0001	
 3.03450000000000E+0003	 1.96301247223253E-0001	
 3.03650000000000E+0003	 1.97145582716966E-0001	
 3.03850000000000E+0003	 1.97992418210678E-0001	
 3.04050000000000E+0003	 1.98928753704391E-0001	
 3.04250000000000E+0003	 1.99907089198103E-0001	
 3.04450000000000E+0003	 2.00863924691816E-0001	
 3.04650000000000E+0003	 2.01801760185529E-0001	
 3.04850000000000E+0003	 2.02766095679241E-0001	
 3.05050000000000E+0003	 2.03799431172954E-0001	
 3.05250000000000E+0003	 2.04834266666667E-0001	
 3.05450000000000E+0003	 2.05834602160379E-0001	
 3.05650000000000E+0003	 2.06833937654092E-0001	
 3.05850000000000E+0003	 2.07800273147805E-0001	
 3.06050000000000E+0003	 2.08718108641517E-0001	
 3.06250000000000E+0003	 2.09599944135230E-0001	
 3.06450000000000E+0003	 2.10456779628942E-0001	
 3.06650000000000E+0003	 2.11288615122655E-0001	
 3.06850000000000E+0003	 2.12066450616368E-0001	
 3.07050000000000E+0003	 2.12759786110080E-0001	
 3.07250000000000E+0003	 2.13428121603793E-0001	
 3.07450000000000E+0003	 2.14090457097506E-0001	
 3.07650000000000E+0003	 2.14758792591218E-0001	
 3.07850000000000E+0003	 2.15421628084931E-0001	
 3.08050000000000E+0003	 2.16036463578644E-0001	
 3.08250000000000E+0003	 2.16601799072356E-0001	
 3.08450000000000E+0003	 2.17162134566069E-0001	
 3.08650000000000E+0003	 2.17686470059781E-0001	
 3.08850000000000E+0003	 2.18202305553494E-0001	
 3.09050000000000E+0003	 2.18734141047207E-0001	
 3.09250000000000E+0003	 2.19236476540919E-0001	
 3.09450000000000E+0003	 2.19702312034632E-0001	
 3.09650000000000E+0003	 2.20185647528345E-0001	
 3.09850000000000E+0003	 2.20709983022057E-0001	
 3.10050000000000E+0003	 2.21268818515770E-0001	
 3.10250000000000E+0003	 2.21830654009483E-0001	
 3.10450000000000E+0003	 2.22404989503195E-0001	
 3.10650000000000E+0003	 2.23019324996908E-0001	
 3.10850000000000E+0003	 2.23693660490620E-0001	
 3.11050000000000E+0003	 2.24364495984333E-0001	
 3.11250000000000E+0003	 2.25050831478046E-0001	
 3.11450000000000E+0003	 2.25830666971758E-0001	
 3.11650000000000E+0003	 2.26686502465471E-0001	
 3.11850000000000E+0003	 2.27549337959184E-0001	
 3.12050000000000E+0003	 2.28406673452896E-0001	
 3.12250000000000E+0003	 2.29249508946609E-0001	
 3.12450000000000E+0003	 2.30136344440322E-0001	
 3.12650000000000E+0003	 2.31111179934034E-0001	
 3.12850000000000E+0003	 2.32148015427747E-0001	
 3.13050000000000E+0003	 2.33203850921459E-0001	
 3.13250000000000E+0003	 2.34269686415172E-0001	
 3.13450000000000E+0003	 2.35375021908885E-0001	
 3.13650000000000E+0003	 2.36540357402597E-0001	
 3.13850000000000E+0003	 2.37770192896310E-0001	
 3.14050000000000E+0003	 2.38986028390023E-0001	
 3.14250000000000E+0003	 2.40164363883735E-0001	
 3.14450000000000E+0003	 2.41387199377448E-0001	
 3.14650000000000E+0003	 2.42666034871161E-0001	
 3.14850000000000E+0003	 2.43995370364873E-0001	
 3.15050000000000E+0003	 2.45409705858586E-0001	
 3.15250000000000E+0003	 2.46862541352298E-0001	
 3.15450000000000E+0003	 2.48212876846011E-0001	
 3.15650000000000E+0003	 2.49542712339724E-0001	
 3.15850000000000E+0003	 2.50958547833436E-0001	
 3.16050000000000E+0003	 2.52426383327149E-0001	
 3.16250000000000E+0003	 2.53909718820862E-0001	
 3.16450000000000E+0003	 2.55408554314574E-0001	
 3.16650000000000E+0003	 2.56917389808287E-0001	
 3.16850000000000E+0003	 2.58433725302000E-0001	
 3.17050000000000E+0003	 2.59960560795712E-0001	
 3.17250000000000E+0003	 2.61497396289425E-0001	
 3.17450000000000E+0003	 2.63039231783137E-0001	
 3.17650000000000E+0003	 2.64573567276850E-0001	
 3.17850000000000E+0003	 2.66104902770563E-0001	
 3.18050000000000E+0003	 2.67637238264275E-0001	
 3.18250000000000E+0003	 2.69154073757988E-0001	
 3.18450000000000E+0003	 2.70660409251701E-0001	
 3.18650000000000E+0003	 2.72161244745413E-0001	
 3.18850000000000E+0003	 2.73648580239126E-0001	
 3.19050000000000E+0003	 2.75111415732839E-0001	
 3.19250000000000E+0003	 2.76550751226551E-0001	
 3.19450000000000E+0003	 2.77964086720264E-0001	
 3.19650000000000E+0003	 2.79349422213977E-0001	
 3.19850000000000E+0003	 2.80722757707689E-0001	
 3.20050000000000E+0003	 2.82089593201402E-0001	
 3.20250000000000E+0003	 2.83437928695114E-0001	
 3.20450000000000E+0003	 2.84768764188827E-0001	
 3.20650000000000E+0003	 2.86085599682540E-0001	
 3.20850000000000E+0003	 2.87382935176252E-0001	
 3.21050000000000E+0003	 2.88665770669965E-0001	
 3.21250000000000E+0003	 2.89944606163678E-0001	
 3.21450000000000E+0003	 2.91229441657390E-0001	
 3.21650000000000E+0003	 2.92515777151103E-0001	
 3.21850000000000E+0003	 2.93809112644816E-0001	
 3.22050000000000E+0003	 2.95097948138528E-0001	
 3.22250000000000E+0003	 2.96385283632241E-0001	
 3.22450000000000E+0003	 2.97692619125953E-0001	
 3.22650000000000E+0003	 2.99012954619666E-0001	
 3.22850000000000E+0003	 3.00356790113379E-0001	
 3.23050000000000E+0003	 3.01751125607091E-0001	
 3.23250000000000E+0003	 3.03210961100804E-0001	
 3.23450000000000E+0003	 3.04620796594517E-0001	
 3.23650000000000E+0003	 3.05946132088229E-0001	
 3.23850000000000E+0003	 3.07321967581942E-0001	
 3.24050000000000E+0003	 3.08763303075655E-0001	
 3.24250000000000E+0003	 3.10234138569367E-0001	
 3.24450000000000E+0003	 3.11757974063080E-0001	
 3.24650000000000E+0003	 3.13335309556792E-0001	
 3.24850000000000E+0003	 3.14887145050505E-0001	
 3.25050000000000E+0003	 3.16406480544218E-0001	
 3.25250000000000E+0003	 3.17969316037930E-0001	
 3.25450000000000E+0003	 3.19597151531643E-0001	
 3.25650000000000E+0003	 3.21239487025356E-0001	
 3.25850000000000E+0003	 3.22850822519068E-0001	
 3.26050000000000E+0003	 3.24467658012781E-0001	
 3.26250000000000E+0003	 3.26100493506494E-0001	
 3.26450000000000E+0003	 3.27727829000206E-0001	
 3.26650000000000E+0003	 3.29334164493919E-0001	
 3.26850000000000E+0003	 3.30936999987631E-0001	
 3.27050000000000E+0003	 3.32527835481344E-0001	
 3.27250000000000E+0003	 3.34006170975057E-0001	
 3.27450000000000E+0003	 3.35369506468769E-0001	
 3.27650000000000E+0003	 3.36701341962482E-0001	
 3.27850000000000E+0003	 3.37988177456195E-0001	
 3.28050000000000E+0003	 3.39226012949907E-0001	
 3.28250000000000E+0003	 3.40404848443620E-0001	
 3.28450000000000E+0003	 3.41519683937333E-0001	
 3.28650000000000E+0003	 3.42569519431045E-0001	
 3.28850000000000E+0003	 3.43568354924758E-0001	
 3.29050000000000E+0003	 3.44546690418470E-0001	
 3.29250000000000E+0003	 3.45478525912183E-0001	
 3.29450000000000E+0003	 3.46301361405896E-0001	
 3.29650000000000E+0003	 3.47052696899608E-0001	
 3.29850000000000E+0003	 3.47747532393321E-0001	
 3.30050000000000E+0003	 3.48408867887034E-0001	
 3.30250000000000E+0003	 3.49086203380746E-0001	
 3.30450000000000E+0003	 3.49801538874459E-0001	
 3.30650000000000E+0003	 3.50446374368172E-0001	
 3.30850000000000E+0003	 3.50961209861884E-0001	
 3.31050000000000E+0003	 3.51432045355597E-0001	
 3.31250000000000E+0003	 3.51918380849309E-0001	
 3.31450000000000E+0003	 3.52423216343022E-0001	
 3.31650000000000E+0003	 3.52941051836735E-0001	
 3.31850000000000E+0003	 3.53464887330447E-0001	
 3.32050000000000E+0003	 3.54004722824160E-0001	
 3.32250000000000E+0003	 3.54555558317873E-0001	
 3.32450000000000E+0003	 3.55136893811585E-0001	
 3.32650000000000E+0003	 3.55715229305298E-0001	
 3.32850000000000E+0003	 3.56258564799011E-0001	
 3.33050000000000E+0003	 3.56822400292723E-0001	
 3.33250000000000E+0003	 3.57413235786436E-0001	
 3.33450000000000E+0003	 3.58010071280148E-0001	
 3.33650000000000E+0003	 3.58651406773861E-0001	
 3.33850000000000E+0003	 3.59299742267574E-0001	
 3.34050000000000E+0003	 3.59900077761286E-0001	
 3.34250000000000E+0003	 3.60486413254999E-0001	
 3.34450000000000E+0003	 3.61082748748712E-0001	
 3.34650000000000E+0003	 3.61680584242424E-0001	
 3.34850000000000E+0003	 3.62338419736137E-0001	
 3.35050000000000E+0003	 3.63016255229850E-0001	
 3.35250000000000E+0003	 3.63603090723562E-0001	
 3.35450000000000E+0003	 3.64142426217275E-0001	
 3.35650000000000E+0003	 3.64728261710987E-0001	
 3.35850000000000E+0003	 3.65345597204700E-0001	
 3.36050000000000E+0003	 3.65973432698413E-0001	
 3.36250000000000E+0003	 3.66581268192125E-0001	
 3.36450000000000E+0003	 3.67220603685838E-0001	
 3.36650000000000E+0003	 3.67925439179551E-0001	
 3.36850000000000E+0003	 3.68625774673263E-0001	
 3.37050000000000E+0003	 3.69177610166976E-0001	
 3.37250000000000E+0003	 3.69622445660689E-0001	
 3.37450000000000E+0003	 3.70126281154401E-0001	
 3.37650000000000E+0003	 3.70697616648114E-0001	
 3.37850000000000E+0003	 3.71269452141826E-0001	
 3.38050000000000E+0003	 3.71820287635539E-0001	
 3.38250000000000E+0003	 3.72343123129252E-0001	
 3.38450000000000E+0003	 3.72864958622964E-0001	
 3.38650000000000E+0003	 3.73395794116677E-0001	
 3.38850000000000E+0003	 3.74001629610390E-0001	
 3.39050000000000E+0003	 3.74676965104102E-0001	
 3.39250000000000E+0003	 3.75229800597815E-0001	
 3.39450000000000E+0003	 3.75588136091528E-0001	
 3.39650000000000E+0003	 3.75991471585240E-0001	
 3.39850000000000E+0003	 3.76590807078953E-0001	
 3.40050000000000E+0003	 3.77198642572665E-0001	
 3.40250000000000E+0003	 3.77522978066378E-0001	
 3.40450000000000E+0003	 3.77697313560091E-0001	
 3.40650000000000E+0003	 3.77983149053803E-0001	
 3.40850000000000E+0003	 3.78370984547516E-0001	
 3.41050000000000E+0003	 3.78715820041229E-0001	
 3.41250000000000E+0003	 3.79009155534941E-0001	
 3.41450000000000E+0003	 3.79217491028654E-0001	
 3.41650000000000E+0003	 3.79373826522367E-0001	
 3.41850000000000E+0003	 3.79552162016079E-0001	
 3.42050000000000E+0003	 3.79725497509792E-0001	
 3.42250000000000E+0003	 3.79841333003504E-0001	
 3.42450000000000E+0003	 3.79936168497217E-0001	
 3.42650000000000E+0003	 3.80057503990930E-0001	
 3.42850000000000E+0003	 3.80199339484642E-0001	
 3.43050000000000E+0003	 3.80246674978355E-0001	
 3.43250000000000E+0003	 3.80237010472068E-0001	
 3.43450000000000E+0003	 3.80259845965780E-0001	
 3.43650000000000E+0003	 3.80179681459493E-0001	
 3.43850000000000E+0003	 3.79888516953206E-0001	
 3.44050000000000E+0003	 3.79533852446918E-0001	
 3.44250000000000E+0003	 3.79241187940631E-0001	
 3.44450000000000E+0003	 3.78975523434343E-0001	
 3.44650000000000E+0003	 3.78672358928056E-0001	
 3.44850000000000E+0003	 3.78313194421769E-0001	
 3.45050000000000E+0003	 3.77914529915481E-0001	
 3.45250000000000E+0003	 3.77511365409194E-0001	
 3.45450000000000E+0003	 3.77071700902907E-0001	
 3.45650000000000E+0003	 3.76608536396619E-0001	
 3.45850000000000E+0003	 3.76145371890332E-0001	
 3.46050000000000E+0003	 3.75624707384045E-0001	
 3.46250000000000E+0003	 3.74993542877757E-0001	
 3.46450000000000E+0003	 3.74416878371470E-0001	
 3.46650000000000E+0003	 3.73961713865182E-0001	
 3.46850000000000E+0003	 3.73386049358895E-0001	
 3.47050000000000E+0003	 3.72495884852608E-0001	
 3.47250000000000E+0003	 3.71490220346320E-0001	
 3.47450000000000E+0003	 3.70593055840033E-0001	
 3.47650000000000E+0003	 3.69807891333746E-0001	
 3.47850000000000E+0003	 3.69060726827458E-0001	
 3.48050000000000E+0003	 3.68169062321171E-0001	
 3.48250000000000E+0003	 3.67116897814884E-0001	
 3.48450000000000E+0003	 3.66147733308596E-0001	
 3.48650000000000E+0003	 3.65235568802309E-0001	
 3.48850000000000E+0003	 3.64221404296021E-0001	
 3.49050000000000E+0003	 3.63166239789734E-0001	
 3.49250000000000E+0003	 3.62159575283447E-0001	
 3.49450000000000E+0003	 3.61155410777159E-0001	
 3.49650000000000E+0003	 3.60113746270872E-0001	
 3.49850000000000E+0003	 3.59031081764585E-0001	
 3.50050000000000E+0003	 3.57955417258297E-0001	
 3.50250000000000E+0003	 3.56822252752010E-0001	
 3.50450000000000E+0003	 3.55550588245723E-0001	
 3.50650000000000E+0003	 3.54271923739435E-0001	
 3.50850000000000E+0003	 3.53052259233148E-0001	
 3.51050000000000E+0003	 3.51865094726860E-0001	
 3.51250000000000E+0003	 3.50740930220573E-0001	
 3.51450000000000E+0003	 3.49562765714286E-0001	
 3.51650000000000E+0003	 3.48258101207998E-0001	
 3.51850000000000E+0003	 3.46949436701711E-0001	
 3.52050000000000E+0003	 3.45699772195424E-0001	
 3.52250000000000E+0003	 3.44479607689136E-0001	
 3.52450000000000E+0003	 3.43128443182849E-0001	
 3.52650000000000E+0003	 3.41640778676562E-0001	
 3.52850000000000E+0003	 3.40225614170274E-0001	
 3.53050000000000E+0003	 3.38864949663987E-0001	
 3.53250000000000E+0003	 3.37539785157699E-0001	
 3.53450000000000E+0003	 3.36257120651412E-0001	
 3.53650000000000E+0003	 3.34897456145125E-0001	
 3.53850000000000E+0003	 3.33381791638837E-0001	
 3.54050000000000E+0003	 3.31912627132550E-0001	
 3.54250000000000E+0003	 3.30548462626263E-0001	
 3.54450000000000E+0003	 3.29050298119975E-0001	
 3.54650000000000E+0003	 3.27284633613688E-0001	
 3.54850000000000E+0003	 3.25534469107401E-0001	
 3.55050000000000E+0003	 3.23941804601113E-0001	
 3.55250000000000E+0003	 3.22303640094826E-0001	
 3.55450000000000E+0003	 3.20594475588538E-0001	
 3.55650000000000E+0003	 3.18942311082251E-0001	
 3.55850000000000E+0003	 3.17292146575964E-0001	
 3.56050000000000E+0003	 3.15589482069676E-0001	
 3.56250000000000E+0003	 3.13837317563389E-0001	
 3.56450000000000E+0003	 3.11959653057102E-0001	
 3.56650000000000E+0003	 3.09894488550814E-0001	
 3.56850000000000E+0003	 3.07934324044527E-0001	
 3.57050000000000E+0003	 3.06196659538240E-0001	
 3.57250000000000E+0003	 3.04427495031952E-0001	
 3.57450000000000E+0003	 3.02525830525665E-0001	
 3.57650000000000E+0003	 3.00602666019377E-0001	
 3.57850000000000E+0003	 2.98680001513090E-0001	
 3.58050000000000E+0003	 2.96772337006803E-0001	
 3.58250000000000E+0003	 2.94935172500515E-0001	
 3.58450000000000E+0003	 2.93085007994228E-0001	
 3.58650000000000E+0003	 2.90899343487941E-0001	
 3.58850000000000E+0003	 2.88439178981653E-0001	
 3.59050000000000E+0003	 2.86234514475366E-0001	
 3.59250000000000E+0003	 2.84283349969079E-0001	
 3.59450000000000E+0003	 2.82187685462791E-0001	
 3.59650000000000E+0003	 2.80018520956504E-0001	
 3.59850000000000E+0003	 2.77905856450216E-0001	
 3.60050000000000E+0003	 2.75747191943929E-0001	
 3.60250000000000E+0003	 2.73558527437642E-0001	
 3.60450000000000E+0003	 2.71401362931354E-0001	
 3.60650000000000E+0003	 2.69132698425067E-0001	
 3.60850000000000E+0003	 2.66697033918780E-0001	
 3.61050000000000E+0003	 2.64268869412492E-0001	
 3.61250000000000E+0003	 2.61966704906205E-0001	
 3.61450000000000E+0003	 2.59785540399918E-0001	
 3.61650000000000E+0003	 2.57636375893630E-0001	
 3.61850000000000E+0003	 2.55445711387343E-0001	
 3.62050000000000E+0003	 2.53153046881055E-0001	
 3.62250000000000E+0003	 2.50823382374768E-0001	
 3.62450000000000E+0003	 2.48710717868481E-0001	
 3.62650000000000E+0003	 2.46617553362193E-0001	
 3.62850000000000E+0003	 2.44208888855906E-0001	
 3.63050000000000E+0003	 2.41621224349619E-0001	
 3.63250000000000E+0003	 2.39245559843331E-0001	
 3.63450000000000E+0003	 2.37104895337044E-0001	
 3.63650000000000E+0003	 2.34855230830757E-0001	
 3.63850000000000E+0003	 2.32620566324469E-0001	
 3.64050000000000E+0003	 2.30360901818182E-0001	
 3.64250000000000E+0003	 2.28135237311894E-0001	
 3.64450000000000E+0003	 2.25965072805607E-0001	
 3.64650000000000E+0003	 2.23789408299320E-0001	
 3.64850000000000E+0003	 2.21528243793032E-0001	
 3.65050000000000E+0003	 2.19349579286745E-0001	
 3.65250000000000E+0003	 2.17271414780458E-0001	
 3.65450000000000E+0003	 2.15258250274170E-0001	
 3.65650000000000E+0003	 2.13323585767883E-0001	
 3.65850000000000E+0003	 2.11409421261596E-0001	
 3.66050000000000E+0003	 2.09576756755308E-0001	
 3.66250000000000E+0003	 2.07685092249021E-0001	
 3.66450000000000E+0003	 2.05856427742733E-0001	
 3.66650000000000E+0003	 2.04216263236446E-0001	
 3.66850000000000E+0003	 2.02560598730159E-0001	
 3.67050000000000E+0003	 2.00991434223871E-0001	
 3.67250000000000E+0003	 1.99388769717584E-0001	
 3.67450000000000E+0003	 1.97822605211297E-0001	
 3.67650000000000E+0003	 1.96360940705009E-0001	
 3.67850000000000E+0003	 1.94897776198722E-0001	
 3.68050000000000E+0003	 1.93668111692435E-0001	
 3.68250000000000E+0003	 1.92467447186147E-0001	
 3.68450000000000E+0003	 1.91443782679860E-0001	
 3.68650000000000E+0003	 1.90404618173572E-0001	
 3.68850000000000E+0003	 1.89366953667285E-0001	
 3.69050000000000E+0003	 1.88359789160998E-0001	
 3.69250000000000E+0003	 1.87295124654710E-0001	
 3.69450000000000E+0003	 1.86295960148423E-0001	
 3.69650000000000E+0003	 1.85434295642136E-0001	
 3.69850000000000E+0003	 1.84582631135848E-0001	
 3.70050000000000E+0003	 1.83740466629561E-0001	
 3.70250000000000E+0003	 1.83027802123274E-0001	
 3.70450000000000E+0003	 1.82302637616986E-0001	
 3.70650000000000E+0003	 1.81594973110699E-0001	
 3.70850000000000E+0003	 1.80920808604411E-0001	
 3.71050000000000E+0003	 1.80224644098124E-0001	
 3.71250000000000E+0003	 1.79555979591837E-0001	
 3.71450000000000E+0003	 1.78925815085549E-0001	
 3.71650000000000E+0003	 1.78375150579262E-0001	
 3.71850000000000E+0003	 1.77879486072975E-0001	
 3.72050000000000E+0003	 1.77364321566687E-0001	
 3.72250000000000E+0003	 1.76913657060400E-0001	
 3.72450000000000E+0003	 1.76441492554113E-0001	
 3.72650000000000E+0003	 1.76023328047825E-0001	
 3.72850000000000E+0003	 1.75595163541538E-0001	
 3.73050000000000E+0003	 1.75038999035250E-0001	
 3.73250000000000E+0003	 1.74588834528963E-0001	
 3.73450000000000E+0003	 1.74273170022676E-0001	
 3.73650000000000E+0003	 1.73966505516388E-0001	
 3.73850000000000E+0003	 1.73463341010101E-0001	
 3.74050000000000E+0003	 1.73193676503814E-0001	
 3.74250000000000E+0003	 1.72748011997526E-0001	
 3.74450000000000E+0003	 1.72260347491239E-0001	
 3.74650000000000E+0003	 1.71835682984952E-0001	
 3.74850000000000E+0003	 1.71362018478664E-0001	
 3.75050000000000E+0003	 1.70951353972377E-0001	
 3.75250000000000E+0003	 1.70665689466089E-0001	
 3.75450000000000E+0003	 1.70415524959802E-0001	
 3.75650000000000E+0003	 1.70154360453515E-0001	
 3.75850000000000E+0003	 1.69871695947227E-0001	
 3.76050000000000E+0003	 1.69654031440940E-0001	
 3.76250000000000E+0003	 1.69360366934653E-0001	
 3.76450000000000E+0003	 1.69074202428365E-0001	
 3.76650000000000E+0003	 1.68852037922078E-0001	
 3.76850000000000E+0003	 1.68516373415791E-0001	
 3.77050000000000E+0003	 1.68323208909503E-0001	
 3.77250000000000E+0003	 1.68115044403216E-0001	
 3.77450000000000E+0003	 1.67901879896928E-0001	
 3.77650000000000E+0003	 1.67632715390641E-0001	
 3.77850000000000E+0003	 1.67366050884354E-0001	
 3.78050000000000E+0003	 1.67205886378066E-0001	
 3.78250000000000E+0003	 1.66923721871779E-0001	
 3.78450000000000E+0003	 1.66697057365492E-0001	
 3.78650000000000E+0003	 1.66517392859204E-0001	
 3.78850000000000E+0003	 1.66328728352917E-0001	
 3.79050000000000E+0003	 1.66150563846630E-0001	
 3.79250000000000E+0003	 1.65935899340342E-0001	
 3.79450000000000E+0003	 1.65615234834055E-0001	
 3.79650000000000E+0003	 1.65492570327767E-0001	
 3.79850000000000E+0003	 1.65391405821480E-0001	
 3.80050000000000E+0003	 1.65109241315193E-0001	
 3.80250000000000E+0003	 1.65019076808905E-0001	
 3.80450000000000E+0003	 1.64736912302618E-0001	
 3.80650000000000E+0003	 1.64569747796331E-0001	
 3.80850000000000E+0003	 1.64467583290043E-0001	
 3.81050000000000E+0003	 1.64308918783756E-0001	
 3.81250000000000E+0003	 1.64214254277469E-0001	
 3.81450000000000E+0003	 1.63947589771181E-0001	
 3.81650000000000E+0003	 1.63869425264894E-0001	
 3.81850000000000E+0003	 1.63669760758606E-0001	
 3.82050000000000E+0003	 1.63534096252319E-0001	
 3.82250000000000E+0003	 1.63502931746032E-0001	
 3.82450000000000E+0003	 1.63193767239744E-0001	
 3.82650000000000E+0003	 1.63081602733457E-0001	
 3.82850000000000E+0003	 1.62968938227170E-0001	
 3.83050000000000E+0003	 1.62820773720882E-0001	
 3.83250000000000E+0003	 1.62820109214595E-0001	
 3.83450000000000E+0003	 1.62859444708308E-0001	
 3.83650000000000E+0003	 1.62771280202020E-0001	
 3.83850000000000E+0003	 1.62542115695733E-0001	
 3.84050000000000E+0003	 1.62296951189445E-0001	
 3.84250000000000E+0003	 1.62119286683158E-0001	
 3.84450000000000E+0003	 1.62056622176871E-0001	
 3.84650000000000E+0003	 1.61948457670583E-0001	
 3.84850000000000E+0003	 1.61921793164296E-0001	
 3.85050000000000E+0003	 1.61930128658009E-0001	
 3.85250000000000E+0003	 1.61928464151721E-0001	
 3.85450000000000E+0003	 1.62059799645434E-0001	
 3.85650000000000E+0003	 1.61717135139147E-0001	
 3.85850000000000E+0003	 1.61391970632859E-0001	
 3.86050000000000E+0003	 1.61244306126572E-0001	
 3.86250000000000E+0003	 1.61199141620284E-0001	
 3.86450000000000E+0003	 1.61275477113997E-0001	
 3.86650000000000E+0003	 1.61244812607710E-0001	
 3.86850000000000E+0003	 1.61007148101422E-0001	
 3.87050000000000E+0003	 1.61016983595135E-0001	
 3.87250000000000E+0003	 1.60872819088848E-0001	
 3.87450000000000E+0003	 1.60873154582560E-0001	
 3.87650000000000E+0003	 1.60800990076273E-0001	
 3.87850000000000E+0003	 1.60584325569986E-0001	
 3.88050000000000E+0003	 1.60642661063698E-0001	
 3.88250000000000E+0003	 1.60654496557411E-0001	
 3.88450000000000E+0003	 1.60503332051123E-0001	
 3.88650000000000E+0003	 1.60517667544836E-0001	
 3.88850000000000E+0003	 1.60398503038549E-0001	
 3.89050000000000E+0003	 1.60441338532261E-0001	
 3.89250000000000E+0003	 1.60528174025974E-0001	
 3.89450000000000E+0003	 1.60385509519687E-0001	
 3.89650000000000E+0003	 1.60245845013399E-0001	
 3.89850000000000E+0003	 1.60196180507112E-0001	
 3.90050000000000E+0003	 1.60105016000825E-0001	
 3.90250000000000E+0003	 1.60007851494537E-0001	
 3.90450000000000E+0003	 1.60192186988250E-0001	
 3.90650000000000E+0003	 1.60231022481962E-0001	
 3.90850000000000E+0003	 1.60066857975675E-0001	
 3.91050000000000E+0003	 1.59979193469388E-0001	
 3.91250000000000E+0003	 1.59959028963100E-0001	
 3.91450000000000E+0003	 1.59884364456813E-0001	
 3.91650000000000E+0003	 1.59812199950526E-0001	
 3.91850000000000E+0003	 1.59792035444238E-0001	
 3.92050000000000E+0003	 1.59829370937951E-0001	
 3.92250000000000E+0003	 1.59824706431664E-0001	
 3.92450000000000E+0003	 1.59878541925376E-0001	
 3.92650000000000E+0003	 1.59904877419089E-0001	
 3.92850000000000E+0003	 1.59804212912801E-0001	
 3.93050000000000E+0003	 1.59701548406514E-0001	
 3.93250000000000E+0003	 1.59655883900227E-0001	
 3.93450000000000E+0003	 1.59673719393939E-0001	
 3.93650000000000E+0003	 1.59689054887652E-0001	
 3.93850000000000E+0003	 1.59694390381365E-0001	
 3.94050000000000E+0003	 1.59647725875077E-0001	
 3.94250000000000E+0003	 1.59674561368790E-0001	
 3.94450000000000E+0003	 1.59646396862503E-0001	
 3.94650000000000E+0003	 1.59519732356215E-0001	
 3.94850000000000E+0003	 1.59506567849928E-0001	
 3.95050000000000E+0003	 1.59568903343640E-0001	
 3.95250000000000E+0003	 1.59570738837353E-0001	
 3.95450000000000E+0003	 1.59527074331066E-0001	
 3.95650000000000E+0003	 1.59503909824778E-0001	
 3.95850000000000E+0003	 1.59487245318491E-0001	
 3.96050000000000E+0003	 1.59446080812204E-0001	
 3.96250000000000E+0003	 1.59427416305916E-0001	
 3.96450000000000E+0003	 1.59427251799629E-0001	
 3.96650000000000E+0003	 1.59432587293342E-0001	
 3.96850000000000E+0003	 1.59427922787054E-0001	
 3.97050000000000E+0003	 1.59409258280767E-0001	
 3.97250000000000E+0003	 1.59386093774479E-0001	
 3.97450000000000E+0003	 1.59371929268192E-0001	
 3.97650000000000E+0003	 1.59364264761905E-0001	
 3.97850000000000E+0003	 1.59353100255617E-0001	
 3.98050000000000E+0003	 1.59339435749330E-0001	
 3.98250000000000E+0003	 1.59348771243043E-0001	
 3.98450000000000E+0003	 1.59360106736755E-0001	
 3.98650000000000E+0003	 1.59340442230468E-0001	
 3.98850000000000E+0003	 1.59299277724181E-0001	
 3.99050000000000E+0003	 1.59288613217893E-0001	
 3.99250000000000E+0003	 1.59286948711606E-0001	
 3.99450000000000E+0003	 1.59289284205318E-0001	
 3.99650000000000E+0003	 1.59189619699031E-0001	
 3.99850000000000E+0003	 1.59169455192744E-0001	

>1	DATALINE
