*CPCWIN*

>1	DATALINE
DATALINE
1
Operator:

Description:

Remarks:





15.9.2008
11:22


_x	_y
	
	
UNIT	UNIT
 4.50500000000000E+0002	 1.35313790499793E-0001	
 4.52500000000000E+0002	 1.37413950640231E-0001	
 4.54500000000000E+0002	 1.40334110780669E-0001	
 4.56500000000000E+0002	 1.40903270921107E-0001	
 4.58500000000000E+0002	 1.43748431061545E-0001	
 4.60500000000000E+0002	 1.50398591201983E-0001	
 4.62500000000000E+0002	 1.55443751342420E-0001	
 4.64500000000000E+0002	 1.59948911482858E-0001	
 4.66500000000000E+0002	 1.62245071623296E-0001	
 4.68500000000000E+0002	 1.64841231763734E-0001	
 4.70500000000000E+0002	 1.66960891904172E-0001	
 4.72500000000000E+0002	 1.69860552044610E-0001	
 4.74500000000000E+0002	 1.75041212185048E-0001	
 4.76500000000000E+0002	 1.79782872325485E-0001	
 4.78500000000000E+0002	 1.83604032465923E-0001	
 4.80500000000000E+0002	 1.87489192606361E-0001	
 4.82500000000000E+0002	 1.90409352746799E-0001	
 4.84500000000000E+0002	 1.93798512887237E-0001	
 4.86500000000000E+0002	 1.97920173027675E-0001	
 4.88500000000000E+0002	 2.02618333168112E-0001	
 4.90500000000000E+0002	 2.06001493308550E-0001	
 4.92500000000000E+0002	 2.10145153448988E-0001	
 4.94500000000000E+0002	 2.15042313589426E-0001	
 4.96500000000000E+0002	 2.19768973729864E-0001	
 4.98500000000000E+0002	 2.23239633870302E-0001	
 5.00500000000000E+0002	 2.25381794010739E-0001	
 5.02500000000000E+0002	 2.28107954151177E-0001	
 5.04500000000000E+0002	 2.33081114291615E-0001	
 5.06500000000000E+0002	 2.36432274432053E-0001	
 5.08500000000000E+0002	 2.39688934572491E-0001	
 5.10500000000000E+0002	 2.42869094712929E-0001	
 5.12500000000000E+0002	 2.46244254853366E-0001	
 5.14500000000000E+0002	 2.48416914993804E-0001	
 5.16500000000000E+0002	 2.50148075134242E-0001	
 5.18500000000000E+0002	 2.52871735274680E-0001	
 5.20500000000000E+0002	 2.56805395415118E-0001	
 5.22500000000000E+0002	 2.59594555555556E-0001	
 5.24500000000000E+0002	 2.60593715695993E-0001	
 5.26500000000000E+0002	 2.62231875836431E-0001	
 5.28500000000000E+0002	 2.65345535976869E-0001	
 5.30500000000000E+0002	 2.67093696117307E-0001	
 5.32500000000000E+0002	 2.67920356257745E-0001	
 5.34500000000000E+0002	 2.68033016398183E-0001	
 5.36500000000000E+0002	 2.67818676538620E-0001	
 5.38500000000000E+0002	 2.66966836679058E-0001	
 5.40500000000000E+0002	 2.65595996819496E-0001	
 5.42500000000000E+0002	 2.63610656959934E-0001	
 5.44500000000000E+0002	 2.61239817100372E-0001	
 5.46500000000000E+0002	 2.58921477240810E-0001	
 5.48500000000000E+0002	 2.57184137381247E-0001	
 5.50500000000000E+0002	 2.55976797521685E-0001	
 5.52500000000000E+0002	 2.55199457662123E-0001	
 5.54500000000000E+0002	 2.54272117802561E-0001	
 5.56500000000000E+0002	 2.53580277942999E-0001	
 5.58500000000000E+0002	 2.53172938083437E-0001	
 5.60500000000000E+0002	 2.52912098223874E-0001	
 5.62500000000000E+0002	 2.52717258364312E-0001	
 5.64500000000000E+0002	 2.52783918504750E-0001	
 5.66500000000000E+0002	 2.52860078645188E-0001	
 5.68500000000000E+0002	 2.53074738785626E-0001	
 5.70500000000000E+0002	 2.53389898926064E-0001	
 5.72500000000000E+0002	 2.53587059066501E-0001	
 5.74500000000000E+0002	 2.52765719206939E-0001	
 5.76500000000000E+0002	 2.51820379347377E-0001	
 5.78500000000000E+0002	 2.50643539487815E-0001	
 5.80500000000000E+0002	 2.48343699628253E-0001	
 5.82500000000000E+0002	 2.45821859768691E-0001	
 5.84500000000000E+0002	 2.43781019909128E-0001	
 5.86500000000000E+0002	 2.42484180049566E-0001	
 5.88500000000000E+0002	 2.41862340190004E-0001	
 5.90500000000000E+0002	 2.41293000330442E-0001	
 5.92500000000000E+0002	 2.41931160470880E-0001	
 5.94500000000000E+0002	 2.43458820611318E-0001	
 5.96500000000000E+0002	 2.44811980751755E-0001	
 5.98500000000000E+0002	 2.45481640892193E-0001	
 6.00500000000000E+0002	 2.46326801032631E-0001	
 6.02500000000000E+0002	 2.47438461173069E-0001	
 6.04500000000000E+0002	 2.48490621313507E-0001	
 6.06500000000000E+0002	 2.49413781453945E-0001	
 6.08500000000000E+0002	 2.50361941594382E-0001	
 6.10500000000000E+0002	 2.51085601734820E-0001	
 6.12500000000000E+0002	 2.51499261875258E-0001	
 6.14500000000000E+0002	 2.51127422015696E-0001	
 6.16500000000000E+0002	 2.50145582156134E-0001	
 6.18500000000000E+0002	 2.48627242296572E-0001	
 6.20500000000000E+0002	 2.46853402437010E-0001	
 6.22500000000000E+0002	 2.44982562577447E-0001	
 6.24500000000000E+0002	 2.43177222717885E-0001	
 6.26500000000000E+0002	 2.41832382858323E-0001	
 6.28500000000000E+0002	 2.40898542998761E-0001	
 6.30500000000000E+0002	 2.39872703139199E-0001	
 6.32500000000000E+0002	 2.38858363279637E-0001	
 6.34500000000000E+0002	 2.38075023420074E-0001	
 6.36500000000000E+0002	 2.37941183560512E-0001	
 6.38500000000000E+0002	 2.37949843700950E-0001	
 6.40500000000000E+0002	 2.37700503841388E-0001	
 6.42500000000000E+0002	 2.37057163981826E-0001	
 6.44500000000000E+0002	 2.35985824122264E-0001	
 6.46500000000000E+0002	 2.34662984262701E-0001	
 6.48500000000000E+0002	 2.33290144403139E-0001	
 6.50500000000000E+0002	 2.31779804543577E-0001	
 6.52500000000000E+0002	 2.30513964684015E-0001	
 6.54500000000000E+0002	 2.29496124824453E-0001	
 6.56500000000000E+0002	 2.28777784964891E-0001	
 6.58500000000000E+0002	 2.28076945105328E-0001	
 6.60500000000000E+0002	 2.27735605245766E-0001	
 6.62500000000000E+0002	 2.27346265386204E-0001	
 6.64500000000000E+0002	 2.26755425526642E-0001	
 6.66500000000000E+0002	 2.25330085667080E-0001	
 6.68500000000000E+0002	 2.23468245807518E-0001	
 6.70500000000000E+0002	 2.22589405947955E-0001	
 6.72500000000000E+0002	 2.22152066088393E-0001	
 6.74500000000000E+0002	 2.20741726228831E-0001	
 6.76500000000000E+0002	 2.19202386369269E-0001	
 6.78500000000000E+0002	 2.17597046509707E-0001	
 6.80500000000000E+0002	 2.16272706650145E-0001	
 6.82500000000000E+0002	 2.15013866790582E-0001	
 6.84500000000000E+0002	 2.14015526931020E-0001	
 6.86500000000000E+0002	 2.12977187071458E-0001	
 6.88500000000000E+0002	 2.12221847211896E-0001	
 6.90500000000000E+0002	 2.11972507352334E-0001	
 6.92500000000000E+0002	 2.12136667492772E-0001	
 6.94500000000000E+0002	 2.12465827633209E-0001	
 6.96500000000000E+0002	 2.13087987773647E-0001	
 6.98500000000000E+0002	 2.13642147914085E-0001	
 7.00500000000000E+0002	 2.13759808054523E-0001	
 7.02500000000000E+0002	 2.12967468194961E-0001	
 7.04500000000000E+0002	 2.11361128335399E-0001	
 7.06500000000000E+0002	 2.09232288475836E-0001	
 7.08500000000000E+0002	 2.06615948616274E-0001	
 7.10500000000000E+0002	 2.03622608756712E-0001	
 7.12500000000000E+0002	 2.00491768897150E-0001	
 7.14500000000000E+0002	 1.97492929037588E-0001	
 7.16500000000000E+0002	 1.94822589178026E-0001	
 7.18500000000000E+0002	 1.92550249318463E-0001	
 7.20500000000000E+0002	 1.90340909458901E-0001	
 7.22500000000000E+0002	 1.87960569599339E-0001	
 7.24500000000000E+0002	 1.85177229739777E-0001	
 7.26500000000000E+0002	 1.81909889880215E-0001	
 7.28500000000000E+0002	 1.78434050020653E-0001	
 7.30500000000000E+0002	 1.75080710161090E-0001	
 7.32500000000000E+0002	 1.72144870301528E-0001	
 7.34500000000000E+0002	 1.69642530441966E-0001	
 7.36500000000000E+0002	 1.67549690582404E-0001	
 7.38500000000000E+0002	 1.65714350722842E-0001	
 7.40500000000000E+0002	 1.64212510863280E-0001	
 7.42500000000000E+0002	 1.62944671003717E-0001	
 7.44500000000000E+0002	 1.62046331144155E-0001	
 7.46500000000000E+0002	 1.61308491284593E-0001	
 7.48500000000000E+0002	 1.60643651425031E-0001	
 7.50500000000000E+0002	 1.59632811565469E-0001	
 7.52500000000000E+0002	 1.58378471705907E-0001	
 7.54500000000000E+0002	 1.56651131846344E-0001	
 7.56500000000000E+0002	 1.54710291986782E-0001	
 7.58500000000000E+0002	 1.52466452127220E-0001	
 7.60500000000000E+0002	 1.50482612267658E-0001	
 7.62500000000000E+0002	 1.48771772408096E-0001	
 7.64500000000000E+0002	 1.47335432548534E-0001	
 7.66500000000000E+0002	 1.45336092688971E-0001	
 7.68500000000000E+0002	 1.42835252829409E-0001	
 7.70500000000000E+0002	 1.40205912969847E-0001	
 7.72500000000000E+0002	 1.38505073110285E-0001	
 7.74500000000000E+0002	 1.38120233250723E-0001	
 7.76500000000000E+0002	 1.39731393391161E-0001	
 7.78500000000000E+0002	 1.42235553531599E-0001	
 7.80500000000000E+0002	 1.43037213672036E-0001	
 7.82500000000000E+0002	 1.41077373812474E-0001	
 7.84500000000000E+0002	 1.38639033952912E-0001	
 7.86500000000000E+0002	 1.37062194093350E-0001	
 7.88500000000000E+0002	 1.36334854233788E-0001	
 7.90500000000000E+0002	 1.36333514374226E-0001	
 7.92500000000000E+0002	 1.37766674514663E-0001	
 7.94500000000000E+0002	 1.40699334655101E-0001	
 7.96500000000000E+0002	 1.44083494795539E-0001	
 7.98500000000000E+0002	 1.46900154935977E-0001	
 8.00500000000000E+0002	 1.49116315076415E-0001	
 8.02500000000000E+0002	 1.50637975216853E-0001	
 8.04500000000000E+0002	 1.50924635357290E-0001	
 8.06500000000000E+0002	 1.49428295497728E-0001	
 8.08500000000000E+0002	 1.46532455638166E-0001	
 8.10500000000000E+0002	 1.43291115778604E-0001	
 8.12500000000000E+0002	 1.40465275919042E-0001	
 8.14500000000000E+0002	 1.38344436059480E-0001	
 8.16500000000000E+0002	 1.36860096199917E-0001	
 8.18500000000000E+0002	 1.35895256340355E-0001	
 8.20500000000000E+0002	 1.35394416480793E-0001	
 8.22500000000000E+0002	 1.35279576621231E-0001	
 8.24500000000000E+0002	 1.35465736761669E-0001	
 8.26500000000000E+0002	 1.35872896902107E-0001	
 8.28500000000000E+0002	 1.36553057042544E-0001	
 8.30500000000000E+0002	 1.37481217182982E-0001	
 8.32500000000000E+0002	 1.38692377323420E-0001	
 8.34500000000000E+0002	 1.40055537463858E-0001	
 8.36500000000000E+0002	 1.41566197604296E-0001	
 8.38500000000000E+0002	 1.43049357744734E-0001	
 8.40500000000000E+0002	 1.44573517885171E-0001	
 8.42500000000000E+0002	 1.46067178025609E-0001	
 8.44500000000000E+0002	 1.47812338166047E-0001	
 8.46500000000000E+0002	 1.49793998306485E-0001	
 8.48500000000000E+0002	 1.52215158446923E-0001	
 8.50500000000000E+0002	 1.54791318587361E-0001	
 8.52500000000000E+0002	 1.57580478727798E-0001	
 8.54500000000000E+0002	 1.60143138868236E-0001	
 8.56500000000000E+0002	 1.62426299008674E-0001	
 8.58500000000000E+0002	 1.63898959149112E-0001	
 8.60500000000000E+0002	 1.64530619289550E-0001	
 8.62500000000000E+0002	 1.63899279429988E-0001	
 8.64500000000000E+0002	 1.62335439570425E-0001	
 8.66500000000000E+0002	 1.59891099710863E-0001	
 8.68500000000000E+0002	 1.57327759851301E-0001	
 8.70500000000000E+0002	 1.54957419991739E-0001	
 8.72500000000000E+0002	 1.52737080132177E-0001	
 8.74500000000000E+0002	 1.49878240272615E-0001	
 8.76500000000000E+0002	 1.47004400413052E-0001	
 8.78500000000000E+0002	 1.44420060553490E-0001	
 8.80500000000000E+0002	 1.42224720693928E-0001	
 8.82500000000000E+0002	 1.40129880834366E-0001	
 8.84500000000000E+0002	 1.38246540974804E-0001	
 8.86500000000000E+0002	 1.36594701115242E-0001	
 8.88500000000000E+0002	 1.35461861255679E-0001	
 8.90500000000000E+0002	 1.35017521396117E-0001	
 8.92500000000000E+0002	 1.35399681536555E-0001	
 8.94500000000000E+0002	 1.36486341676993E-0001	
 8.96500000000000E+0002	 1.38020001817431E-0001	
 8.98500000000000E+0002	 1.39939661957869E-0001	
 9.00500000000000E+0002	 1.42273822098306E-0001	
 9.02500000000000E+0002	 1.45216982238744E-0001	
 9.04500000000000E+0002	 1.48785142379182E-0001	
 9.06500000000000E+0002	 1.52924302519620E-0001	
 9.08500000000000E+0002	 1.57212462660058E-0001	
 9.10500000000000E+0002	 1.61199622800496E-0001	
 9.12500000000000E+0002	 1.64329282940933E-0001	
 9.14500000000000E+0002	 1.66284943081371E-0001	
 9.16500000000000E+0002	 1.66994103221809E-0001	
 9.18500000000000E+0002	 1.66840263362247E-0001	
 9.20500000000000E+0002	 1.66440423502685E-0001	
 9.22500000000000E+0002	 1.66489583643123E-0001	
 9.24500000000000E+0002	 1.67581743783561E-0001	
 9.26500000000000E+0002	 1.69861403923998E-0001	
 9.28500000000000E+0002	 1.73300564064436E-0001	
 9.30500000000000E+0002	 1.77455724204874E-0001	
 9.32500000000000E+0002	 1.81995884345312E-0001	
 9.34500000000000E+0002	 1.86342044485750E-0001	
 9.36500000000000E+0002	 1.90423704626188E-0001	
 9.38500000000000E+0002	 1.94027864766625E-0001	
 9.40500000000000E+0002	 1.97289024907063E-0001	
 9.42500000000000E+0002	 1.99869685047501E-0001	
 9.44500000000000E+0002	 2.01810845187939E-0001	
 9.46500000000000E+0002	 2.02884005328377E-0001	
 9.48500000000000E+0002	 2.03500165468815E-0001	
 9.50500000000000E+0002	 2.03944325609252E-0001	
 9.52500000000000E+0002	 2.05106985749690E-0001	
 9.54500000000000E+0002	 2.07434645890128E-0001	
 9.56500000000000E+0002	 2.11416806030566E-0001	
 9.58500000000000E+0002	 2.16790466171004E-0001	
 9.60500000000000E+0002	 2.23366126311442E-0001	
 9.62500000000000E+0002	 2.30587286451879E-0001	
 9.64500000000000E+0002	 2.38234446592317E-0001	
 9.66500000000000E+0002	 2.46081106732755E-0001	
 9.68500000000000E+0002	 2.54399766873193E-0001	
 9.70500000000000E+0002	 2.63672427013631E-0001	
 9.72500000000000E+0002	 2.74791087154069E-0001	
 9.74500000000000E+0002	 2.88628247294506E-0001	
 9.76500000000000E+0002	 3.05813907434944E-0001	
 9.78500000000000E+0002	 3.26374067575382E-0001	
 9.80500000000000E+0002	 3.49448227715820E-0001	
 9.82500000000000E+0002	 3.73367887856258E-0001	
 9.84500000000000E+0002	 3.95903047996696E-0001	
 9.86500000000000E+0002	 4.14943208137133E-0001	
 9.88500000000000E+0002	 4.28969368277571E-0001	
 9.90500000000000E+0002	 4.37392028418009E-0001	
 9.92500000000000E+0002	 4.40340688558447E-0001	
 9.94500000000000E+0002	 4.38684348698885E-0001	
 9.96500000000000E+0002	 4.33875508839323E-0001	
 9.98500000000000E+0002	 4.27868668979760E-0001	
 1.00050000000000E+0003	 4.22936829120198E-0001	
 1.00250000000000E+0003	 4.21045489260636E-0001	
 1.00450000000000E+0003	 4.23364149401074E-0001	
 1.00650000000000E+0003	 4.29769309541512E-0001	
 1.00850000000000E+0003	 4.39204469681950E-0001	
 1.01050000000000E+0003	 4.49977129822387E-0001	
 1.01250000000000E+0003	 4.60812789962825E-0001	
 1.01450000000000E+0003	 4.70914950103263E-0001	
 1.01650000000000E+0003	 4.80465610243701E-0001	
 1.01850000000000E+0003	 4.89999770384139E-0001	
 1.02050000000000E+0003	 5.00390430524577E-0001	
 1.02250000000000E+0003	 5.11921090665014E-0001	
 1.02450000000000E+0003	 5.24284250805452E-0001	
 1.02650000000000E+0003	 5.36237910945890E-0001	
 1.02850000000000E+0003	 5.46548571086328E-0001	
 1.03050000000000E+0003	 5.54202231226766E-0001	
 1.03250000000000E+0003	 5.59206391367204E-0001	
 1.03450000000000E+0003	 5.62222051507641E-0001	
 1.03650000000000E+0003	 5.64253711648079E-0001	
 1.03850000000000E+0003	 5.65996871788517E-0001	
 1.04050000000000E+0003	 5.68158031928955E-0001	
 1.04250000000000E+0003	 5.71111192069393E-0001	
 1.04450000000000E+0003	 5.74826352209831E-0001	
 1.04650000000000E+0003	 5.78675512350268E-0001	
 1.04850000000000E+0003	 5.81860172490706E-0001	
 1.05050000000000E+0003	 5.83573332631144E-0001	
 1.05250000000000E+0003	 5.83601492771582E-0001	
 1.05450000000000E+0003	 5.82308152912020E-0001	
 1.05650000000000E+0003	 5.80320813052458E-0001	
 1.05850000000000E+0003	 5.77982973192895E-0001	
 1.06050000000000E+0003	 5.75422633333333E-0001	
 1.06250000000000E+0003	 5.72696793473771E-0001	
 1.06450000000000E+0003	 5.70314453614209E-0001	
 1.06650000000000E+0003	 5.68941613754647E-0001	
 1.06850000000000E+0003	 5.69203773895085E-0001	
 1.07050000000000E+0003	 5.71022934035523E-0001	
 1.07250000000000E+0003	 5.73851594175960E-0001	
 1.07450000000000E+0003	 5.76685754316398E-0001	
 1.07650000000000E+0003	 5.78660914456836E-0001	
 1.07850000000000E+0003	 5.78797574597274E-0001	
 1.08050000000000E+0003	 5.76569734737712E-0001	
 1.08250000000000E+0003	 5.71768894878150E-0001	
 1.08450000000000E+0003	 5.64843555018587E-0001	
 1.08650000000000E+0003	 5.56324215159025E-0001	
 1.08850000000000E+0003	 5.47083375299463E-0001	
 1.09050000000000E+0003	 5.38082035439901E-0001	
 1.09250000000000E+0003	 5.30467195580339E-0001	
 1.09450000000000E+0003	 5.24721355720777E-0001	
 1.09650000000000E+0003	 5.20901015861214E-0001	
 1.09850000000000E+0003	 5.18445676001652E-0001	
 1.10050000000000E+0003	 5.16717836142090E-0001	
 1.10250000000000E+0003	 5.15017496282528E-0001	
 1.10450000000000E+0003	 5.12976156422966E-0001	
 1.10650000000000E+0003	 5.10294316563404E-0001	
 1.10850000000000E+0003	 5.07074476703841E-0001	
 1.11050000000000E+0003	 5.03356136844279E-0001	
 1.11250000000000E+0003	 4.99179796984717E-0001	
 1.11450000000000E+0003	 4.94194957125155E-0001	
 1.11650000000000E+0003	 4.88056617265593E-0001	
 1.11850000000000E+0003	 4.80470777406031E-0001	
 1.12050000000000E+0003	 4.71461937546468E-0001	
 1.12250000000000E+0003	 4.61119597686906E-0001	
 1.12450000000000E+0003	 4.49839257827344E-0001	
 1.12650000000000E+0003	 4.37914917967782E-0001	
 1.12850000000000E+0003	 4.25768578108220E-0001	
 1.13050000000000E+0003	 4.13683238248658E-0001	
 1.13250000000000E+0003	 4.02280398389095E-0001	
 1.13450000000000E+0003	 3.92150058529533E-0001	
 1.13650000000000E+0003	 3.84095718669971E-0001	
 1.13850000000000E+0003	 3.78675378810409E-0001	
 1.14050000000000E+0003	 3.76288538950847E-0001	
 1.14250000000000E+0003	 3.76673699091285E-0001	
 1.14450000000000E+0003	 3.78977859231722E-0001	
 1.14650000000000E+0003	 3.81587019372160E-0001	
 1.14850000000000E+0003	 3.82838179512598E-0001	
 1.15050000000000E+0003	 3.81211839653036E-0001	
 1.15250000000000E+0003	 3.76031999793474E-0001	
 1.15450000000000E+0003	 3.67295659933912E-0001	
 1.15650000000000E+0003	 3.55782820074349E-0001	
 1.15850000000000E+0003	 3.42530480214787E-0001	
 1.16050000000000E+0003	 3.28744140355225E-0001	
 1.16250000000000E+0003	 3.15401300495663E-0001	
 1.16450000000000E+0003	 3.03310960636101E-0001	
 1.16650000000000E+0003	 2.92907120776539E-0001	
 1.16850000000000E+0003	 2.84420780916976E-0001	
 1.17050000000000E+0003	 2.77655441057414E-0001	
 1.17250000000000E+0003	 2.72189101197852E-0001	
 1.17450000000000E+0003	 2.67597761338290E-0001	
 1.17650000000000E+0003	 2.63890921478728E-0001	
 1.17850000000000E+0003	 2.61312081619166E-0001	
 1.18050000000000E+0003	 2.60367741759603E-0001	
 1.18250000000000E+0003	 2.61392901900041E-0001	
 1.18450000000000E+0003	 2.64664062040479E-0001	
 1.18650000000000E+0003	 2.70237722180917E-0001	
 1.18850000000000E+0003	 2.78145382321355E-0001	
 1.19050000000000E+0003	 2.88051542461793E-0001	
 1.19250000000000E+0003	 2.99680702602230E-0001	
 1.19450000000000E+0003	 3.12560862742668E-0001	
 1.19650000000000E+0003	 3.26277522883106E-0001	
 1.19850000000000E+0003	 3.40190683023544E-0001	
 1.20050000000000E+0003	 3.53832343163982E-0001	
 1.20250000000000E+0003	 3.66593503304420E-0001	
 1.20450000000000E+0003	 3.78269663444857E-0001	
 1.20650000000000E+0003	 3.88610823585295E-0001	
 1.20850000000000E+0003	 3.97743483725733E-0001	
 1.21050000000000E+0003	 4.05827143866171E-0001	
 1.21250000000000E+0003	 4.13365804006609E-0001	
 1.21450000000000E+0003	 4.20484464147047E-0001	
 1.21650000000000E+0003	 4.26911124287485E-0001	
 1.21850000000000E+0003	 4.31931284427922E-0001	
 1.22050000000000E+0003	 4.35730944568360E-0001	
 1.22250000000000E+0003	 4.39045604708798E-0001	
 1.22450000000000E+0003	 4.42193264849236E-0001	
 1.22650000000000E+0003	 4.45021424989674E-0001	
 1.22850000000000E+0003	 4.47465585130112E-0001	
 1.23050000000000E+0003	 4.49364245270549E-0001	
 1.23250000000000E+0003	 4.50681405410987E-0001	
 1.23450000000000E+0003	 4.51352065551425E-0001	
 1.23650000000000E+0003	 4.51286725691863E-0001	
 1.23850000000000E+0003	 4.50339385832301E-0001	
 1.24050000000000E+0003	 4.48416545972739E-0001	
 1.24250000000000E+0003	 4.45483206113176E-0001	
 1.24450000000000E+0003	 4.41667866253614E-0001	
 1.24650000000000E+0003	 4.37054526394052E-0001	
 1.24850000000000E+0003	 4.31682186534490E-0001	
 1.25050000000000E+0003	 4.25672846674928E-0001	
 1.25250000000000E+0003	 4.19184006815366E-0001	
 1.25450000000000E+0003	 4.12262666955803E-0001	
 1.25650000000000E+0003	 4.04954327096241E-0001	
 1.25850000000000E+0003	 3.97283987236679E-0001	
 1.26050000000000E+0003	 3.89493147377117E-0001	
 1.26250000000000E+0003	 3.81722307517555E-0001	
 1.26450000000000E+0003	 3.74024467657993E-0001	
 1.26650000000000E+0003	 3.66471627798430E-0001	
 1.26850000000000E+0003	 3.59384787938868E-0001	
 1.27050000000000E+0003	 3.52882948079306E-0001	
 1.27250000000000E+0003	 3.47164608219744E-0001	
 1.27450000000000E+0003	 3.42016268360182E-0001	
 1.27650000000000E+0003	 3.37346928500620E-0001	
 1.27850000000000E+0003	 3.33019588641057E-0001	
 1.28050000000000E+0003	 3.29120248781495E-0001	
 1.28250000000000E+0003	 3.25358908921933E-0001	
 1.28450000000000E+0003	 3.21531069062371E-0001	
 1.28650000000000E+0003	 3.17589729202809E-0001	
 1.28850000000000E+0003	 3.14147889343247E-0001	
 1.29050000000000E+0003	 3.11385549483684E-0001	
 1.29250000000000E+0003	 3.09150709624122E-0001	
 1.29450000000000E+0003	 3.07248369764560E-0001	
 1.29650000000000E+0003	 3.05959529904998E-0001	
 1.29850000000000E+0003	 3.05427690045436E-0001	
 1.30050000000000E+0003	 3.05467850185874E-0001	
 1.30250000000000E+0003	 3.05767510326311E-0001	
 1.30450000000000E+0003	 3.06193170466749E-0001	
 1.30650000000000E+0003	 3.06673830607187E-0001	
 1.30850000000000E+0003	 3.07260990747625E-0001	
 1.31050000000000E+0003	 3.07660650888063E-0001	
 1.31250000000000E+0003	 3.07926811028501E-0001	
 1.31450000000000E+0003	 3.08350971168938E-0001	
 1.31650000000000E+0003	 3.08569631309376E-0001	
 1.31850000000000E+0003	 3.08665791449814E-0001	
 1.32050000000000E+0003	 3.09009451590252E-0001	
 1.32250000000000E+0003	 3.09257611730690E-0001	
 1.32450000000000E+0003	 3.09113271871128E-0001	
 1.32650000000000E+0003	 3.08740432011565E-0001	
 1.32850000000000E+0003	 3.08297092152003E-0001	
 1.33050000000000E+0003	 3.07820752292441E-0001	
 1.33250000000000E+0003	 3.07072912432879E-0001	
 1.33450000000000E+0003	 3.05144572573317E-0001	
 1.33650000000000E+0003	 3.01753732713755E-0001	
 1.33850000000000E+0003	 2.98618892854192E-0001	
 1.34050000000000E+0003	 2.97740052994630E-0001	
 1.34250000000000E+0003	 2.97482213135068E-0001	
 1.34450000000000E+0003	 2.95416873275506E-0001	
 1.34650000000000E+0003	 2.92195533415944E-0001	
 1.34850000000000E+0003	 2.89180693556382E-0001	
 1.35050000000000E+0003	 2.86612853696819E-0001	
 1.35250000000000E+0003	 2.84673013837257E-0001	
 1.35450000000000E+0003	 2.83468173977695E-0001	
 1.35650000000000E+0003	 2.83288834118133E-0001	
 1.35850000000000E+0003	 2.83219494258571E-0001	
 1.36050000000000E+0003	 2.83614654399009E-0001	
 1.36250000000000E+0003	 2.88201814539447E-0001	
 1.36450000000000E+0003	 2.98535974679884E-0001	
 1.36650000000000E+0003	 3.09756134820322E-0001	
 1.36850000000000E+0003	 3.19904294960760E-0001	
 1.37050000000000E+0003	 3.28469455101198E-0001	
 1.37250000000000E+0003	 3.34926115241636E-0001	
 1.37450000000000E+0003	 3.41462775382074E-0001	
 1.37650000000000E+0003	 3.47826935522511E-0001	
 1.37850000000000E+0003	 3.52158595662949E-0001	
 1.38050000000000E+0003	 3.55089755803387E-0001	
 1.38250000000000E+0003	 3.57056915943825E-0001	
 1.38450000000000E+0003	 3.57587076084263E-0001	
 1.38650000000000E+0003	 3.58343236224701E-0001	
 1.38850000000000E+0003	 3.61004396365138E-0001	
 1.39050000000000E+0003	 3.63364556505576E-0001	
 1.39250000000000E+0003	 3.63506716646014E-0001	
 1.39450000000000E+0003	 3.63444876786452E-0001	
 1.39650000000000E+0003	 3.64698036926890E-0001	
 1.39850000000000E+0003	 3.67521197067328E-0001	
 1.40050000000000E+0003	 3.70226857207765E-0001	
 1.40250000000000E+0003	 3.70293517348203E-0001	
 1.40450000000000E+0003	 3.68141177488641E-0001	
 1.40650000000000E+0003	 3.66469337629079E-0001	
 1.40850000000000E+0003	 3.64473997769517E-0001	
 1.41050000000000E+0003	 3.61433657909955E-0001	
 1.41250000000000E+0003	 3.58208318050392E-0001	
 1.41450000000000E+0003	 3.53255478190830E-0001	
 1.41650000000000E+0003	 3.46582638331268E-0001	
 1.41850000000000E+0003	 3.43070798471706E-0001	
 1.42050000000000E+0003	 3.40950958612144E-0001	
 1.42250000000000E+0003	 3.37892618752582E-0001	
 1.42450000000000E+0003	 3.34024278893019E-0001	
 1.42650000000000E+0003	 3.29973939033457E-0001	
 1.42850000000000E+0003	 3.25932599173895E-0001	
 1.43050000000000E+0003	 3.23373259314333E-0001	
 1.43250000000000E+0003	 3.21914419454771E-0001	
 1.43450000000000E+0003	 3.20683579595209E-0001	
 1.43650000000000E+0003	 3.23081239735646E-0001	
 1.43850000000000E+0003	 3.29810399876084E-0001	
 1.44050000000000E+0003	 3.36029060016522E-0001	
 1.44250000000000E+0003	 3.40308220156960E-0001	
 1.44450000000000E+0003	 3.42925880297398E-0001	
 1.44650000000000E+0003	 3.45133040437836E-0001	
 1.44850000000000E+0003	 3.48556200578273E-0001	
 1.45050000000000E+0003	 3.52337360718711E-0001	
 1.45250000000000E+0003	 3.52810520859149E-0001	
 1.45450000000000E+0003	 3.51033680999587E-0001	
 1.45650000000000E+0003	 3.48350841140025E-0001	
 1.45850000000000E+0003	 3.44142501280463E-0001	
 1.46050000000000E+0003	 3.41510661420900E-0001	
 1.46250000000000E+0003	 3.36652321561338E-0001	
 1.46450000000000E+0003	 3.29053981701776E-0001	
 1.46650000000000E+0003	 3.21229641842214E-0001	
 1.46850000000000E+0003	 3.12536301982652E-0001	
 1.47050000000000E+0003	 3.01592962123090E-0001	
 1.47250000000000E+0003	 2.89295122263527E-0001	
 1.47450000000000E+0003	 2.78575782403965E-0001	
 1.47650000000000E+0003	 2.73463442544403E-0001	
 1.47850000000000E+0003	 2.71426102684841E-0001	
 1.48050000000000E+0003	 2.70162762825279E-0001	
 1.48250000000000E+0003	 2.69915422965717E-0001	
 1.48450000000000E+0003	 2.70635083106154E-0001	
 1.48650000000000E+0003	 2.71663243246592E-0001	
 1.48850000000000E+0003	 2.75451903387030E-0001	
 1.49050000000000E+0003	 2.86363563527468E-0001	
 1.49250000000000E+0003	 3.00538223667906E-0001	
 1.49450000000000E+0003	 3.13732883808344E-0001	
 1.49650000000000E+0003	 3.25065543948781E-0001	
 1.49850000000000E+0003	 3.36848704089219E-0001	
 1.50050000000000E+0003	 3.50374864229657E-0001	
 1.50250000000000E+0003	 3.63065524370095E-0001	
 1.50450000000000E+0003	 3.74546684510533E-0001	
 1.50650000000000E+0003	 3.86893344650971E-0001	
 1.50850000000000E+0003	 4.01711504791409E-0001	
 1.51050000000000E+0003	 4.21744664931846E-0001	
 1.51250000000000E+0003	 4.40638825072284E-0001	
 1.51450000000000E+0003	 4.55074985212722E-0001	
 1.51650000000000E+0003	 4.67334145353160E-0001	
 1.51850000000000E+0003	 4.79158305493598E-0001	
 1.52050000000000E+0003	 4.92469465634036E-0001	
 1.52250000000000E+0003	 5.02802125774473E-0001	
 1.52450000000000E+0003	 5.12795285914911E-0001	
 1.52650000000000E+0003	 5.24547446055349E-0001	
 1.52850000000000E+0003	 5.36276106195787E-0001	
 1.53050000000000E+0003	 5.44815266336225E-0001	
 1.53250000000000E+0003	 5.52670426476663E-0001	
 1.53450000000000E+0003	 5.61014586617100E-0001	
 1.53650000000000E+0003	 5.69904746757538E-0001	
 1.53850000000000E+0003	 5.78042906897976E-0001	
 1.54050000000000E+0003	 5.78911067038414E-0001	
 1.54250000000000E+0003	 5.79172727178852E-0001	
 1.54450000000000E+0003	 5.83271387319290E-0001	
 1.54650000000000E+0003	 5.86253547459727E-0001	
 1.54850000000000E+0003	 5.84745207600165E-0001	
 1.55050000000000E+0003	 5.79481867740603E-0001	
 1.55250000000000E+0003	 5.73827027881041E-0001	
 1.55450000000000E+0003	 5.62563188021479E-0001	
 1.55650000000000E+0003	 5.50153348161917E-0001	
 1.55850000000000E+0003	 5.41217508302354E-0001	
 1.56050000000000E+0003	 5.28835168442792E-0001	
 1.56250000000000E+0003	 5.20170828583230E-0001	
 1.56450000000000E+0003	 5.10936988723668E-0001	
 1.56650000000000E+0003	 4.99193148864106E-0001	
 1.56850000000000E+0003	 4.89932809004544E-0001	
 1.57050000000000E+0003	 4.79858969144981E-0001	
 1.57250000000000E+0003	 4.72230129285419E-0001	
 1.57450000000000E+0003	 4.69686289425857E-0001	
 1.57650000000000E+0003	 4.60841449566295E-0001	
 1.57850000000000E+0003	 4.48392109706733E-0001	
 1.58050000000000E+0003	 4.42374769847171E-0001	
 1.58250000000000E+0003	 4.36827429987608E-0001	
 1.58450000000000E+0003	 4.32591090128046E-0001	
 1.58650000000000E+0003	 4.29651250268484E-0001	
 1.58850000000000E+0003	 4.28667910408922E-0001	
 1.59050000000000E+0003	 4.29154070549360E-0001	
 1.59250000000000E+0003	 4.31549730689798E-0001	
 1.59450000000000E+0003	 4.35127890830235E-0001	
 1.59650000000000E+0003	 4.39962550970673E-0001	
 1.59850000000000E+0003	 4.45425211111111E-0001	
 1.60050000000000E+0003	 4.51837371251549E-0001	
 1.60250000000000E+0003	 4.59026031391987E-0001	
 1.60450000000000E+0003	 4.67609191532425E-0001	
 1.60650000000000E+0003	 4.77313851672862E-0001	
 1.60850000000000E+0003	 4.88966511813300E-0001	
 1.61050000000000E+0003	 5.02398171953738E-0001	
 1.61250000000000E+0003	 5.16919332094176E-0001	
 1.61450000000000E+0003	 5.35187992234614E-0001	
 1.61650000000000E+0003	 5.55734652375052E-0001	
 1.61850000000000E+0003	 5.71327312515489E-0001	
 1.62050000000000E+0003	 5.87754472655927E-0001	
 1.62250000000000E+0003	 6.07548632796365E-0001	
 1.62450000000000E+0003	 6.28837292936803E-0001	
 1.62650000000000E+0003	 6.50195953077241E-0001	
 1.62850000000000E+0003	 6.71732113217679E-0001	
 1.63050000000000E+0003	 6.91149273358116E-0001	
 1.63250000000000E+0003	 7.07251933498554E-0001	
 1.63450000000000E+0003	 7.24254593638992E-0001	
 1.63650000000000E+0003	 7.39376753779430E-0001	
 1.63850000000000E+0003	 7.52043413919868E-0001	
 1.64050000000000E+0003	 7.63114574060306E-0001	
 1.64250000000000E+0003	 7.70352234200743E-0001	
 1.64450000000000E+0003	 7.76566394341181E-0001	
 1.64650000000000E+0003	 7.81553554481619E-0001	
 1.64850000000000E+0003	 7.85539214622057E-0001	
 1.65050000000000E+0003	 7.96546374762495E-0001	
 1.65250000000000E+0003	 8.06382534902933E-0001	
 1.65450000000000E+0003	 8.05647195043371E-0001	
 1.65650000000000E+0003	 8.08600355183808E-0001	
 1.65850000000000E+0003	 8.10479015324246E-0001	
 1.66050000000000E+0003	 8.08377675464684E-0001	
 1.66250000000000E+0003	 8.04628835605122E-0001	
 1.66450000000000E+0003	 7.98287495745560E-0001	
 1.66650000000000E+0003	 7.91541655885998E-0001	
 1.66850000000000E+0003	 7.84516816026435E-0001	
 1.67050000000000E+0003	 7.75778476166873E-0001	
 1.67250000000000E+0003	 7.69091136307311E-0001	
 1.67450000000000E+0003	 7.64346296447749E-0001	
 1.67650000000000E+0003	 7.57045956588187E-0001	
 1.67850000000000E+0003	 7.49913616728625E-0001	
 1.68050000000000E+0003	 7.40119776869062E-0001	
 1.68250000000000E+0003	 7.35539937009500E-0001	
 1.68450000000000E+0003	 7.30899597149938E-0001	
 1.68650000000000E+0003	 7.19390257290376E-0001	
 1.68850000000000E+0003	 7.11482417430814E-0001	
 1.69050000000000E+0003	 7.02726577571252E-0001	
 1.69250000000000E+0003	 6.92929737711689E-0001	
 1.69450000000000E+0003	 6.85242397852127E-0001	
 1.69650000000000E+0003	 6.66395557992565E-0001	
 1.69850000000000E+0003	 6.49892718133003E-0001	
 1.70050000000000E+0003	 6.34872878273441E-0001	
 1.70250000000000E+0003	 6.18632038413879E-0001	
 1.70450000000000E+0003	 6.08712698554316E-0001	
 1.70650000000000E+0003	 5.96185858694754E-0001	
 1.70850000000000E+0003	 5.84685018835192E-0001	
 1.71050000000000E+0003	 5.72281178975630E-0001	
 1.71250000000000E+0003	 5.58072839116068E-0001	
 1.71450000000000E+0003	 5.45431999256506E-0001	
 1.71650000000000E+0003	 5.34997659396943E-0001	
 1.71850000000000E+0003	 5.20660319537381E-0001	
 1.72050000000000E+0003	 5.09041979677819E-0001	
 1.72250000000000E+0003	 5.00109639818257E-0001	
 1.72450000000000E+0003	 4.89213299958695E-0001	
 1.72650000000000E+0003	 4.78256460099133E-0001	
 1.72850000000000E+0003	 4.67357620239570E-0001	
 1.73050000000000E+0003	 4.58035780380008E-0001	
 1.73250000000000E+0003	 4.54994440520446E-0001	
 1.73450000000000E+0003	 4.50885600660884E-0001	
 1.73650000000000E+0003	 4.46602760801322E-0001	
 1.73850000000000E+0003	 4.47082920941760E-0001	
 1.74050000000000E+0003	 4.45875081082197E-0001	
 1.74250000000000E+0003	 4.44979241222635E-0001	
 1.74450000000000E+0003	 4.44320401363073E-0001	
 1.74650000000000E+0003	 4.42122061503511E-0001	
 1.74850000000000E+0003	 4.38872721643949E-0001	
 1.75050000000000E+0003	 4.36621881784387E-0001	
 1.75250000000000E+0003	 4.31797041924824E-0001	
 1.75450000000000E+0003	 4.24542702065262E-0001	
 1.75650000000000E+0003	 4.14765362205700E-0001	
 1.75850000000000E+0003	 4.02529522346138E-0001	
 1.76050000000000E+0003	 3.91425182486576E-0001	
 1.76250000000000E+0003	 3.78618342627014E-0001	
 1.76450000000000E+0003	 3.65430502767451E-0001	
 1.76650000000000E+0003	 3.52441662907889E-0001	
 1.76850000000000E+0003	 3.38090823048327E-0001	
 1.77050000000000E+0003	 3.29038983188765E-0001	
 1.77250000000000E+0003	 3.20350643329203E-0001	
 1.77450000000000E+0003	 3.09688303469641E-0001	
 1.77650000000000E+0003	 3.01996963610078E-0001	
 1.77850000000000E+0003	 2.94786123750516E-0001	
 1.78050000000000E+0003	 2.87477283890954E-0001	
 1.78250000000000E+0003	 2.80797444031392E-0001	
 1.78450000000000E+0003	 2.75570604171830E-0001	
 1.78650000000000E+0003	 2.70263264312268E-0001	
 1.78850000000000E+0003	 2.63581424452705E-0001	
 1.79050000000000E+0003	 2.57961084593143E-0001	
 1.79250000000000E+0003	 2.53828244733581E-0001	
 1.79450000000000E+0003	 2.49937904874019E-0001	
 1.79650000000000E+0003	 2.46398065014457E-0001	
 1.79850000000000E+0003	 2.41936725154895E-0001	
 1.80050000000000E+0003	 2.37266885295333E-0001	
 1.80250000000000E+0003	 2.34719045435770E-0001	
 1.80450000000000E+0003	 2.33144205576208E-0001	
 1.80650000000000E+0003	 2.30068865716646E-0001	
 1.80850000000000E+0003	 2.26336525857084E-0001	
 1.81050000000000E+0003	 2.23203185997522E-0001	
 1.81250000000000E+0003	 2.20568346137960E-0001	
 1.81450000000000E+0003	 2.18326506278397E-0001	
 1.81650000000000E+0003	 2.15592666418835E-0001	
 1.81850000000000E+0003	 2.13089326559273E-0001	
 1.82050000000000E+0003	 2.10054986699711E-0001	
 1.82250000000000E+0003	 2.05969646840149E-0001	
 1.82450000000000E+0003	 2.02285806980587E-0001	
 1.82650000000000E+0003	 1.99209467121024E-0001	
 1.82850000000000E+0003	 1.97946627261462E-0001	
 1.83050000000000E+0003	 1.96217287401900E-0001	
 1.83250000000000E+0003	 1.95306947542338E-0001	
 1.83450000000000E+0003	 1.94521107682776E-0001	
 1.83650000000000E+0003	 1.92734267823214E-0001	
 1.83850000000000E+0003	 1.90370427963651E-0001	
 1.84050000000000E+0003	 1.86797088104089E-0001	
 1.84250000000000E+0003	 1.84506748244527E-0001	
 1.84450000000000E+0003	 1.82422908384965E-0001	
 1.84650000000000E+0003	 1.80997068525403E-0001	
 1.84850000000000E+0003	 1.81223228665841E-0001	
 1.85050000000000E+0003	 1.80724888806278E-0001	
 1.85250000000000E+0003	 1.79664048946716E-0001	
 1.85450000000000E+0003	 1.78123209087154E-0001	
 1.85650000000000E+0003	 1.76507869227592E-0001	
 1.85850000000000E+0003	 1.74908529368030E-0001	
 1.86050000000000E+0003	 1.73453189508468E-0001	
 1.86250000000000E+0003	 1.71917849648905E-0001	
 1.86450000000000E+0003	 1.69374509789343E-0001	
 1.86650000000000E+0003	 1.66569169929781E-0001	
 1.86850000000000E+0003	 1.64949830070219E-0001	
 1.87050000000000E+0003	 1.64852990210657E-0001	
 1.87250000000000E+0003	 1.65705150351095E-0001	
 1.87450000000000E+0003	 1.65468310491532E-0001	
 1.87650000000000E+0003	 1.64388970631970E-0001	
 1.87850000000000E+0003	 1.63308630772408E-0001	
 1.88050000000000E+0003	 1.62304290912846E-0001	
 1.88250000000000E+0003	 1.61360951053284E-0001	
 1.88450000000000E+0003	 1.60044111193722E-0001	
 1.88650000000000E+0003	 1.58180771334159E-0001	
 1.88850000000000E+0003	 1.56894431474597E-0001	
 1.89050000000000E+0003	 1.56067591615035E-0001	
 1.89250000000000E+0003	 1.55891751755473E-0001	
 1.89450000000000E+0003	 1.55493911895911E-0001	
 1.89650000000000E+0003	 1.54836072036349E-0001	
 1.89850000000000E+0003	 1.54426732176786E-0001	
 1.90050000000000E+0003	 1.53819892317224E-0001	
 1.90250000000000E+0003	 1.53048052457662E-0001	
 1.90450000000000E+0003	 1.52129712598100E-0001	
 1.90650000000000E+0003	 1.51009872738538E-0001	
 1.90850000000000E+0003	 1.50170032878976E-0001	
 1.91050000000000E+0003	 1.49603693019413E-0001	
 1.91250000000000E+0003	 1.49118853159851E-0001	
 1.91450000000000E+0003	 1.47709013300289E-0001	
 1.91650000000000E+0003	 1.46630173440727E-0001	
 1.91850000000000E+0003	 1.45595833581165E-0001	
 1.92050000000000E+0003	 1.45050493721603E-0001	
 1.92250000000000E+0003	 1.45055153862040E-0001	
 1.92450000000000E+0003	 1.45062814002478E-0001	
 1.92650000000000E+0003	 1.45359974142916E-0001	
 1.92850000000000E+0003	 1.45073634283354E-0001	
 1.93050000000000E+0003	 1.44537794423792E-0001	
 1.93250000000000E+0003	 1.44035954564230E-0001	
 1.93450000000000E+0003	 1.43598114704667E-0001	
 1.93650000000000E+0003	 1.43117774845105E-0001	
 1.93850000000000E+0003	 1.41949934985543E-0001	
 1.94050000000000E+0003	 1.40650095125981E-0001	
 1.94250000000000E+0003	 1.40057755266419E-0001	
 1.94450000000000E+0003	 1.40419415406857E-0001	
 1.94650000000000E+0003	 1.40978575547295E-0001	
 1.94850000000000E+0003	 1.40905235687732E-0001	
 1.95050000000000E+0003	 1.40682395828170E-0001	
 1.95250000000000E+0003	 1.40337055968608E-0001	
 1.95450000000000E+0003	 1.40014716109046E-0001	
 1.95650000000000E+0003	 1.39744376249484E-0001	
 1.95850000000000E+0003	 1.39554536389922E-0001	
 1.96050000000000E+0003	 1.39316696530359E-0001	
 1.96250000000000E+0003	 1.38823356670797E-0001	
 1.96450000000000E+0003	 1.38164516811235E-0001	
 1.96650000000000E+0003	 1.37723176951673E-0001	
 1.96850000000000E+0003	 1.37724337092111E-0001	
 1.97050000000000E+0003	 1.38046497232549E-0001	
 1.97250000000000E+0003	 1.38061657372986E-0001	
 1.97450000000000E+0003	 1.37867817513424E-0001	
 1.97650000000000E+0003	 1.37683477653862E-0001	
 1.97850000000000E+0003	 1.37500637794300E-0001	
 1.98050000000000E+0003	 1.37333297934738E-0001	
 1.98250000000000E+0003	 1.37151958075176E-0001	
 1.98450000000000E+0003	 1.36863118215613E-0001	
 1.98650000000000E+0003	 1.36408778356051E-0001	
 1.98850000000000E+0003	 1.35642438496489E-0001	
 1.99050000000000E+0003	 1.35187598636927E-0001	
 1.99250000000000E+0003	 1.35279758777365E-0001	
 1.99450000000000E+0003	 1.35809418917803E-0001	
 1.99650000000000E+0003	 1.36206079058240E-0001	
 1.99850000000000E+0003	 1.36162239198678E-0001	
 2.00050000000000E+0003	 1.36086899339116E-0001	
 2.00250000000000E+0003	 1.36043059479554E-0001	
 2.00450000000000E+0003	 1.35979219619992E-0001	
 2.00650000000000E+0003	 1.35919379760430E-0001	
 2.00850000000000E+0003	 1.35911039900867E-0001	
 2.01050000000000E+0003	 1.35936200041305E-0001	
 2.01250000000000E+0003	 1.35784860181743E-0001	
 2.01450000000000E+0003	 1.35465520322181E-0001	
 2.01650000000000E+0003	 1.35308680462619E-0001	
 2.01850000000000E+0003	 1.35513840603057E-0001	
 2.02050000000000E+0003	 1.35928000743494E-0001	
 2.02250000000000E+0003	 1.36153160883932E-0001	
 2.02450000000000E+0003	 1.36272321024370E-0001	
 2.02650000000000E+0003	 1.36392481164808E-0001	
 2.02850000000000E+0003	 1.36494141305246E-0001	
 2.03050000000000E+0003	 1.36598301445684E-0001	
 2.03250000000000E+0003	 1.36676961586121E-0001	
 2.03450000000000E+0003	 1.36759121726559E-0001	
 2.03650000000000E+0003	 1.36789781866997E-0001	
 2.03850000000000E+0003	 1.36750942007435E-0001	
 2.04050000000000E+0003	 1.36755102147873E-0001	
 2.04250000000000E+0003	 1.36914762288311E-0001	
 2.04450000000000E+0003	 1.37166922428748E-0001	
 2.04650000000000E+0003	 1.37355582569186E-0001	
 2.04850000000000E+0003	 1.37492742709624E-0001	
 2.05050000000000E+0003	 1.37613402850062E-0001	
 2.05250000000000E+0003	 1.37726062990500E-0001	
 2.05450000000000E+0003	 1.37830723130938E-0001	
 2.05650000000000E+0003	 1.37920883271375E-0001	
 2.05850000000000E+0003	 1.37993043411813E-0001	
 2.06050000000000E+0003	 1.37977703552251E-0001	
 2.06250000000000E+0003	 1.37871363692689E-0001	
 2.06450000000000E+0003	 1.37880023833127E-0001	
 2.06650000000000E+0003	 1.38066183973565E-0001	
 2.06850000000000E+0003	 1.38352844114002E-0001	
 2.07050000000000E+0003	 1.38473504254440E-0001	
 2.07250000000000E+0003	 1.38551164394878E-0001	
 2.07450000000000E+0003	 1.38605824535316E-0001	
 2.07650000000000E+0003	 1.38685484675754E-0001	
 2.07850000000000E+0003	 1.38757144816192E-0001	
 2.08050000000000E+0003	 1.38853804956629E-0001	
 2.08250000000000E+0003	 1.38925465097067E-0001	
 2.08450000000000E+0003	 1.38984125237505E-0001	
 2.08650000000000E+0003	 1.38979285377943E-0001	
 2.08850000000000E+0003	 1.39004445518381E-0001	
 2.09050000000000E+0003	 1.39106105658819E-0001	
 2.09250000000000E+0003	 1.39273765799257E-0001	
 2.09450000000000E+0003	 1.39401425939694E-0001	
 2.09650000000000E+0003	 1.39472086080132E-0001	
 2.09850000000000E+0003	 1.39536246220570E-0001	
 2.10050000000000E+0003	 1.39590906361008E-0001	
 2.10250000000000E+0003	 1.39649566501446E-0001	
 2.10450000000000E+0003	 1.39695226641884E-0001	
 2.10650000000000E+0003	 1.39744386782321E-0001	
 2.10850000000000E+0003	 1.39776046922759E-0001	
 2.11050000000000E+0003	 1.39801707063197E-0001	
 2.11250000000000E+0003	 1.39788367203635E-0001	
 2.11450000000000E+0003	 1.39807027344073E-0001	
 2.11650000000000E+0003	 1.39857187484511E-0001	
 2.11850000000000E+0003	 1.39916847624948E-0001	
 2.12050000000000E+0003	 1.39935007765386E-0001	
 2.12250000000000E+0003	 1.39943167905824E-0001	
 2.12450000000000E+0003	 1.39946828046262E-0001	
 2.12650000000000E+0003	 1.39939988186700E-0001	
 2.12850000000000E+0003	 1.39928648327138E-0001	
 2.13050000000000E+0003	 1.39895308467575E-0001	
 2.13250000000000E+0003	 1.39845468608013E-0001	
 2.13450000000000E+0003	 1.39768128748451E-0001	
 2.13650000000000E+0003	 1.39719788888889E-0001	
 2.13850000000000E+0003	 1.39682949029327E-0001	
 2.14050000000000E+0003	 1.39670109169765E-0001	
 2.14250000000000E+0003	 1.39615769310202E-0001	
 2.14450000000000E+0003	 1.39565929450640E-0001	
 2.14650000000000E+0003	 1.39486589591078E-0001	
 2.14850000000000E+0003	 1.39429749731516E-0001	
 2.15050000000000E+0003	 1.39346909871954E-0001	
 2.15250000000000E+0003	 1.39275070012392E-0001	
 2.15450000000000E+0003	 1.39186230152829E-0001	
 2.15650000000000E+0003	 1.39104890293267E-0001	
 2.15850000000000E+0003	 1.38997050433705E-0001	
 2.16050000000000E+0003	 1.38890210574143E-0001	
 2.16250000000000E+0003	 1.38789370714581E-0001	
 2.16450000000000E+0003	 1.38702030855019E-0001	
 2.16650000000000E+0003	 1.38611690995456E-0001	
 2.16850000000000E+0003	 1.38517851135894E-0001	
 2.17050000000000E+0003	 1.38418011276332E-0001	
 2.17250000000000E+0003	 1.38291671416770E-0001	
 2.17450000000000E+0003	 1.38179331557208E-0001	
 2.17650000000000E+0003	 1.38061491697646E-0001	
 2.17850000000000E+0003	 1.37946151838083E-0001	
 2.18050000000000E+0003	 1.37818311978521E-0001	
 2.18250000000000E+0003	 1.37704472118959E-0001	
 2.18450000000000E+0003	 1.37584132259397E-0001	
 2.18650000000000E+0003	 1.37469792399835E-0001	
 2.18850000000000E+0003	 1.37355452540273E-0001	
 2.19050000000000E+0003	 1.37246112680710E-0001	
 2.19250000000000E+0003	 1.37130272821148E-0001	
 2.19450000000000E+0003	 1.37006932961586E-0001	
 2.19650000000000E+0003	 1.36886093102024E-0001	
 2.19850000000000E+0003	 1.36762753242462E-0001	
 2.20050000000000E+0003	 1.36653413382900E-0001	
 2.20250000000000E+0003	 1.36533073523337E-0001	
 2.20450000000000E+0003	 1.36431733663775E-0001	
 2.20650000000000E+0003	 1.36324393804213E-0001	
 2.20850000000000E+0003	 1.36235053944651E-0001	
 2.21050000000000E+0003	 1.36132214085089E-0001	
 2.21250000000000E+0003	 1.36053874225527E-0001	
 2.21450000000000E+0003	 1.35963534365964E-0001	
 2.21650000000000E+0003	 1.35887694506402E-0001	
 2.21850000000000E+0003	 1.35801354646840E-0001	
 2.22050000000000E+0003	 1.35733514787278E-0001	
 2.22250000000000E+0003	 1.35661174927716E-0001	
 2.22450000000000E+0003	 1.35605835068154E-0001	
 2.22650000000000E+0003	 1.35542995208591E-0001	
 2.22850000000000E+0003	 1.35459655349029E-0001	
 2.23050000000000E+0003	 1.35325315489467E-0001	
 2.23250000000000E+0003	 1.35139475629905E-0001	
 2.23450000000000E+0003	 1.34915135770343E-0001	
 2.23650000000000E+0003	 1.34677295910781E-0001	
 2.23850000000000E+0003	 1.34449456051219E-0001	
 2.24050000000000E+0003	 1.34222116191656E-0001	
 2.24250000000000E+0003	 1.34000276332094E-0001	
 2.24450000000000E+0003	 1.33787936472532E-0001	
 2.24650000000000E+0003	 1.33587096612970E-0001	
 2.24850000000000E+0003	 1.33388756753408E-0001	
 2.25050000000000E+0003	 1.33196416893846E-0001	
 2.25250000000000E+0003	 1.33008577034283E-0001	
 2.25450000000000E+0003	 1.32825737174721E-0001	
 2.25650000000000E+0003	 1.32654897315159E-0001	
 2.25850000000000E+0003	 1.32488557455597E-0001	
 2.26050000000000E+0003	 1.32332717596035E-0001	
 2.26250000000000E+0003	 1.32171377736473E-0001	
 2.26450000000000E+0003	 1.32023037876910E-0001	
 2.26650000000000E+0003	 1.31870698017348E-0001	
 2.26850000000000E+0003	 1.31736358157786E-0001	
 2.27050000000000E+0003	 1.31593018298224E-0001	
 2.27250000000000E+0003	 1.31459678438662E-0001	
 2.27450000000000E+0003	 1.31315838579100E-0001	
 2.27650000000000E+0003	 1.31183498719537E-0001	
 2.27850000000000E+0003	 1.31045658859975E-0001	
 2.28050000000000E+0003	 1.30915319000413E-0001	
 2.28250000000000E+0003	 1.30780979140851E-0001	
 2.28450000000000E+0003	 1.30672139281289E-0001	
 2.28650000000000E+0003	 1.30579299421727E-0001	
 2.28850000000000E+0003	 1.30487959562164E-0001	
 2.29050000000000E+0003	 1.30389119702602E-0001	
 2.29250000000000E+0003	 1.30288779843040E-0001	
 2.29450000000000E+0003	 1.30192439983478E-0001	
 2.29650000000000E+0003	 1.30101600123916E-0001	
 2.29850000000000E+0003	 1.30025260264354E-0001	
 2.30050000000000E+0003	 1.29972920404791E-0001	
 2.30250000000000E+0003	 1.29942080545229E-0001	
 2.30450000000000E+0003	 1.29903740685667E-0001	
 2.30650000000000E+0003	 1.29866400826105E-0001	
 2.30850000000000E+0003	 1.29857560966543E-0001	
 2.31050000000000E+0003	 1.29857221106981E-0001	
 2.31250000000000E+0003	 1.29885881247418E-0001	
 2.31450000000000E+0003	 1.29912541387856E-0001	
 2.31650000000000E+0003	 1.29897201528294E-0001	
 2.31850000000000E+0003	 1.29854361668732E-0001	
 2.32050000000000E+0003	 1.29840521809170E-0001	
 2.32250000000000E+0003	 1.29813181949608E-0001	
 2.32450000000000E+0003	 1.29816342090045E-0001	
 2.32650000000000E+0003	 1.29836002230483E-0001	
 2.32850000000000E+0003	 1.29859662370921E-0001	
 2.33050000000000E+0003	 1.29836322511359E-0001	
 2.33250000000000E+0003	 1.29867982651797E-0001	
 2.33450000000000E+0003	 1.29975142792235E-0001	
 2.33650000000000E+0003	 1.30140802932672E-0001	
 2.33850000000000E+0003	 1.30217963073110E-0001	
 2.34050000000000E+0003	 1.30256623213548E-0001	
 2.34250000000000E+0003	 1.30253783353986E-0001	
 2.34450000000000E+0003	 1.30235943494424E-0001	
 2.34650000000000E+0003	 1.30157603634862E-0001	
 2.34850000000000E+0003	 1.30194763775299E-0001	
 2.35050000000000E+0003	 1.30369423915737E-0001	
 2.35250000000000E+0003	 1.30485084056175E-0001	
 2.35450000000000E+0003	 1.30530744196613E-0001	
 2.35650000000000E+0003	 1.30677904337051E-0001	
 2.35850000000000E+0003	 1.30855564477489E-0001	
 2.36050000000000E+0003	 1.30983224617926E-0001	
 2.36250000000000E+0003	 1.31047384758364E-0001	
 2.36450000000000E+0003	 1.31099544898802E-0001	
 2.36650000000000E+0003	 1.31163205039240E-0001	
 2.36850000000000E+0003	 1.31264365179678E-0001	
 2.37050000000000E+0003	 1.31431025320116E-0001	
 2.37250000000000E+0003	 1.31686685460553E-0001	
 2.37450000000000E+0003	 1.31999345600991E-0001	
 2.37650000000000E+0003	 1.32268505741429E-0001	
 2.37850000000000E+0003	 1.32423165881867E-0001	
 2.38050000000000E+0003	 1.32520326022305E-0001	
 2.38250000000000E+0003	 1.32670986162743E-0001	
 2.38450000000000E+0003	 1.32943146303181E-0001	
 2.38650000000000E+0003	 1.33276306443618E-0001	
 2.38850000000000E+0003	 1.33623966584056E-0001	
 2.39050000000000E+0003	 1.33928126724494E-0001	
 2.39250000000000E+0003	 1.34226786864932E-0001	
 2.39450000000000E+0003	 1.34501447005370E-0001	
 2.39650000000000E+0003	 1.34795107145808E-0001	
 2.39850000000000E+0003	 1.35083767286245E-0001	
 2.40050000000000E+0003	 1.35392927426683E-0001	
 2.40250000000000E+0003	 1.35690087567121E-0001	
 2.40450000000000E+0003	 1.36001247707559E-0001	
 2.40650000000000E+0003	 1.36306907847997E-0001	
 2.40850000000000E+0003	 1.36629067988435E-0001	
 2.41050000000000E+0003	 1.36954228128872E-0001	
 2.41250000000000E+0003	 1.37295388269310E-0001	
 2.41450000000000E+0003	 1.37645048409748E-0001	
 2.41650000000000E+0003	 1.38006708550186E-0001	
 2.41850000000000E+0003	 1.38381868690624E-0001	
 2.42050000000000E+0003	 1.38766528831062E-0001	
 2.42250000000000E+0003	 1.39167688971499E-0001	
 2.42450000000000E+0003	 1.39579349111937E-0001	
 2.42650000000000E+0003	 1.40010009252375E-0001	
 2.42850000000000E+0003	 1.40451669392813E-0001	
 2.43050000000000E+0003	 1.40910829533251E-0001	
 2.43250000000000E+0003	 1.41370989673689E-0001	
 2.43450000000000E+0003	 1.41845149814126E-0001	
 2.43650000000000E+0003	 1.42329309954564E-0001	
 2.43850000000000E+0003	 1.42824470095002E-0001	
 2.44050000000000E+0003	 1.43322630235440E-0001	
 2.44250000000000E+0003	 1.43829290375878E-0001	
 2.44450000000000E+0003	 1.44346950516316E-0001	
 2.44650000000000E+0003	 1.44864110656753E-0001	
 2.44850000000000E+0003	 1.45394270797191E-0001	
 2.45050000000000E+0003	 1.45929930937629E-0001	
 2.45250000000000E+0003	 1.46482091078067E-0001	
 2.45450000000000E+0003	 1.47038251218505E-0001	
 2.45650000000000E+0003	 1.47619411358943E-0001	
 2.45850000000000E+0003	 1.48205071499380E-0001	
 2.46050000000000E+0003	 1.48812731639818E-0001	
 2.46250000000000E+0003	 1.49420891780256E-0001	
 2.46450000000000E+0003	 1.50049051920694E-0001	
 2.46650000000000E+0003	 1.50678712061132E-0001	
 2.46850000000000E+0003	 1.51326372201570E-0001	
 2.47050000000000E+0003	 1.51977032342007E-0001	
 2.47250000000000E+0003	 1.52643192482445E-0001	
 2.47450000000000E+0003	 1.53306352622883E-0001	
 2.47650000000000E+0003	 1.53978012763321E-0001	
 2.47850000000000E+0003	 1.54655172903759E-0001	
 2.48050000000000E+0003	 1.55337333044197E-0001	
 2.48250000000000E+0003	 1.56020993184634E-0001	
 2.48450000000000E+0003	 1.56713153325072E-0001	
 2.48650000000000E+0003	 1.57405313465510E-0001	
 2.48850000000000E+0003	 1.58100973605948E-0001	
 2.49050000000000E+0003	 1.58802133746386E-0001	
 2.49250000000000E+0003	 1.59511293886824E-0001	
 2.49450000000000E+0003	 1.60228454027261E-0001	
 2.49650000000000E+0003	 1.60952614167699E-0001	
 2.49850000000000E+0003	 1.61680274308137E-0001	
 2.50050000000000E+0003	 1.62421434448575E-0001	
 2.50250000000000E+0003	 1.63165594589013E-0001	
 2.50450000000000E+0003	 1.63919254729451E-0001	
 2.50650000000000E+0003	 1.64670414869888E-0001	
 2.50850000000000E+0003	 1.65427575010326E-0001	
 2.51050000000000E+0003	 1.66178235150764E-0001	
 2.51250000000000E+0003	 1.66933895291202E-0001	
 2.51450000000000E+0003	 1.67677055431640E-0001	
 2.51650000000000E+0003	 1.68419215572078E-0001	
 2.51850000000000E+0003	 1.69142375712515E-0001	
 2.52050000000000E+0003	 1.69863035852953E-0001	
 2.52250000000000E+0003	 1.70572695993391E-0001	
 2.52450000000000E+0003	 1.71276356133829E-0001	
 2.52650000000000E+0003	 1.71966516274267E-0001	
 2.52850000000000E+0003	 1.72650176414705E-0001	
 2.53050000000000E+0003	 1.73311336555143E-0001	
 2.53250000000000E+0003	 1.73954996695580E-0001	
 2.53450000000000E+0003	 1.74581656836018E-0001	
 2.53650000000000E+0003	 1.75184316976456E-0001	
 2.53850000000000E+0003	 1.75768977116894E-0001	
 2.54050000000000E+0003	 1.76331137257332E-0001	
 2.54250000000000E+0003	 1.76874297397770E-0001	
 2.54450000000000E+0003	 1.77393457538207E-0001	
 2.54650000000000E+0003	 1.77899617678645E-0001	
 2.54850000000000E+0003	 1.78383777819083E-0001	
 2.55050000000000E+0003	 1.78847437959521E-0001	
 2.55250000000000E+0003	 1.79293598099959E-0001	
 2.55450000000000E+0003	 1.79730758240397E-0001	
 2.55650000000000E+0003	 1.80152418380834E-0001	
 2.55850000000000E+0003	 1.80547078521272E-0001	
 2.56050000000000E+0003	 1.80933238661710E-0001	
 2.56250000000000E+0003	 1.81305398802148E-0001	
 2.56450000000000E+0003	 1.81679558942586E-0001	
 2.56650000000000E+0003	 1.82045719083024E-0001	
 2.56850000000000E+0003	 1.82434879223461E-0001	
 2.57050000000000E+0003	 1.82830039363899E-0001	
 2.57250000000000E+0003	 1.83266699504337E-0001	
 2.57450000000000E+0003	 1.83721859644775E-0001	
 2.57650000000000E+0003	 1.84223019785213E-0001	
 2.57850000000000E+0003	 1.84742679925651E-0001	
 2.58050000000000E+0003	 1.85313340066088E-0001	
 2.58250000000000E+0003	 1.85912000206526E-0001	
 2.58450000000000E+0003	 1.86555660346964E-0001	
 2.58650000000000E+0003	 1.87222320487402E-0001	
 2.58850000000000E+0003	 1.87925480627840E-0001	
 2.59050000000000E+0003	 1.88650640768278E-0001	
 2.59250000000000E+0003	 1.89403300908715E-0001	
 2.59450000000000E+0003	 1.90181961049153E-0001	
 2.59650000000000E+0003	 1.90980121189591E-0001	
 2.59850000000000E+0003	 1.91799281330029E-0001	
 2.60050000000000E+0003	 1.92626941470467E-0001	
 2.60250000000000E+0003	 1.93473601610905E-0001	
 2.60450000000000E+0003	 1.94321261751342E-0001	
 2.60650000000000E+0003	 1.95182421891780E-0001	
 2.60850000000000E+0003	 1.96031582032218E-0001	
 2.61050000000000E+0003	 1.96886742172656E-0001	
 2.61250000000000E+0003	 1.97727402313094E-0001	
 2.61450000000000E+0003	 1.98571062453532E-0001	
 2.61650000000000E+0003	 1.99398222593969E-0001	
 2.61850000000000E+0003	 2.00229882734407E-0001	
 2.62050000000000E+0003	 2.01055042874845E-0001	
 2.62250000000000E+0003	 2.01876703015283E-0001	
 2.62450000000000E+0003	 2.02696863155721E-0001	
 2.62650000000000E+0003	 2.03516023296159E-0001	
 2.62850000000000E+0003	 2.04339183436596E-0001	
 2.63050000000000E+0003	 2.05153343577034E-0001	
 2.63250000000000E+0003	 2.05977003717472E-0001	
 2.63450000000000E+0003	 2.06782163857910E-0001	
 2.63650000000000E+0003	 2.07599823998348E-0001	
 2.63850000000000E+0003	 2.08405484138786E-0001	
 2.64050000000000E+0003	 2.09231644279223E-0001	
 2.64250000000000E+0003	 2.10037304419661E-0001	
 2.64450000000000E+0003	 2.10860464560099E-0001	
 2.64650000000000E+0003	 2.11674624700537E-0001	
 2.64850000000000E+0003	 2.12505784840975E-0001	
 2.65050000000000E+0003	 2.13321944981413E-0001	
 2.65250000000000E+0003	 2.14155605121850E-0001	
 2.65450000000000E+0003	 2.14983265262288E-0001	
 2.65650000000000E+0003	 2.15822425402726E-0001	
 2.65850000000000E+0003	 2.16666585543164E-0001	
 2.66050000000000E+0003	 2.17521245683602E-0001	
 2.66250000000000E+0003	 2.18384905824040E-0001	
 2.66450000000000E+0003	 2.19256565964477E-0001	
 2.66650000000000E+0003	 2.20141226104915E-0001	
 2.66850000000000E+0003	 2.21021386245353E-0001	
 2.67050000000000E+0003	 2.21919546385791E-0001	
 2.67250000000000E+0003	 2.22812206526229E-0001	
 2.67450000000000E+0003	 2.23713866666667E-0001	
 2.67650000000000E+0003	 2.24598526807105E-0001	
 2.67850000000000E+0003	 2.25501686947542E-0001	
 2.68050000000000E+0003	 2.26401847087980E-0001	
 2.68250000000000E+0003	 2.27314007228418E-0001	
 2.68450000000000E+0003	 2.28209667368856E-0001	
 2.68650000000000E+0003	 2.29106327509294E-0001	
 2.68850000000000E+0003	 2.29998987649732E-0001	
 2.69050000000000E+0003	 2.30897147790169E-0001	
 2.69250000000000E+0003	 2.31799307930607E-0001	
 2.69450000000000E+0003	 2.32707468071045E-0001	
 2.69650000000000E+0003	 2.33634628211483E-0001	
 2.69850000000000E+0003	 2.34575788351921E-0001	
 2.70050000000000E+0003	 2.35554948492359E-0001	
 2.70250000000000E+0003	 2.36553608632796E-0001	
 2.70450000000000E+0003	 2.37595268773234E-0001	
 2.70650000000000E+0003	 2.38652428913672E-0001	
 2.70850000000000E+0003	 2.39756589054110E-0001	
 2.71050000000000E+0003	 2.40885749194548E-0001	
 2.71250000000000E+0003	 2.42064909334986E-0001	
 2.71450000000000E+0003	 2.43263069475423E-0001	
 2.71650000000000E+0003	 2.44501229615861E-0001	
 2.71850000000000E+0003	 2.45737389756299E-0001	
 2.72050000000000E+0003	 2.46985049896737E-0001	
 2.72250000000000E+0003	 2.48226210037175E-0001	
 2.72450000000000E+0003	 2.49456870177613E-0001	
 2.72650000000000E+0003	 2.50672030318050E-0001	
 2.72850000000000E+0003	 2.51875690458488E-0001	
 2.73050000000000E+0003	 2.53043350598926E-0001	
 2.73250000000000E+0003	 2.54169510739364E-0001	
 2.73450000000000E+0003	 2.55258170879802E-0001	
 2.73650000000000E+0003	 2.56306831020240E-0001	
 2.73850000000000E+0003	 2.57337491160677E-0001	
 2.74050000000000E+0003	 2.58331151301115E-0001	
 2.74250000000000E+0003	 2.59293311441553E-0001	
 2.74450000000000E+0003	 2.60215971581991E-0001	
 2.74650000000000E+0003	 2.61123631722429E-0001	
 2.74850000000000E+0003	 2.62029291862867E-0001	
 2.75050000000000E+0003	 2.62945952003304E-0001	
 2.75250000000000E+0003	 2.63855112143742E-0001	
 2.75450000000000E+0003	 2.64770272284180E-0001	
 2.75650000000000E+0003	 2.65703932424618E-0001	
 2.75850000000000E+0003	 2.66663092565056E-0001	
 2.76050000000000E+0003	 2.67645252705494E-0001	
 2.76250000000000E+0003	 2.68647412845931E-0001	
 2.76450000000000E+0003	 2.69669072986369E-0001	
 2.76650000000000E+0003	 2.70699233126807E-0001	
 2.76850000000000E+0003	 2.71756893267245E-0001	
 2.77050000000000E+0003	 2.72832553407683E-0001	
 2.77250000000000E+0003	 2.73937713548121E-0001	
 2.77450000000000E+0003	 2.75079373688558E-0001	
 2.77650000000000E+0003	 2.76281533828996E-0001	
 2.77850000000000E+0003	 2.77500693969434E-0001	
 2.78050000000000E+0003	 2.78749854109872E-0001	
 2.78250000000000E+0003	 2.80026014250310E-0001	
 2.78450000000000E+0003	 2.81335674390748E-0001	
 2.78650000000000E+0003	 2.82657334531185E-0001	
 2.78850000000000E+0003	 2.84017494671623E-0001	
 2.79050000000000E+0003	 2.85424154812061E-0001	
 2.79250000000000E+0003	 2.86858814952499E-0001	
 2.79450000000000E+0003	 2.88302475092937E-0001	
 2.79650000000000E+0003	 2.89768135233375E-0001	
 2.79850000000000E+0003	 2.91277295373812E-0001	
 2.80050000000000E+0003	 2.92819955514250E-0001	
 2.80250000000000E+0003	 2.94375615654688E-0001	
 2.80450000000000E+0003	 2.95952775795126E-0001	
 2.80650000000000E+0003	 2.97556435935564E-0001	
 2.80850000000000E+0003	 2.99185596076002E-0001	
 2.81050000000000E+0003	 3.00864256216439E-0001	
 2.81250000000000E+0003	 3.02581916356877E-0001	
 2.81450000000000E+0003	 3.04319076497315E-0001	
 2.81650000000000E+0003	 3.06085736637753E-0001	
 2.81850000000000E+0003	 3.07882896778191E-0001	
 2.82050000000000E+0003	 3.09720556918629E-0001	
 2.82250000000000E+0003	 3.11605217059067E-0001	
 2.82450000000000E+0003	 3.13555877199504E-0001	
 2.82650000000000E+0003	 3.15563537339942E-0001	
 2.82850000000000E+0003	 3.17641697480380E-0001	
 2.83050000000000E+0003	 3.19810357620818E-0001	
 2.83250000000000E+0003	 3.22109517761256E-0001	
 2.83450000000000E+0003	 3.24562177901694E-0001	
 2.83650000000000E+0003	 3.27236838042131E-0001	
 2.83850000000000E+0003	 3.30256498182569E-0001	
 2.84050000000000E+0003	 3.33774658323007E-0001	
 2.84250000000000E+0003	 3.37923318463445E-0001	
 2.84450000000000E+0003	 3.42853978603883E-0001	
 2.84650000000000E+0003	 3.48574638744321E-0001	
 2.84850000000000E+0003	 3.54804298884758E-0001	
 2.85050000000000E+0003	 3.60892459025196E-0001	
 2.85250000000000E+0003	 3.66007619165634E-0001	
 2.85450000000000E+0003	 3.69607779306072E-0001	
 2.85650000000000E+0003	 3.71825439446510E-0001	
 2.85850000000000E+0003	 3.73342599586948E-0001	
 2.86050000000000E+0003	 3.74893759727385E-0001	
 2.86250000000000E+0003	 3.76968919867823E-0001	
 2.86450000000000E+0003	 3.79791580008261E-0001	
 2.86650000000000E+0003	 3.83312240148699E-0001	
 2.86850000000000E+0003	 3.87217400289137E-0001	
 2.87050000000000E+0003	 3.91047560429575E-0001	
 2.87250000000000E+0003	 3.94331220570012E-0001	
 2.87450000000000E+0003	 3.96685880710450E-0001	
 2.87650000000000E+0003	 3.98062040850888E-0001	
 2.87850000000000E+0003	 3.98734200991326E-0001	
 2.88050000000000E+0003	 3.99080361131764E-0001	
 2.88250000000000E+0003	 3.99415521272202E-0001	
 2.88450000000000E+0003	 3.99986181412639E-0001	
 2.88650000000000E+0003	 4.00891841553077E-0001	
 2.88850000000000E+0003	 4.02170001693515E-0001	
 2.89050000000000E+0003	 4.03774661833953E-0001	
 2.89250000000000E+0003	 4.05658321974391E-0001	
 2.89450000000000E+0003	 4.07754482114829E-0001	
 2.89650000000000E+0003	 4.10033642255266E-0001	
 2.89850000000000E+0003	 4.12455302395704E-0001	
 2.90050000000000E+0003	 4.15056962536142E-0001	
 2.90250000000000E+0003	 4.17900622676580E-0001	
 2.90450000000000E+0003	 4.21072782817018E-0001	
 2.90650000000000E+0003	 4.24659442957456E-0001	
 2.90850000000000E+0003	 4.28737103097893E-0001	
 2.91050000000000E+0003	 4.33366263238331E-0001	
 2.91250000000000E+0003	 4.38572923378769E-0001	
 2.91450000000000E+0003	 4.44259583519207E-0001	
 2.91650000000000E+0003	 4.50208743659645E-0001	
 2.91850000000000E+0003	 4.56126903800083E-0001	
 2.92050000000000E+0003	 4.61606563940520E-0001	
 2.92250000000000E+0003	 4.66310224080958E-0001	
 2.92450000000000E+0003	 4.70038884221396E-0001	
 2.92650000000000E+0003	 4.72796044361834E-0001	
 2.92850000000000E+0003	 4.74698704502272E-0001	
 2.93050000000000E+0003	 4.75807864642710E-0001	
 2.93250000000000E+0003	 4.76133524783147E-0001	
 2.93450000000000E+0003	 4.75697684923585E-0001	
 2.93650000000000E+0003	 4.74461845064023E-0001	
 2.93850000000000E+0003	 4.72424005204461E-0001	
 2.94050000000000E+0003	 4.69775665344899E-0001	
 2.94250000000000E+0003	 4.66856825485337E-0001	
 2.94450000000000E+0003	 4.64024985625774E-0001	
 2.94650000000000E+0003	 4.61584645766212E-0001	
 2.94850000000000E+0003	 4.59821305906650E-0001	
 2.95050000000000E+0003	 4.58906466047088E-0001	
 2.95250000000000E+0003	 4.58792126187526E-0001	
 2.95450000000000E+0003	 4.59110786327964E-0001	
 2.95650000000000E+0003	 4.59479946468401E-0001	
 2.95850000000000E+0003	 4.59479606608839E-0001	
 2.96050000000000E+0003	 4.58783766749277E-0001	
 2.96250000000000E+0003	 4.57174426889715E-0001	
 2.96450000000000E+0003	 4.54642087030153E-0001	
 2.96650000000000E+0003	 4.51359747170591E-0001	
 2.96850000000000E+0003	 4.47587907311029E-0001	
 2.97050000000000E+0003	 4.43420067451466E-0001	
 2.97250000000000E+0003	 4.38965727591904E-0001	
 2.97450000000000E+0003	 4.34545887732342E-0001	
 2.97650000000000E+0003	 4.30385047872780E-0001	
 2.97850000000000E+0003	 4.26493708013218E-0001	
 2.98050000000000E+0003	 4.22800368153656E-0001	
 2.98250000000000E+0003	 4.19264028294093E-0001	
 2.98450000000000E+0003	 4.15906188434531E-0001	
 2.98650000000000E+0003	 4.12766848574969E-0001	
 2.98850000000000E+0003	 4.09861008715407E-0001	
 2.99050000000000E+0003	 4.07251168855845E-0001	
 2.99250000000000E+0003	 4.04983328996283E-0001	
 2.99450000000000E+0003	 4.03077489136720E-0001	
 2.99650000000000E+0003	 4.01590649277158E-0001	
 2.99850000000000E+0003	 4.00565809417596E-0001	
 3.00050000000000E+0003	 3.99959469558034E-0001	
 3.00250000000000E+0003	 3.99744629698472E-0001	
 3.00450000000000E+0003	 3.99877789838910E-0001	
 3.00650000000000E+0003	 4.00305449979347E-0001	
 3.00850000000000E+0003	 4.01011610119785E-0001	
 3.01050000000000E+0003	 4.01985270260223E-0001	
 3.01250000000000E+0003	 4.03246930400661E-0001	
 3.01450000000000E+0003	 4.04771590541099E-0001	
 3.01650000000000E+0003	 4.06514250681537E-0001	
 3.01850000000000E+0003	 4.08419910821974E-0001	
 3.02050000000000E+0003	 4.10515570962412E-0001	
 3.02250000000000E+0003	 4.12803731102850E-0001	
 3.02450000000000E+0003	 4.15272391243288E-0001	
 3.02650000000000E+0003	 4.17831551383726E-0001	
 3.02850000000000E+0003	 4.20394711524164E-0001	
 3.03050000000000E+0003	 4.22928871664601E-0001	
 3.03250000000000E+0003	 4.25459031805039E-0001	
 3.03450000000000E+0003	 4.28031191945477E-0001	
 3.03650000000000E+0003	 4.30647352085915E-0001	
 3.03850000000000E+0003	 4.33261512226353E-0001	
 3.04050000000000E+0003	 4.35918172366791E-0001	
 3.04250000000000E+0003	 4.38659832507228E-0001	
 3.04450000000000E+0003	 4.41461992647666E-0001	
 3.04650000000000E+0003	 4.44273152788104E-0001	
 3.04850000000000E+0003	 4.47058812928542E-0001	
 3.05050000000000E+0003	 4.49842973068980E-0001	
 3.05250000000000E+0003	 4.52625633209418E-0001	
 3.05450000000000E+0003	 4.55340293349855E-0001	
 3.05650000000000E+0003	 4.57975453490293E-0001	
 3.05850000000000E+0003	 4.60500613630731E-0001	
 3.06050000000000E+0003	 4.62849773771169E-0001	
 3.06250000000000E+0003	 4.64987933911607E-0001	
 3.06450000000000E+0003	 4.66934094052045E-0001	
 3.06650000000000E+0003	 4.68741254192482E-0001	
 3.06850000000000E+0003	 4.70459914332920E-0001	
 3.07050000000000E+0003	 4.72046574473358E-0001	
 3.07250000000000E+0003	 4.73491734613796E-0001	
 3.07450000000000E+0003	 4.74803894754234E-0001	
 3.07650000000000E+0003	 4.76016054894672E-0001	
 3.07850000000000E+0003	 4.77181215035109E-0001	
 3.08050000000000E+0003	 4.78324875175547E-0001	
 3.08250000000000E+0003	 4.79410035315985E-0001	
 3.08450000000000E+0003	 4.80457195456423E-0001	
 3.08650000000000E+0003	 4.81449355596861E-0001	
 3.08850000000000E+0003	 4.82355015737299E-0001	
 3.09050000000000E+0003	 4.83224675877736E-0001	
 3.09250000000000E+0003	 4.84082836018174E-0001	
 3.09450000000000E+0003	 4.84900496158612E-0001	
 3.09650000000000E+0003	 4.85701656299050E-0001	
 3.09850000000000E+0003	 4.86523816439488E-0001	
 3.10050000000000E+0003	 4.87440476579926E-0001	
 3.10250000000000E+0003	 4.88440136720363E-0001	
 3.10450000000000E+0003	 4.89487796860801E-0001	
 3.10650000000000E+0003	 4.90583457001239E-0001	
 3.10850000000000E+0003	 4.91795617141677E-0001	
 3.11050000000000E+0003	 4.93126277282115E-0001	
 3.11250000000000E+0003	 4.94522437422553E-0001	
 3.11450000000000E+0003	 4.96003597562991E-0001	
 3.11650000000000E+0003	 4.97633257703428E-0001	
 3.11850000000000E+0003	 4.99402917843866E-0001	
 3.12050000000000E+0003	 5.01314577984304E-0001	
 3.12250000000000E+0003	 5.03316238124742E-0001	
 3.12450000000000E+0003	 5.05388898265180E-0001	
 3.12650000000000E+0003	 5.07546058405618E-0001	
 3.12850000000000E+0003	 5.09802718546055E-0001	
 3.13050000000000E+0003	 5.12145378686493E-0001	
 3.13250000000000E+0003	 5.14552038826931E-0001	
 3.13450000000000E+0003	 5.17021698967369E-0001	
 3.13650000000000E+0003	 5.19578859107807E-0001	
 3.13850000000000E+0003	 5.22208019248245E-0001	
 3.14050000000000E+0003	 5.24889679388682E-0001	
 3.14250000000000E+0003	 5.27601839529120E-0001	
 3.14450000000000E+0003	 5.30384999669558E-0001	
 3.14650000000000E+0003	 5.33236659809996E-0001	
 3.14850000000000E+0003	 5.36148819950434E-0001	
 3.15050000000000E+0003	 5.39133480090872E-0001	
 3.15250000000000E+0003	 5.42172140231309E-0001	
 3.15450000000000E+0003	 5.45202300371747E-0001	
 3.15650000000000E+0003	 5.48253960512185E-0001	
 3.15850000000000E+0003	 5.51356620652623E-0001	
 3.16050000000000E+0003	 5.54494280793061E-0001	
 3.16250000000000E+0003	 5.57655940933499E-0001	
 3.16450000000000E+0003	 5.60836101073936E-0001	
 3.16650000000000E+0003	 5.64018761214374E-0001	
 3.16850000000000E+0003	 5.67186921354812E-0001	
 3.17050000000000E+0003	 5.70340081495250E-0001	
 3.17250000000000E+0003	 5.73481741635688E-0001	
 3.17450000000000E+0003	 5.76575401776126E-0001	
 3.17650000000000E+0003	 5.79627061916563E-0001	
 3.17850000000000E+0003	 5.82648222057001E-0001	
 3.18050000000000E+0003	 5.85631382197439E-0001	
 3.18250000000000E+0003	 5.88547542337877E-0001	
 3.18450000000000E+0003	 5.91408702478315E-0001	
 3.18650000000000E+0003	 5.94214862618753E-0001	
 3.18850000000000E+0003	 5.96972022759190E-0001	
 3.19050000000000E+0003	 5.99628682899628E-0001	
 3.19250000000000E+0003	 6.02185343040066E-0001	
 3.19450000000000E+0003	 6.04650003180504E-0001	
 3.19650000000000E+0003	 6.07052163320942E-0001	
 3.19850000000000E+0003	 6.09378823461380E-0001	
 3.20050000000000E+0003	 6.11656483601817E-0001	
 3.20250000000000E+0003	 6.13863143742255E-0001	
 3.20450000000000E+0003	 6.16004803882693E-0001	
 3.20650000000000E+0003	 6.18074464023131E-0001	
 3.20850000000000E+0003	 6.20103124163569E-0001	
 3.21050000000000E+0003	 6.22089784304007E-0001	
 3.21250000000000E+0003	 6.24063444444444E-0001	
 3.21450000000000E+0003	 6.26018604584882E-0001	
 3.21650000000000E+0003	 6.27973264725320E-0001	
 3.21850000000000E+0003	 6.29923424865758E-0001	
 3.22050000000000E+0003	 6.31880085006196E-0001	
 3.22250000000000E+0003	 6.33857745146634E-0001	
 3.22450000000000E+0003	 6.35876905287071E-0001	
 3.22650000000000E+0003	 6.37926065427509E-0001	
 3.22850000000000E+0003	 6.40027225567947E-0001	
 3.23050000000000E+0003	 6.42205885708385E-0001	
 3.23250000000000E+0003	 6.44470045848823E-0001	
 3.23450000000000E+0003	 6.46760205989261E-0001	
 3.23650000000000E+0003	 6.49093866129698E-0001	
 3.23850000000000E+0003	 6.51534026270136E-0001	
 3.24050000000000E+0003	 6.54070686410574E-0001	
 3.24250000000000E+0003	 6.56680846551012E-0001	
 3.24450000000000E+0003	 6.59391506691450E-0001	
 3.24650000000000E+0003	 6.62180666831888E-0001	
 3.24850000000000E+0003	 6.65023326972325E-0001	
 3.25050000000000E+0003	 6.67912987112763E-0001	
 3.25250000000000E+0003	 6.70874147253201E-0001	
 3.25450000000000E+0003	 6.73877307393639E-0001	
 3.25650000000000E+0003	 6.76928967534077E-0001	
 3.25850000000000E+0003	 6.79982627674515E-0001	
 3.26050000000000E+0003	 6.83042787814952E-0001	
 3.26250000000000E+0003	 6.86078947955390E-0001	
 3.26450000000000E+0003	 6.89079108095828E-0001	
 3.26650000000000E+0003	 6.91986268236266E-0001	
 3.26850000000000E+0003	 6.94806928376704E-0001	
 3.27050000000000E+0003	 6.97546588517142E-0001	
 3.27250000000000E+0003	 7.00193748657580E-0001	
 3.27450000000000E+0003	 7.02686908798017E-0001	
 3.27650000000000E+0003	 7.05053068938455E-0001	
 3.27850000000000E+0003	 7.07267729078893E-0001	
 3.28050000000000E+0003	 7.09334889219331E-0001	
 3.28250000000000E+0003	 7.11236549359769E-0001	
 3.28450000000000E+0003	 7.12987709500207E-0001	
 3.28650000000000E+0003	 7.14574369640644E-0001	
 3.28850000000000E+0003	 7.15997529781082E-0001	
 3.29050000000000E+0003	 7.17255189921520E-0001	
 3.29250000000000E+0003	 7.18407350061958E-0001	
 3.29450000000000E+0003	 7.19444010202396E-0001	
 3.29650000000000E+0003	 7.20359670342834E-0001	
 3.29850000000000E+0003	 7.21134330483271E-0001	
 3.30050000000000E+0003	 7.21781490623709E-0001	
 3.30250000000000E+0003	 7.22293650764147E-0001	
 3.30450000000000E+0003	 7.22731810904585E-0001	
 3.30650000000000E+0003	 7.23124971045023E-0001	
 3.30850000000000E+0003	 7.23465131185461E-0001	
 3.31050000000000E+0003	 7.23732791325898E-0001	
 3.31250000000000E+0003	 7.23948451466336E-0001	
 3.31450000000000E+0003	 7.24097111606774E-0001	
 3.31650000000000E+0003	 7.24216771747212E-0001	
 3.31850000000000E+0003	 7.24297431887650E-0001	
 3.32050000000000E+0003	 7.24359592028088E-0001	
 3.32250000000000E+0003	 7.24395252168525E-0001	
 3.32450000000000E+0003	 7.24445912308963E-0001	
 3.32650000000000E+0003	 7.24513572449401E-0001	
 3.32850000000000E+0003	 7.24591232589839E-0001	
 3.33050000000000E+0003	 7.24643392730277E-0001	
 3.33250000000000E+0003	 7.24709052870715E-0001	
 3.33450000000000E+0003	 7.24760713011152E-0001	
 3.33650000000000E+0003	 7.24816373151590E-0001	
 3.33850000000000E+0003	 7.24907533292028E-0001	
 3.34050000000000E+0003	 7.25041193432466E-0001	
 3.34250000000000E+0003	 7.25152353572904E-0001	
 3.34450000000000E+0003	 7.25288013713342E-0001	
 3.34650000000000E+0003	 7.25428673853779E-0001	
 3.34850000000000E+0003	 7.25567333994217E-0001	
 3.35050000000000E+0003	 7.25717494134655E-0001	
 3.35250000000000E+0003	 7.25892154275093E-0001	
 3.35450000000000E+0003	 7.26043314415531E-0001	
 3.35650000000000E+0003	 7.26208474555969E-0001	
 3.35850000000000E+0003	 7.26366134696406E-0001	
 3.36050000000000E+0003	 7.26528794836844E-0001	
 3.36250000000000E+0003	 7.26685954977282E-0001	
 3.36450000000000E+0003	 7.26848615117720E-0001	
 3.36650000000000E+0003	 7.27014275258158E-0001	
 3.36850000000000E+0003	 7.27202435398596E-0001	
 3.37050000000000E+0003	 7.27374095539033E-0001	
 3.37250000000000E+0003	 7.27518255679471E-0001	
 3.37450000000000E+0003	 7.27640415819909E-0001	
 3.37650000000000E+0003	 7.27779575960347E-0001	
 3.37850000000000E+0003	 7.27914236100785E-0001	
 3.38050000000000E+0003	 7.28052896241223E-0001	
 3.38250000000000E+0003	 7.28182056381660E-0001	
 3.38450000000000E+0003	 7.28308216522098E-0001	
 3.38650000000000E+0003	 7.28418376662536E-0001	
 3.38850000000000E+0003	 7.28553036802974E-0001	
 3.39050000000000E+0003	 7.28701196943412E-0001	
 3.39250000000000E+0003	 7.28804857083850E-0001	
 3.39450000000000E+0003	 7.28811017224287E-0001	
 3.39650000000000E+0003	 7.28841177364725E-0001	
 3.39850000000000E+0003	 7.28915337505163E-0001	
 3.40050000000000E+0003	 7.28961997645601E-0001	
 3.40250000000000E+0003	 7.28868657786039E-0001	
 3.40450000000000E+0003	 7.28723317926477E-0001	
 3.40650000000000E+0003	 7.28601478066914E-0001	
 3.40850000000000E+0003	 7.28480138207352E-0001	
 3.41050000000000E+0003	 7.28289798347790E-0001	
 3.41250000000000E+0003	 7.28055458488228E-0001	
 3.41450000000000E+0003	 7.27736618628666E-0001	
 3.41650000000000E+0003	 7.27380778769104E-0001	
 3.41850000000000E+0003	 7.27000438909542E-0001	
 3.42050000000000E+0003	 7.26556099049979E-0001	
 3.42250000000000E+0003	 7.26012259190417E-0001	
 3.42450000000000E+0003	 7.25450419330855E-0001	
 3.42650000000000E+0003	 7.24862079471293E-0001	
 3.42850000000000E+0003	 7.24240739611731E-0001	
 3.43050000000000E+0003	 7.23528899752169E-0001	
 3.43250000000000E+0003	 7.22783059892606E-0001	
 3.43450000000000E+0003	 7.22001720033044E-0001	
 3.43650000000000E+0003	 7.21093380173482E-0001	
 3.43850000000000E+0003	 7.20010040313920E-0001	
 3.44050000000000E+0003	 7.18891700454358E-0001	
 3.44250000000000E+0003	 7.17756360594796E-0001	
 3.44450000000000E+0003	 7.16612020735233E-0001	
 3.44650000000000E+0003	 7.15422680875671E-0001	
 3.44850000000000E+0003	 7.14148341016109E-0001	
 3.45050000000000E+0003	 7.12840001156547E-0001	
 3.45250000000000E+0003	 7.11513661296985E-0001	
 3.45450000000000E+0003	 7.10112821437423E-0001	
 3.45650000000000E+0003	 7.08680981577860E-0001	
 3.45850000000000E+0003	 7.07222641718298E-0001	
 3.46050000000000E+0003	 7.05699801858736E-0001	
 3.46250000000000E+0003	 7.04067961999174E-0001	
 3.46450000000000E+0003	 7.02489122139612E-0001	
 3.46650000000000E+0003	 7.00982282280050E-0001	
 3.46850000000000E+0003	 6.99306942420487E-0001	
 3.47050000000000E+0003	 6.97322602560925E-0001	
 3.47250000000000E+0003	 6.95272262701363E-0001	
 3.47450000000000E+0003	 6.93292422841801E-0001	
 3.47650000000000E+0003	 6.91370582982239E-0001	
 3.47850000000000E+0003	 6.89451243122677E-0001	
 3.48050000000000E+0003	 6.87379903263114E-0001	
 3.48250000000000E+0003	 6.85138063403552E-0001	
 3.48450000000000E+0003	 6.82970223543990E-0001	
 3.48650000000000E+0003	 6.80834383684428E-0001	
 3.48850000000000E+0003	 6.78581043824866E-0001	
 3.49050000000000E+0003	 6.76262203965304E-0001	
 3.49250000000000E+0003	 6.73978364105741E-0001	
 3.49450000000000E+0003	 6.71659524246179E-0001	
 3.49650000000000E+0003	 6.69260184386617E-0001	
 3.49850000000000E+0003	 6.66798844527055E-0001	
 3.50050000000000E+0003	 6.64371004667493E-0001	
 3.50250000000000E+0003	 6.61842664807931E-0001	
 3.50450000000000E+0003	 6.59129324948368E-0001	
 3.50650000000000E+0003	 6.56454985088806E-0001	
 3.50850000000000E+0003	 6.53851145229244E-0001	
 3.51050000000000E+0003	 6.51194305369682E-0001	
 3.51250000000000E+0003	 6.48559465510120E-0001	
 3.51450000000000E+0003	 6.45845625650558E-0001	
 3.51650000000000E+0003	 6.43024285790995E-0001	
 3.51850000000000E+0003	 6.40173445931433E-0001	
 3.52050000000000E+0003	 6.37373106071871E-0001	
 3.52250000000000E+0003	 6.34541766212309E-0001	
 3.52450000000000E+0003	 6.31511426352747E-0001	
 3.52650000000000E+0003	 6.28387586493185E-0001	
 3.52850000000000E+0003	 6.25307246633622E-0001	
 3.53050000000000E+0003	 6.22220406774060E-0001	
 3.53250000000000E+0003	 6.19170066914498E-0001	
 3.53450000000000E+0003	 6.16146727054936E-0001	
 3.53650000000000E+0003	 6.12952887195374E-0001	
 3.53850000000000E+0003	 6.09566547335812E-0001	
 3.54050000000000E+0003	 6.06257707476249E-0001	
 3.54250000000000E+0003	 6.03017367616687E-0001	
 3.54450000000000E+0003	 5.99591527757125E-0001	
 3.54650000000000E+0003	 5.95798187897563E-0001	
 3.54850000000000E+0003	 5.91995848038001E-0001	
 3.55050000000000E+0003	 5.88419508178439E-0001	
 3.55250000000000E+0003	 5.84730668318876E-0001	
 3.55450000000000E+0003	 5.80891328459314E-0001	
 3.55650000000000E+0003	 5.77112988599752E-0001	
 3.55850000000000E+0003	 5.73320148740190E-0001	
 3.56050000000000E+0003	 5.69396808880628E-0001	
 3.56250000000000E+0003	 5.65310469021066E-0001	
 3.56450000000000E+0003	 5.61159629161504E-0001	
 3.56650000000000E+0003	 5.56841289301941E-0001	
 3.56850000000000E+0003	 5.52433949442379E-0001	
 3.57050000000000E+0003	 5.48273609582817E-0001	
 3.57250000000000E+0003	 5.44148769723255E-0001	
 3.57450000000000E+0003	 5.39825429863693E-0001	
 3.57650000000000E+0003	 5.35393590004131E-0001	
 3.57850000000000E+0003	 5.30926250144568E-0001	
 3.58050000000000E+0003	 5.26429910285006E-0001	
 3.58250000000000E+0003	 5.21908070425444E-0001	
 3.58450000000000E+0003	 5.17376230565882E-0001	
 3.58650000000000E+0003	 5.12501390706320E-0001	
 3.58850000000000E+0003	 5.07168050846758E-0001	
 3.59050000000000E+0003	 5.02152710987195E-0001	
 3.59250000000000E+0003	 4.97496871127633E-0001	
 3.59450000000000E+0003	 4.92589531268071E-0001	
 3.59650000000000E+0003	 4.87533191408509E-0001	
 3.59850000000000E+0003	 4.82560851548947E-0001	
 3.60050000000000E+0003	 4.77487511689385E-0001	
 3.60250000000000E+0003	 4.72294671829822E-0001	
 3.60450000000000E+0003	 4.67117331970260E-0001	
 3.60650000000000E+0003	 4.61856992110698E-0001	
 3.60850000000000E+0003	 4.56339152251136E-0001	
 3.61050000000000E+0003	 4.50856812391574E-0001	
 3.61250000000000E+0003	 4.45555472532012E-0001	
 3.61450000000000E+0003	 4.40177632672449E-0001	
 3.61650000000000E+0003	 4.34989292812887E-0001	
 3.61850000000000E+0003	 4.29793452953325E-0001	
 3.62050000000000E+0003	 4.24152113093763E-0001	
 3.62250000000000E+0003	 4.18487273234201E-0001	
 3.62450000000000E+0003	 4.13033433374639E-0001	
 3.62650000000000E+0003	 4.07759593515076E-0001	
 3.62850000000000E+0003	 4.02089253655514E-0001	
 3.63050000000000E+0003	 3.95952413795952E-0001	
 3.63250000000000E+0003	 3.90486573936390E-0001	
 3.63450000000000E+0003	 3.85182734076828E-0001	
 3.63650000000000E+0003	 3.79712394217266E-0001	
 3.63850000000000E+0003	 3.74247054357703E-0001	
 3.64050000000000E+0003	 3.68762714498141E-0001	
 3.64250000000000E+0003	 3.63248874638579E-0001	
 3.64450000000000E+0003	 3.57836534779017E-0001	
 3.64650000000000E+0003	 3.52518694919455E-0001	
 3.64850000000000E+0003	 3.47085855059893E-0001	
 3.65050000000000E+0003	 3.41475515200330E-0001	
 3.65250000000000E+0003	 3.36134675340768E-0001	
 3.65450000000000E+0003	 3.31289335481206E-0001	
 3.65650000000000E+0003	 3.26296995621644E-0001	
 3.65850000000000E+0003	 3.21272655762082E-0001	
 3.66050000000000E+0003	 3.16483815902520E-0001	
 3.66250000000000E+0003	 3.11667976042957E-0001	
 3.66450000000000E+0003	 3.06930136183395E-0001	
 3.66650000000000E+0003	 3.02449296323833E-0001	
 3.66850000000000E+0003	 2.98140956464271E-0001	
 3.67050000000000E+0003	 2.93636116604709E-0001	
 3.67250000000000E+0003	 2.89407276745147E-0001	
 3.67450000000000E+0003	 2.85531936885584E-0001	
 3.67650000000000E+0003	 2.81414097026022E-0001	
 3.67850000000000E+0003	 2.77634257166460E-0001	
 3.68050000000000E+0003	 2.74116917306898E-0001	
 3.68250000000000E+0003	 2.70662577447336E-0001	
 3.68450000000000E+0003	 2.67390237587774E-0001	
 3.68650000000000E+0003	 2.64343397728211E-0001	
 3.68850000000000E+0003	 2.61349057868649E-0001	
 3.69050000000000E+0003	 2.58291718009087E-0001	
 3.69250000000000E+0003	 2.55299878149525E-0001	
 3.69450000000000E+0003	 2.52580538289963E-0001	
 3.69650000000000E+0003	 2.50014198430401E-0001	
 3.69850000000000E+0003	 2.47547358570838E-0001	
 3.70050000000000E+0003	 2.45207518711276E-0001	
 3.70250000000000E+0003	 2.42897678851714E-0001	
 3.70450000000000E+0003	 2.40634338992152E-0001	
 3.70650000000000E+0003	 2.38457499132590E-0001	
 3.70850000000000E+0003	 2.36339159273028E-0001	
 3.71050000000000E+0003	 2.34323819413466E-0001	
 3.71250000000000E+0003	 2.32403479553903E-0001	
 3.71450000000000E+0003	 2.30595639694341E-0001	
 3.71650000000000E+0003	 2.28863299834779E-0001	
 3.71850000000000E+0003	 2.27131459975217E-0001	
 3.72050000000000E+0003	 2.25426120115655E-0001	
 3.72250000000000E+0003	 2.23734780256093E-0001	
 3.72450000000000E+0003	 2.22105940396530E-0001	
 3.72650000000000E+0003	 2.20519600536968E-0001	
 3.72850000000000E+0003	 2.19003260677406E-0001	
 3.73050000000000E+0003	 2.17520920817844E-0001	
 3.73250000000000E+0003	 2.16031080958282E-0001	
 3.73450000000000E+0003	 2.14616241098720E-0001	
 3.73650000000000E+0003	 2.13169401239157E-0001	
 3.73850000000000E+0003	 2.11776061379595E-0001	
 3.74050000000000E+0003	 2.10408721520033E-0001	
 3.74250000000000E+0003	 2.09085381660471E-0001	
 3.74450000000000E+0003	 2.07743541800909E-0001	
 3.74650000000000E+0003	 2.06506701941347E-0001	
 3.74850000000000E+0003	 2.05249862081784E-0001	
 3.75050000000000E+0003	 2.04039022222222E-0001	
 3.75250000000000E+0003	 2.02979682362660E-0001	
 3.75450000000000E+0003	 2.01924342503098E-0001	
 3.75650000000000E+0003	 2.00828502643536E-0001	
 3.75850000000000E+0003	 1.99720162783974E-0001	
 3.76050000000000E+0003	 1.98637822924411E-0001	
 3.76250000000000E+0003	 1.97560483064849E-0001	
 3.76450000000000E+0003	 1.96472143205287E-0001	
 3.76650000000000E+0003	 1.95395303345725E-0001	
 3.76850000000000E+0003	 1.94376963486163E-0001	
 3.77050000000000E+0003	 1.93385623626601E-0001	
 3.77250000000000E+0003	 1.92428783767038E-0001	
 3.77450000000000E+0003	 1.91421443907476E-0001	
 3.77650000000000E+0003	 1.90415104047914E-0001	
 3.77850000000000E+0003	 1.89475264188352E-0001	
 3.78050000000000E+0003	 1.88550424328790E-0001	
 3.78250000000000E+0003	 1.87601084469228E-0001	
 3.78450000000000E+0003	 1.86661244609665E-0001	
 3.78650000000000E+0003	 1.85773904750103E-0001	
 3.78850000000000E+0003	 1.84911564890541E-0001	
 3.79050000000000E+0003	 1.84036725030979E-0001	
 3.79250000000000E+0003	 1.83127885171417E-0001	
 3.79450000000000E+0003	 1.82223545311855E-0001	
 3.79650000000000E+0003	 1.81339705452292E-0001	
 3.79850000000000E+0003	 1.80530865592730E-0001	
 3.80050000000000E+0003	 1.79708525733168E-0001	
 3.80250000000000E+0003	 1.78864685873606E-0001	
 3.80450000000000E+0003	 1.78122346014044E-0001	
 3.80650000000000E+0003	 1.77344006154482E-0001	
 3.80850000000000E+0003	 1.76619666294919E-0001	
 3.81050000000000E+0003	 1.75876326435357E-0001	
 3.81250000000000E+0003	 1.75053486575795E-0001	
 3.81450000000000E+0003	 1.74260146716233E-0001	
 3.81650000000000E+0003	 1.73481306856671E-0001	
 3.81850000000000E+0003	 1.72852966997109E-0001	
 3.82050000000000E+0003	 1.72216627137546E-0001	
 3.82250000000000E+0003	 1.71509287277984E-0001	
 3.82450000000000E+0003	 1.70803947418422E-0001	
 3.82650000000000E+0003	 1.70063607558860E-0001	
 3.82850000000000E+0003	 1.69373267699298E-0001	
 3.83050000000000E+0003	 1.68723927839736E-0001	
 3.83250000000000E+0003	 1.68110087980173E-0001	
 3.83450000000000E+0003	 1.67559248120611E-0001	
 3.83650000000000E+0003	 1.66950908261049E-0001	
 3.83850000000000E+0003	 1.66258068401487E-0001	
 3.84050000000000E+0003	 1.65604728541925E-0001	
 3.84250000000000E+0003	 1.64971388682363E-0001	
 3.84450000000000E+0003	 1.64365048822800E-0001	
 3.84650000000000E+0003	 1.63737208963238E-0001	
 3.84850000000000E+0003	 1.63042869103676E-0001	
 3.85050000000000E+0003	 1.62408529244114E-0001	
 3.85250000000000E+0003	 1.62049689384552E-0001	
 3.85450000000000E+0003	 1.61790849524990E-0001	
 3.85650000000000E+0003	 1.61199009665428E-0001	
 3.85850000000000E+0003	 1.60410169805865E-0001	
 3.86050000000000E+0003	 1.59731329946303E-0001	
 3.86250000000000E+0003	 1.59271990086741E-0001	
 3.86450000000000E+0003	 1.58815650227179E-0001	
 3.86650000000000E+0003	 1.58277810367617E-0001	
 3.86850000000000E+0003	 1.57746970508055E-0001	
 3.87050000000000E+0003	 1.57246630648492E-0001	
 3.87250000000000E+0003	 1.56846290788930E-0001	
 3.87450000000000E+0003	 1.56354950929368E-0001	
 3.87650000000000E+0003	 1.55797611069806E-0001	
 3.87850000000000E+0003	 1.55300771210244E-0001	
 3.88050000000000E+0003	 1.54840931350682E-0001	
 3.88250000000000E+0003	 1.54397091491119E-0001	
 3.88450000000000E+0003	 1.53945751631557E-0001	
 3.88650000000000E+0003	 1.53487411771995E-0001	
 3.88850000000000E+0003	 1.53118071912433E-0001	
 3.89050000000000E+0003	 1.52799732052871E-0001	
 3.89250000000000E+0003	 1.52429892193309E-0001	
 3.89450000000000E+0003	 1.51915552333746E-0001	
 3.89650000000000E+0003	 1.51394712474184E-0001	
 3.89850000000000E+0003	 1.50947372614622E-0001	
 3.90050000000000E+0003	 1.50491032755060E-0001	
 3.90250000000000E+0003	 1.50179192895498E-0001	
 3.90450000000000E+0003	 1.50021853035936E-0001	
 3.90650000000000E+0003	 1.49718513176373E-0001	
 3.90850000000000E+0003	 1.49259673316811E-0001	
 3.91050000000000E+0003	 1.48838833457249E-0001	
 3.91250000000000E+0003	 1.48448493597687E-0001	
 3.91450000000000E+0003	 1.48052153738125E-0001	
 3.91650000000000E+0003	 1.47673813878563E-0001	
 3.91850000000000E+0003	 1.47364974019000E-0001	
 3.92050000000000E+0003	 1.47077134159438E-0001	
 3.92250000000000E+0003	 1.46784294299876E-0001	
 3.92450000000000E+0003	 1.46507954440314E-0001	
 3.92650000000000E+0003	 1.46192114580752E-0001	
 3.92850000000000E+0003	 1.45806274721190E-0001	
 3.93050000000000E+0003	 1.45427934861627E-0001	
 3.93250000000000E+0003	 1.45098095002065E-0001	
 3.93450000000000E+0003	 1.44823755142503E-0001	
 3.93650000000000E+0003	 1.44534415282941E-0001	
 3.93850000000000E+0003	 1.44202575423379E-0001	
 3.94050000000000E+0003	 1.43878735563817E-0001	
 3.94250000000000E+0003	 1.43576395704254E-0001	
 3.94450000000000E+0003	 1.43231555844692E-0001	
 3.94650000000000E+0003	 1.42861715985130E-0001	
 3.94850000000000E+0003	 1.42558376125568E-0001	
 3.95050000000000E+0003	 1.42311036266006E-0001	
 3.95250000000000E+0003	 1.42024696406444E-0001	
 3.95450000000000E+0003	 1.41705856546881E-0001	
 3.95650000000000E+0003	 1.41390516687319E-0001	
 3.95850000000000E+0003	 1.41079676827757E-0001	
 3.96050000000000E+0003	 1.40764336968195E-0001	
 3.96250000000000E+0003	 1.40463997108633E-0001	
 3.96450000000000E+0003	 1.40181657249071E-0001	
 3.96650000000000E+0003	 1.39900817389508E-0001	
 3.96850000000000E+0003	 1.39609477529946E-0001	
 3.97050000000000E+0003	 1.39323137670384E-0001	
 3.97250000000000E+0003	 1.39037297810822E-0001	
 3.97450000000000E+0003	 1.38744957951260E-0001	
 3.97650000000000E+0003	 1.38446618091698E-0001	
 3.97850000000000E+0003	 1.38159278232135E-0001	
 3.98050000000000E+0003	 1.37881438372573E-0001	
 3.98250000000000E+0003	 1.37610098513011E-0001	
 3.98450000000000E+0003	 1.37328258653449E-0001	
 3.98650000000000E+0003	 1.37026918793887E-0001	
 3.98850000000000E+0003	 1.36721578934325E-0001	
 3.99050000000000E+0003	 1.36435239074762E-0001	
 3.99250000000000E+0003	 1.36155399215200E-0001	
 3.99450000000000E+0003	 1.35879059355638E-0001	
 3.99650000000000E+0003	 1.35597719496076E-0001	
 3.99850000000000E+0003	 1.35315879636514E-0001	

>1	DATALINE
