*CPCWIN*

>1	DATALINE
DATALINE
1
Operator:

Description:

Remarks:





15.9.2008
11:33


_x	_y
	
	
UNIT	UNIT
 4.50500000000000E+0002	 1.33018714195011E-0001	
 4.52500000000000E+0002	 1.33398203628118E-0001	
 4.54500000000000E+0002	 1.33887693061224E-0001	
 4.56500000000000E+0002	 1.34257182494331E-0001	
 4.58500000000000E+0002	 1.34662171927438E-0001	
 4.60500000000000E+0002	 1.35819161360544E-0001	
 4.62500000000000E+0002	 1.36635150793651E-0001	
 4.64500000000000E+0002	 1.37594140226757E-0001	
 4.66500000000000E+0002	 1.38166129659864E-0001	
 4.68500000000000E+0002	 1.38626119092971E-0001	
 4.70500000000000E+0002	 1.39035608526077E-0001	
 4.72500000000000E+0002	 1.39539097959184E-0001	
 4.74500000000000E+0002	 1.40408087392290E-0001	
 4.76500000000000E+0002	 1.41475076825397E-0001	
 4.78500000000000E+0002	 1.42269566258503E-0001	
 4.80500000000000E+0002	 1.43163555691610E-0001	
 4.82500000000000E+0002	 1.43767045124717E-0001	
 4.84500000000000E+0002	 1.44421534557823E-0001	
 4.86500000000000E+0002	 1.45251523990930E-0001	
 4.88500000000000E+0002	 1.46333513424036E-0001	
 4.90500000000000E+0002	 1.47093002857143E-0001	
 4.92500000000000E+0002	 1.48028492290249E-0001	
 4.94500000000000E+0002	 1.49151981723356E-0001	
 4.96500000000000E+0002	 1.50242971156463E-0001	
 4.98500000000000E+0002	 1.51148960589569E-0001	
 5.00500000000000E+0002	 1.51931950022676E-0001	
 5.02500000000000E+0002	 1.52495939455782E-0001	
 5.04500000000000E+0002	 1.53428428888889E-0001	
 5.06500000000000E+0002	 1.54267918321995E-0001	
 5.08500000000000E+0002	 1.55110407755102E-0001	
 5.10500000000000E+0002	 1.55976397188209E-0001	
 5.12500000000000E+0002	 1.56855886621315E-0001	
 5.14500000000000E+0002	 1.57677876054422E-0001	
 5.16500000000000E+0002	 1.58482865487528E-0001	
 5.18500000000000E+0002	 1.59297354920635E-0001	
 5.20500000000000E+0002	 1.60333844353741E-0001	
 5.22500000000000E+0002	 1.61172833786848E-0001	
 5.24500000000000E+0002	 1.61673823219955E-0001	
 5.26500000000000E+0002	 1.62114312653061E-0001	
 5.28500000000000E+0002	 1.62904802086168E-0001	
 5.30500000000000E+0002	 1.63675791519274E-0001	
 5.32500000000000E+0002	 1.64205280952381E-0001	
 5.34500000000000E+0002	 1.64375270385488E-0001	
 5.36500000000000E+0002	 1.64367259818594E-0001	
 5.38500000000000E+0002	 1.64250749251701E-0001	
 5.40500000000000E+0002	 1.64056738684807E-0001	
 5.42500000000000E+0002	 1.63729728117914E-0001	
 5.44500000000000E+0002	 1.63362217551020E-0001	
 5.46500000000000E+0002	 1.62947206984127E-0001	
 5.48500000000000E+0002	 1.62598196417234E-0001	
 5.50500000000000E+0002	 1.62283185850340E-0001	
 5.52500000000000E+0002	 1.62135675283447E-0001	
 5.54500000000000E+0002	 1.61971164716553E-0001	
 5.56500000000000E+0002	 1.61853154149660E-0001	
 5.58500000000000E+0002	 1.61728643582766E-0001	
 5.60500000000000E+0002	 1.61630133015873E-0001	
 5.62500000000000E+0002	 1.61439122448980E-0001	
 5.64500000000000E+0002	 1.61210111882086E-0001	
 5.66500000000000E+0002	 1.60949101315193E-0001	
 5.68500000000000E+0002	 1.60744590748299E-0001	
 5.70500000000000E+0002	 1.60564580181406E-0001	
 5.72500000000000E+0002	 1.60424069614512E-0001	
 5.74500000000000E+0002	 1.60137559047619E-0001	
 5.76500000000000E+0002	 1.59846048480726E-0001	
 5.78500000000000E+0002	 1.59572537913832E-0001	
 5.80500000000000E+0002	 1.59097527346939E-0001	
 5.82500000000000E+0002	 1.58462516780045E-0001	
 5.84500000000000E+0002	 1.57892506213152E-0001	
 5.86500000000000E+0002	 1.57428495646259E-0001	
 5.88500000000000E+0002	 1.57166485079365E-0001	
 5.90500000000000E+0002	 1.56898974512472E-0001	
 5.92500000000000E+0002	 1.56813463945578E-0001	
 5.94500000000000E+0002	 1.56932953378685E-0001	
 5.96500000000000E+0002	 1.57108442811791E-0001	
 5.98500000000000E+0002	 1.57164932244898E-0001	
 6.00500000000000E+0002	 1.57198421678005E-0001	
 6.02500000000000E+0002	 1.57280911111111E-0001	
 6.04500000000000E+0002	 1.57435400544218E-0001	
 6.06500000000000E+0002	 1.57564389977324E-0001	
 6.08500000000000E+0002	 1.57690379410431E-0001	
 6.10500000000000E+0002	 1.57792368843537E-0001	
 6.12500000000000E+0002	 1.57900358276644E-0001	
 6.14500000000000E+0002	 1.57826847709751E-0001	
 6.16500000000000E+0002	 1.57613337142857E-0001	
 6.18500000000000E+0002	 1.57256826575964E-0001	
 6.20500000000000E+0002	 1.56763316009070E-0001	
 6.22500000000000E+0002	 1.56117305442177E-0001	
 6.24500000000000E+0002	 1.55440294875283E-0001	
 6.26500000000000E+0002	 1.54859284308390E-0001	
 6.28500000000000E+0002	 1.54427273741497E-0001	
 6.30500000000000E+0002	 1.53960763174603E-0001	
 6.32500000000000E+0002	 1.53488252607710E-0001	
 6.34500000000000E+0002	 1.52975742040816E-0001	
 6.36500000000000E+0002	 1.52658231473923E-0001	
 6.38500000000000E+0002	 1.52423220907029E-0001	
 6.40500000000000E+0002	 1.52171710340136E-0001	
 6.42500000000000E+0002	 1.51803199773243E-0001	
 6.44500000000000E+0002	 1.51374189206349E-0001	
 6.46500000000000E+0002	 1.50903178639456E-0001	
 6.48500000000000E+0002	 1.50438168072562E-0001	
 6.50500000000000E+0002	 1.49885657505669E-0001	
 6.52500000000000E+0002	 1.49397646938776E-0001	
 6.54500000000000E+0002	 1.48995136371882E-0001	
 6.56500000000000E+0002	 1.48685125804989E-0001	
 6.58500000000000E+0002	 1.48344115238095E-0001	
 6.60500000000000E+0002	 1.48104104671202E-0001	
 6.62500000000000E+0002	 1.47804594104308E-0001	
 6.64500000000000E+0002	 1.47395083537415E-0001	
 6.66500000000000E+0002	 1.46775072970522E-0001	
 6.68500000000000E+0002	 1.46228562403628E-0001	
 6.70500000000000E+0002	 1.45936051836735E-0001	
 6.72500000000000E+0002	 1.45666541269841E-0001	
 6.74500000000000E+0002	 1.45080030702948E-0001	
 6.76500000000000E+0002	 1.44461520136054E-0001	
 6.78500000000000E+0002	 1.43829509569161E-0001	
 6.80500000000000E+0002	 1.43243999002268E-0001	
 6.82500000000000E+0002	 1.42658988435374E-0001	
 6.84500000000000E+0002	 1.42201477868481E-0001	
 6.86500000000000E+0002	 1.41746467301587E-0001	
 6.88500000000000E+0002	 1.41338456734694E-0001	
 6.90500000000000E+0002	 1.40995946167800E-0001	
 6.92500000000000E+0002	 1.40793435600907E-0001	
 6.94500000000000E+0002	 1.40629425034014E-0001	
 6.96500000000000E+0002	 1.40565414467120E-0001	
 6.98500000000000E+0002	 1.40471903900227E-0001	
 7.00500000000000E+0002	 1.40323893333333E-0001	
 7.02500000000000E+0002	 1.39930882766440E-0001	
 7.04500000000000E+0002	 1.39356872199546E-0001	
 7.06500000000000E+0002	 1.38624361632653E-0001	
 7.08500000000000E+0002	 1.37837851065760E-0001	
 7.10500000000000E+0002	 1.36970840498866E-0001	
 7.12500000000000E+0002	 1.36128329931973E-0001	
 7.14500000000000E+0002	 1.35239819365079E-0001	
 7.16500000000000E+0002	 1.34424808798186E-0001	
 7.18500000000000E+0002	 1.33641798231293E-0001	
 7.20500000000000E+0002	 1.32894787664399E-0001	
 7.22500000000000E+0002	 1.32065777097506E-0001	
 7.24500000000000E+0002	 1.31134266530612E-0001	
 7.26500000000000E+0002	 1.30025755963719E-0001	
 7.28500000000000E+0002	 1.28890245396825E-0001	
 7.30500000000000E+0002	 1.27779734829932E-0001	
 7.32500000000000E+0002	 1.26799224263039E-0001	
 7.34500000000000E+0002	 1.25890713696145E-0001	
 7.36500000000000E+0002	 1.25115703129252E-0001	
 7.38500000000000E+0002	 1.24416692562358E-0001	
 7.40500000000000E+0002	 1.23810181995465E-0001	
 7.42500000000000E+0002	 1.23244171428571E-0001	
 7.44500000000000E+0002	 1.22774160861678E-0001	
 7.46500000000000E+0002	 1.22359650294785E-0001	
 7.48500000000000E+0002	 1.21965139727891E-0001	
 7.50500000000000E+0002	 1.21476629160998E-0001	
 7.52500000000000E+0002	 1.20909618594104E-0001	
 7.54500000000000E+0002	 1.20261608027211E-0001	
 7.56500000000000E+0002	 1.19562597460317E-0001	
 7.58500000000000E+0002	 1.18784586893424E-0001	
 7.60500000000000E+0002	 1.18040576326531E-0001	
 7.62500000000000E+0002	 1.17381065759637E-0001	
 7.64500000000000E+0002	 1.16772555192744E-0001	
 7.66500000000000E+0002	 1.16067544625850E-0001	
 7.68500000000000E+0002	 1.15246034058957E-0001	
 7.70500000000000E+0002	 1.14393523492063E-0001	
 7.72500000000000E+0002	 1.13711012925170E-0001	
 7.74500000000000E+0002	 1.13333002358277E-0001	
 7.76500000000000E+0002	 1.13392991791383E-0001	
 7.78500000000000E+0002	 1.13732981224490E-0001	
 7.80500000000000E+0002	 1.13757970657596E-0001	
 7.82500000000000E+0002	 1.13161960090703E-0001	
 7.84500000000000E+0002	 1.12380949523810E-0001	
 7.86500000000000E+0002	 1.11722938956916E-0001	
 7.88500000000000E+0002	 1.11203428390023E-0001	
 7.90500000000000E+0002	 1.10816417823129E-0001	
 7.92500000000000E+0002	 1.10702407256236E-0001	
 7.94500000000000E+0002	 1.10950396689342E-0001	
 7.96500000000000E+0002	 1.11294886122449E-0001	
 7.98500000000000E+0002	 1.11453375555556E-0001	
 8.00500000000000E+0002	 1.11484364988662E-0001	
 8.02500000000000E+0002	 1.11446354421769E-0001	
 8.04500000000000E+0002	 1.11284843854875E-0001	
 8.06500000000000E+0002	 1.10899333287982E-0001	
 8.08500000000000E+0002	 1.10311822721088E-0001	
 8.10500000000000E+0002	 1.09631812154195E-0001	
 8.12500000000000E+0002	 1.08983301587302E-0001	
 8.14500000000000E+0002	 1.08388291020408E-0001	
 8.16500000000000E+0002	 1.07847780453515E-0001	
 8.18500000000000E+0002	 1.07365769886621E-0001	
 8.20500000000000E+0002	 1.06965759319728E-0001	
 8.22500000000000E+0002	 1.06650748752834E-0001	
 8.24500000000000E+0002	 1.06402738185941E-0001	
 8.26500000000000E+0002	 1.06172227619048E-0001	
 8.28500000000000E+0002	 1.05973717052154E-0001	
 8.30500000000000E+0002	 1.05798206485261E-0001	
 8.32500000000000E+0002	 1.05686695918367E-0001	
 8.34500000000000E+0002	 1.05623685351474E-0001	
 8.36500000000000E+0002	 1.05626174784580E-0001	
 8.38500000000000E+0002	 1.05652664217687E-0001	
 8.40500000000000E+0002	 1.05714153650794E-0001	
 8.42500000000000E+0002	 1.05811143083900E-0001	
 8.44500000000000E+0002	 1.05974632517007E-0001	
 8.46500000000000E+0002	 1.06209621950113E-0001	
 8.48500000000000E+0002	 1.06574611383220E-0001	
 8.50500000000000E+0002	 1.07045600816327E-0001	
 8.52500000000000E+0002	 1.07621590249433E-0001	
 8.54500000000000E+0002	 1.08224579682540E-0001	
 8.56500000000000E+0002	 1.08834069115646E-0001	
 8.58500000000000E+0002	 1.09342558548753E-0001	
 8.60500000000000E+0002	 1.09678047981859E-0001	
 8.62500000000000E+0002	 1.09735537414966E-0001	
 8.64500000000000E+0002	 1.09534526848073E-0001	
 8.66500000000000E+0002	 1.09116016281179E-0001	
 8.68500000000000E+0002	 1.08694005714286E-0001	
 8.70500000000000E+0002	 1.08477495147392E-0001	
 8.72500000000000E+0002	 1.08287984580499E-0001	
 8.74500000000000E+0002	 1.07588474013605E-0001	
 8.76500000000000E+0002	 1.06658963446712E-0001	
 8.78500000000000E+0002	 1.05813452879819E-0001	
 8.80500000000000E+0002	 1.05091942312925E-0001	
 8.82500000000000E+0002	 1.04394431746032E-0001	
 8.84500000000000E+0002	 1.03746421179138E-0001	
 8.86500000000000E+0002	 1.03139910612245E-0001	
 8.88500000000000E+0002	 1.02682900045351E-0001	
 8.90500000000000E+0002	 1.02358889478458E-0001	
 8.92500000000000E+0002	 1.02190378911565E-0001	
 8.94500000000000E+0002	 1.02104868344671E-0001	
 8.96500000000000E+0002	 1.02083357777778E-0001	
 8.98500000000000E+0002	 1.02029347210884E-0001	
 9.00500000000000E+0002	 1.01986836643991E-0001	
 9.02500000000000E+0002	 1.01978326077098E-0001	
 9.04500000000000E+0002	 1.02158315510204E-0001	
 9.06500000000000E+0002	 1.02548804943311E-0001	
 9.08500000000000E+0002	 1.03133794376417E-0001	
 9.10500000000000E+0002	 1.03753783809524E-0001	
 9.12500000000000E+0002	 1.04315773242630E-0001	
 9.14500000000000E+0002	 1.04644262675737E-0001	
 9.16500000000000E+0002	 1.04704752108844E-0001	
 9.18500000000000E+0002	 1.04505741541950E-0001	
 9.20500000000000E+0002	 1.04217230975057E-0001	
 9.22500000000000E+0002	 1.03990220408163E-0001	
 9.24500000000000E+0002	 1.03977209841270E-0001	
 9.26500000000000E+0002	 1.04203199274376E-0001	
 9.28500000000000E+0002	 1.04692688707483E-0001	
 9.30500000000000E+0002	 1.05353178140590E-0001	
 9.32500000000000E+0002	 1.06092667573696E-0001	
 9.34500000000000E+0002	 1.06804657006803E-0001	
 9.36500000000000E+0002	 1.07474146439909E-0001	
 9.38500000000000E+0002	 1.08092135873016E-0001	
 9.40500000000000E+0002	 1.08670625306122E-0001	
 9.42500000000000E+0002	 1.09206614739229E-0001	
 9.44500000000000E+0002	 1.09668604172336E-0001	
 9.46500000000000E+0002	 1.09957593605442E-0001	
 9.48500000000000E+0002	 1.10086083038549E-0001	
 9.50500000000000E+0002	 1.10128572471655E-0001	
 9.52500000000000E+0002	 1.10210561904762E-0001	
 9.54500000000000E+0002	 1.10521051337868E-0001	
 9.56500000000000E+0002	 1.11172040770975E-0001	
 9.58500000000000E+0002	 1.12134030204082E-0001	
 9.60500000000000E+0002	 1.13321519637188E-0001	
 9.62500000000000E+0002	 1.14649009070295E-0001	
 9.64500000000000E+0002	 1.16002498503401E-0001	
 9.66500000000000E+0002	 1.17294487936508E-0001	
 9.68500000000000E+0002	 1.18510477369615E-0001	
 9.70500000000000E+0002	 1.19728966802721E-0001	
 9.72500000000000E+0002	 1.21105956235828E-0001	
 9.74500000000000E+0002	 1.22858945668934E-0001	
 9.76500000000000E+0002	 1.25227435102041E-0001	
 9.78500000000000E+0002	 1.28444424535147E-0001	
 9.80500000000000E+0002	 1.32544413968254E-0001	
 9.82500000000000E+0002	 1.37368403401361E-0001	
 9.84500000000000E+0002	 1.42525892834467E-0001	
 9.86500000000000E+0002	 1.47511882267574E-0001	
 9.88500000000000E+0002	 1.51822371700680E-0001	
 9.90500000000000E+0002	 1.55106361133787E-0001	
 9.92500000000000E+0002	 1.57175850566893E-0001	
 9.94500000000000E+0002	 1.58069840000000E-0001	
 9.96500000000000E+0002	 1.58030329433107E-0001	
 9.98500000000000E+0002	 1.57563818866213E-0001	
 1.00050000000000E+0003	 1.57190808299320E-0001	
 1.00250000000000E+0003	 1.57407297732426E-0001	
 1.00450000000000E+0003	 1.58533287165533E-0001	
 1.00650000000000E+0003	 1.60704276598639E-0001	
 1.00850000000000E+0003	 1.63735766031746E-0001	
 1.01050000000000E+0003	 1.67276755464853E-0001	
 1.01250000000000E+0003	 1.70935744897959E-0001	
 1.01450000000000E+0003	 1.74467734331066E-0001	
 1.01650000000000E+0003	 1.77766723764172E-0001	
 1.01850000000000E+0003	 1.80950713197279E-0001	
 1.02050000000000E+0003	 1.84192202630385E-0001	
 1.02250000000000E+0003	 1.87728192063492E-0001	
 1.02450000000000E+0003	 1.91612681496599E-0001	
 1.02650000000000E+0003	 1.95641670929705E-0001	
 1.02850000000000E+0003	 1.99434160362812E-0001	
 1.03050000000000E+0003	 2.02646149795918E-0001	
 1.03250000000000E+0003	 2.05099139229025E-0001	
 1.03450000000000E+0003	 2.06927128662132E-0001	
 1.03650000000000E+0003	 2.08326618095238E-0001	
 1.03850000000000E+0003	 2.09502607528345E-0001	
 1.04050000000000E+0003	 2.10697096961451E-0001	
 1.04250000000000E+0003	 2.12115086394558E-0001	
 1.04450000000000E+0003	 2.13828575827664E-0001	
 1.04650000000000E+0003	 2.15801065260771E-0001	
 1.04850000000000E+0003	 2.17811054693878E-0001	
 1.05050000000000E+0003	 2.19563044126984E-0001	
 1.05250000000000E+0003	 2.20888533560091E-0001	
 1.05450000000000E+0003	 2.21768522993197E-0001	
 1.05650000000000E+0003	 2.22316512426304E-0001	
 1.05850000000000E+0003	 2.22599501859410E-0001	
 1.06050000000000E+0003	 2.22584491292517E-0001	
 1.06250000000000E+0003	 2.22270480725624E-0001	
 1.06450000000000E+0003	 2.21869970158730E-0001	
 1.06650000000000E+0003	 2.21692459591837E-0001	
 1.06850000000000E+0003	 2.21925449024943E-0001	
 1.07050000000000E+0003	 2.22536938458050E-0001	
 1.07250000000000E+0003	 2.23405427891156E-0001	
 1.07450000000000E+0003	 2.24271417324263E-0001	
 1.07650000000000E+0003	 2.24847906757370E-0001	
 1.07850000000000E+0003	 2.24883396190476E-0001	
 1.08050000000000E+0003	 2.24238885623583E-0001	
 1.08250000000000E+0003	 2.22866875056689E-0001	
 1.08450000000000E+0003	 2.20854364489796E-0001	
 1.08650000000000E+0003	 2.18290853922902E-0001	
 1.08850000000000E+0003	 2.15354843356009E-0001	
 1.09050000000000E+0003	 2.12287832789116E-0001	
 1.09250000000000E+0003	 2.09465822222222E-0001	
 1.09450000000000E+0003	 2.07132811655329E-0001	
 1.09650000000000E+0003	 2.05351801088435E-0001	
 1.09850000000000E+0003	 2.04001290521542E-0001	
 1.10050000000000E+0003	 2.02920779954649E-0001	
 1.10250000000000E+0003	 2.01924269387755E-0001	
 1.10450000000000E+0003	 2.00928258820862E-0001	
 1.10650000000000E+0003	 1.99864748253968E-0001	
 1.10850000000000E+0003	 1.98762737687075E-0001	
 1.11050000000000E+0003	 1.97624227120181E-0001	
 1.11250000000000E+0003	 1.96398216553288E-0001	
 1.11450000000000E+0003	 1.94878205986395E-0001	
 1.11650000000000E+0003	 1.92911195419501E-0001	
 1.11850000000000E+0003	 1.90388184852608E-0001	
 1.12050000000000E+0003	 1.87342174285714E-0001	
 1.12250000000000E+0003	 1.83821163718821E-0001	
 1.12450000000000E+0003	 1.79992653151927E-0001	
 1.12650000000000E+0003	 1.75971642585034E-0001	
 1.12850000000000E+0003	 1.71893632018141E-0001	
 1.13050000000000E+0003	 1.67859621451247E-0001	
 1.13250000000000E+0003	 1.64107610884354E-0001	
 1.13450000000000E+0003	 1.60823100317460E-0001	
 1.13650000000000E+0003	 1.58190589750567E-0001	
 1.13850000000000E+0003	 1.56322579183673E-0001	
 1.14050000000000E+0003	 1.55310068616780E-0001	
 1.14250000000000E+0003	 1.55051058049887E-0001	
 1.14450000000000E+0003	 1.55350547482993E-0001	
 1.14650000000000E+0003	 1.55792036916100E-0001	
 1.14850000000000E+0003	 1.55986026349206E-0001	
 1.15050000000000E+0003	 1.55566015782313E-0001	
 1.15250000000000E+0003	 1.54405505215420E-0001	
 1.15450000000000E+0003	 1.52525994648526E-0001	
 1.15650000000000E+0003	 1.50118984081633E-0001	
 1.15850000000000E+0003	 1.47395473514739E-0001	
 1.16050000000000E+0003	 1.44639962947846E-0001	
 1.16250000000000E+0003	 1.41991452380952E-0001	
 1.16450000000000E+0003	 1.39566941814059E-0001	
 1.16650000000000E+0003	 1.37420931247166E-0001	
 1.16850000000000E+0003	 1.35621420680272E-0001	
 1.17050000000000E+0003	 1.34097410113379E-0001	
 1.17250000000000E+0003	 1.32779899546485E-0001	
 1.17450000000000E+0003	 1.31527388979592E-0001	
 1.17650000000000E+0003	 1.30378878412698E-0001	
 1.17850000000000E+0003	 1.29418867845805E-0001	
 1.18050000000000E+0003	 1.28814857278912E-0001	
 1.18250000000000E+0003	 1.28616346712018E-0001	
 1.18450000000000E+0003	 1.28912336145125E-0001	
 1.18650000000000E+0003	 1.29741825578231E-0001	
 1.18850000000000E+0003	 1.31162815011338E-0001	
 1.19050000000000E+0003	 1.33118304444444E-0001	
 1.19250000000000E+0003	 1.35591793877551E-0001	
 1.19450000000000E+0003	 1.38493783310658E-0001	
 1.19650000000000E+0003	 1.41751272743764E-0001	
 1.19850000000000E+0003	 1.45191762176871E-0001	
 1.20050000000000E+0003	 1.48700251609977E-0001	
 1.20250000000000E+0003	 1.52123241043084E-0001	
 1.20450000000000E+0003	 1.55388230476190E-0001	
 1.20650000000000E+0003	 1.58413219909297E-0001	
 1.20850000000000E+0003	 1.61174209342404E-0001	
 1.21050000000000E+0003	 1.63638698775510E-0001	
 1.21250000000000E+0003	 1.65869188208617E-0001	
 1.21450000000000E+0003	 1.67851677641723E-0001	
 1.21650000000000E+0003	 1.69681667074830E-0001	
 1.21850000000000E+0003	 1.71534656507937E-0001	
 1.22050000000000E+0003	 1.73288145941043E-0001	
 1.22250000000000E+0003	 1.74548635374150E-0001	
 1.22450000000000E+0003	 1.75398124807256E-0001	
 1.22650000000000E+0003	 1.76128614240363E-0001	
 1.22850000000000E+0003	 1.76856603673469E-0001	
 1.23050000000000E+0003	 1.77531093106576E-0001	
 1.23250000000000E+0003	 1.78112082539683E-0001	
 1.23450000000000E+0003	 1.78520571972789E-0001	
 1.23650000000000E+0003	 1.78688061405896E-0001	
 1.23850000000000E+0003	 1.78529050839002E-0001	
 1.24050000000000E+0003	 1.78006540272109E-0001	
 1.24250000000000E+0003	 1.77098529705215E-0001	
 1.24450000000000E+0003	 1.75823519138322E-0001	
 1.24650000000000E+0003	 1.74242008571429E-0001	
 1.24850000000000E+0003	 1.72412998004535E-0001	
 1.25050000000000E+0003	 1.70381987437642E-0001	
 1.25250000000000E+0003	 1.68202476870748E-0001	
 1.25450000000000E+0003	 1.65939966303855E-0001	
 1.25650000000000E+0003	 1.63639955736961E-0001	
 1.25850000000000E+0003	 1.61291445170068E-0001	
 1.26050000000000E+0003	 1.58877434603175E-0001	
 1.26250000000000E+0003	 1.56437924036281E-0001	
 1.26450000000000E+0003	 1.53999413469388E-0001	
 1.26650000000000E+0003	 1.51618902902494E-0001	
 1.26850000000000E+0003	 1.49380392335601E-0001	
 1.27050000000000E+0003	 1.47355381768707E-0001	
 1.27250000000000E+0003	 1.45582871201814E-0001	
 1.27450000000000E+0003	 1.44053860634921E-0001	
 1.27650000000000E+0003	 1.42704350068027E-0001	
 1.27850000000000E+0003	 1.41502339501134E-0001	
 1.28050000000000E+0003	 1.40421828934240E-0001	
 1.28250000000000E+0003	 1.39395818367347E-0001	
 1.28450000000000E+0003	 1.38355807800454E-0001	
 1.28650000000000E+0003	 1.37315797233560E-0001	
 1.28850000000000E+0003	 1.36376786666667E-0001	
 1.29050000000000E+0003	 1.35645276099773E-0001	
 1.29250000000000E+0003	 1.35096265532880E-0001	
 1.29450000000000E+0003	 1.34683254965986E-0001	
 1.29650000000000E+0003	 1.34421244399093E-0001	
 1.29850000000000E+0003	 1.34369733832200E-0001	
 1.30050000000000E+0003	 1.34493723265306E-0001	
 1.30250000000000E+0003	 1.34698212698413E-0001	
 1.30450000000000E+0003	 1.34910702131519E-0001	
 1.30650000000000E+0003	 1.35115191564626E-0001	
 1.30850000000000E+0003	 1.35334180997732E-0001	
 1.31050000000000E+0003	 1.35545170430839E-0001	
 1.31250000000000E+0003	 1.35681659863946E-0001	
 1.31450000000000E+0003	 1.35781149297052E-0001	
 1.31650000000000E+0003	 1.35819638730159E-0001	
 1.31850000000000E+0003	 1.35728128163265E-0001	
 1.32050000000000E+0003	 1.35612117596372E-0001	
 1.32250000000000E+0003	 1.35493107029478E-0001	
 1.32450000000000E+0003	 1.35295096462585E-0001	
 1.32650000000000E+0003	 1.35006085895692E-0001	
 1.32850000000000E+0003	 1.34689575328798E-0001	
 1.33050000000000E+0003	 1.34368064761905E-0001	
 1.33250000000000E+0003	 1.34050554195011E-0001	
 1.33450000000000E+0003	 1.33585043628118E-0001	
 1.33650000000000E+0003	 1.32819033061224E-0001	
 1.33850000000000E+0003	 1.31767022494331E-0001	
 1.34050000000000E+0003	 1.30903011927438E-0001	
 1.34250000000000E+0003	 1.30409501360544E-0001	
 1.34450000000000E+0003	 1.29794990793651E-0001	
 1.34650000000000E+0003	 1.28901480226757E-0001	
 1.34850000000000E+0003	 1.27989469659864E-0001	
 1.35050000000000E+0003	 1.27271959092971E-0001	
 1.35250000000000E+0003	 1.26832448526077E-0001	
 1.35450000000000E+0003	 1.26632437959184E-0001	
 1.35650000000000E+0003	 1.26738427392290E-0001	
 1.35850000000000E+0003	 1.27083416825397E-0001	
 1.36050000000000E+0003	 1.27520906258503E-0001	
 1.36250000000000E+0003	 1.28357895691610E-0001	
 1.36450000000000E+0003	 1.30240385124717E-0001	
 1.36650000000000E+0003	 1.32917874557823E-0001	
 1.36850000000000E+0003	 1.35761363990930E-0001	
 1.37050000000000E+0003	 1.38240353424036E-0001	
 1.37250000000000E+0003	 1.40202842857143E-0001	
 1.37450000000000E+0003	 1.41866332290249E-0001	
 1.37650000000000E+0003	 1.43302821723356E-0001	
 1.37850000000000E+0003	 1.44393811156463E-0001	
 1.38050000000000E+0003	 1.45210300589569E-0001	
 1.38250000000000E+0003	 1.45886790022676E-0001	
 1.38450000000000E+0003	 1.46322279455782E-0001	
 1.38650000000000E+0003	 1.46293268888889E-0001	
 1.38850000000000E+0003	 1.46465758321995E-0001	
 1.39050000000000E+0003	 1.47087247755102E-0001	
 1.39250000000000E+0003	 1.47781737188209E-0001	
 1.39450000000000E+0003	 1.48231726621315E-0001	
 1.39650000000000E+0003	 1.48562216054422E-0001	
 1.39850000000000E+0003	 1.49094705487528E-0001	
 1.40050000000000E+0003	 1.49820694920635E-0001	
 1.40250000000000E+0003	 1.49927184353741E-0001	
 1.40450000000000E+0003	 1.49534173786848E-0001	
 1.40650000000000E+0003	 1.48868163219955E-0001	
 1.40850000000000E+0003	 1.48110152653061E-0001	
 1.41050000000000E+0003	 1.47295642086168E-0001	
 1.41250000000000E+0003	 1.46445631519274E-0001	
 1.41450000000000E+0003	 1.45554620952381E-0001	
 1.41650000000000E+0003	 1.44254110385488E-0001	
 1.41850000000000E+0003	 1.42643099818594E-0001	
 1.42050000000000E+0003	 1.41314589251701E-0001	
 1.42250000000000E+0003	 1.40281078684807E-0001	
 1.42450000000000E+0003	 1.39535568117914E-0001	
 1.42650000000000E+0003	 1.38617057551020E-0001	
 1.42850000000000E+0003	 1.37634046984127E-0001	
 1.43050000000000E+0003	 1.36910536417234E-0001	
 1.43250000000000E+0003	 1.36555025850340E-0001	
 1.43450000000000E+0003	 1.36488515283447E-0001	
 1.43650000000000E+0003	 1.36872004716553E-0001	
 1.43850000000000E+0003	 1.37886494149660E-0001	
 1.44050000000000E+0003	 1.39159483582766E-0001	
 1.44250000000000E+0003	 1.40801473015873E-0001	
 1.44450000000000E+0003	 1.41939962448980E-0001	
 1.44650000000000E+0003	 1.42791451882086E-0001	
 1.44850000000000E+0003	 1.43715441315193E-0001	
 1.45050000000000E+0003	 1.44634930748299E-0001	
 1.45250000000000E+0003	 1.45371920181406E-0001	
 1.45450000000000E+0003	 1.45264909614512E-0001	
 1.45650000000000E+0003	 1.43838399047619E-0001	
 1.45850000000000E+0003	 1.42094388480726E-0001	
 1.46050000000000E+0003	 1.41203377913832E-0001	
 1.46250000000000E+0003	 1.40623867346939E-0001	
 1.46450000000000E+0003	 1.38922356780045E-0001	
 1.46650000000000E+0003	 1.36633846213152E-0001	
 1.46850000000000E+0003	 1.34332335646259E-0001	
 1.47050000000000E+0003	 1.31720325079365E-0001	
 1.47250000000000E+0003	 1.28099814512472E-0001	
 1.47450000000000E+0003	 1.24534303945578E-0001	
 1.47650000000000E+0003	 1.22670793378685E-0001	
 1.47850000000000E+0003	 1.22050782811791E-0001	
 1.48050000000000E+0003	 1.21498772244898E-0001	
 1.48250000000000E+0003	 1.21366761678005E-0001	
 1.48450000000000E+0003	 1.21509751111111E-0001	
 1.48650000000000E+0003	 1.21957240544218E-0001	
 1.48850000000000E+0003	 1.22501229977324E-0001	
 1.49050000000000E+0003	 1.23914219410431E-0001	
 1.49250000000000E+0003	 1.26424208843537E-0001	
 1.49450000000000E+0003	 1.28848698276644E-0001	
 1.49650000000000E+0003	 1.31238187709751E-0001	
 1.49850000000000E+0003	 1.33784177142857E-0001	
 1.50050000000000E+0003	 1.36868666575964E-0001	
 1.50250000000000E+0003	 1.40212156009070E-0001	
 1.50450000000000E+0003	 1.42994645442177E-0001	
 1.50650000000000E+0003	 1.46073634875283E-0001	
 1.50850000000000E+0003	 1.49790124308390E-0001	
 1.51050000000000E+0003	 1.55271613741497E-0001	
 1.51250000000000E+0003	 1.61972103174603E-0001	
 1.51450000000000E+0003	 1.67418592607710E-0001	
 1.51650000000000E+0003	 1.71887082040816E-0001	
 1.51850000000000E+0003	 1.75626071473923E-0001	
 1.52050000000000E+0003	 1.78468060907029E-0001	
 1.52250000000000E+0003	 1.82218550340136E-0001	
 1.52450000000000E+0003	 1.86060539773243E-0001	
 1.52650000000000E+0003	 1.90726029206349E-0001	
 1.52850000000000E+0003	 1.95327518639456E-0001	
 1.53050000000000E+0003	 1.99242008072562E-0001	
 1.53250000000000E+0003	 2.02644497505669E-0001	
 1.53450000000000E+0003	 2.06222986938776E-0001	
 1.53650000000000E+0003	 2.08709976371882E-0001	
 1.53850000000000E+0003	 2.10552965804989E-0001	
 1.54050000000000E+0003	 2.12093455238095E-0001	
 1.54250000000000E+0003	 2.13022944671202E-0001	
 1.54450000000000E+0003	 2.14791934104308E-0001	
 1.54650000000000E+0003	 2.16454423537415E-0001	
 1.54850000000000E+0003	 2.16394912970522E-0001	
 1.55050000000000E+0003	 2.14838902403628E-0001	
 1.55250000000000E+0003	 2.12095891836735E-0001	
 1.55450000000000E+0003	 2.08327881269841E-0001	
 1.55650000000000E+0003	 2.03898370702948E-0001	
 1.55850000000000E+0003	 1.98460860136054E-0001	
 1.56050000000000E+0003	 1.92762849569161E-0001	
 1.56250000000000E+0003	 1.89077339002268E-0001	
 1.56450000000000E+0003	 1.87368328435374E-0001	
 1.56650000000000E+0003	 1.84671317868481E-0001	
 1.56850000000000E+0003	 1.81284307301587E-0001	
 1.57050000000000E+0003	 1.78053796734694E-0001	
 1.57250000000000E+0003	 1.75175286167800E-0001	
 1.57450000000000E+0003	 1.72675275600907E-0001	
 1.57650000000000E+0003	 1.69726265034014E-0001	
 1.57850000000000E+0003	 1.67019254467120E-0001	
 1.58050000000000E+0003	 1.66179743900227E-0001	
 1.58250000000000E+0003	 1.65667233333333E-0001	
 1.58450000000000E+0003	 1.64929222766440E-0001	
 1.58650000000000E+0003	 1.64535712199546E-0001	
 1.58850000000000E+0003	 1.64706201632653E-0001	
 1.59050000000000E+0003	 1.65351691065760E-0001	
 1.59250000000000E+0003	 1.66551680498866E-0001	
 1.59450000000000E+0003	 1.68109669931973E-0001	
 1.59650000000000E+0003	 1.70089659365079E-0001	
 1.59850000000000E+0003	 1.72326648798186E-0001	
 1.60050000000000E+0003	 1.74907638231293E-0001	
 1.60250000000000E+0003	 1.77731127664399E-0001	
 1.60450000000000E+0003	 1.81013117097506E-0001	
 1.60650000000000E+0003	 1.84656606530612E-0001	
 1.60850000000000E+0003	 1.88928595963719E-0001	
 1.61050000000000E+0003	 1.93852585396825E-0001	
 1.61250000000000E+0003	 1.99418574829932E-0001	
 1.61450000000000E+0003	 2.04916064263039E-0001	
 1.61650000000000E+0003	 2.11319053696145E-0001	
 1.61850000000000E+0003	 2.18469043129252E-0001	
 1.62050000000000E+0003	 2.25612032562358E-0001	
 1.62250000000000E+0003	 2.33989521995465E-0001	
 1.62450000000000E+0003	 2.42846511428571E-0001	
 1.62650000000000E+0003	 2.50889500861678E-0001	
 1.62850000000000E+0003	 2.59592490294785E-0001	
 1.63050000000000E+0003	 2.68117979727891E-0001	
 1.63250000000000E+0003	 2.75396469160998E-0001	
 1.63450000000000E+0003	 2.82082458594104E-0001	
 1.63650000000000E+0003	 2.88756448027211E-0001	
 1.63850000000000E+0003	 2.93786437460317E-0001	
 1.64050000000000E+0003	 2.98703926893424E-0001	
 1.64250000000000E+0003	 3.02970416326531E-0001	
 1.64450000000000E+0003	 3.05678405759637E-0001	
 1.64650000000000E+0003	 3.08031395192744E-0001	
 1.64850000000000E+0003	 3.10502884625850E-0001	
 1.65050000000000E+0003	 3.12497374058957E-0001	
 1.65250000000000E+0003	 3.13843863492063E-0001	
 1.65450000000000E+0003	 3.14921852925170E-0001	
 1.65650000000000E+0003	 3.14824842358277E-0001	
 1.65850000000000E+0003	 3.15469831791383E-0001	
 1.66050000000000E+0003	 3.13767321224490E-0001	
 1.66250000000000E+0003	 3.09980310657596E-0001	
 1.66450000000000E+0003	 3.05209300090703E-0001	
 1.66650000000000E+0003	 3.00323789523810E-0001	
 1.66850000000000E+0003	 2.95199778956916E-0001	
 1.67050000000000E+0003	 2.89409768390023E-0001	
 1.67250000000000E+0003	 2.83865757823129E-0001	
 1.67450000000000E+0003	 2.78889247256236E-0001	
 1.67650000000000E+0003	 2.73642236689342E-0001	
 1.67850000000000E+0003	 2.68198226122449E-0001	
 1.68050000000000E+0003	 2.63197715555556E-0001	
 1.68250000000000E+0003	 2.57861204988662E-0001	
 1.68450000000000E+0003	 2.51145694421769E-0001	
 1.68650000000000E+0003	 2.44295683854875E-0001	
 1.68850000000000E+0003	 2.39423173287982E-0001	
 1.69050000000000E+0003	 2.35155662721088E-0001	
 1.69250000000000E+0003	 2.29776652154195E-0001	
 1.69450000000000E+0003	 2.23467141587302E-0001	
 1.69650000000000E+0003	 2.15657131020408E-0001	
 1.69850000000000E+0003	 2.08207120453515E-0001	
 1.70050000000000E+0003	 2.01973609886621E-0001	
 1.70250000000000E+0003	 1.96087099319728E-0001	
 1.70450000000000E+0003	 1.91069088752834E-0001	
 1.70650000000000E+0003	 1.87012578185941E-0001	
 1.70850000000000E+0003	 1.82429067619048E-0001	
 1.71050000000000E+0003	 1.78238557052154E-0001	
 1.71250000000000E+0003	 1.74030046485261E-0001	
 1.71450000000000E+0003	 1.69492535918367E-0001	
 1.71650000000000E+0003	 1.64220525351474E-0001	
 1.71850000000000E+0003	 1.58974014784580E-0001	
 1.72050000000000E+0003	 1.55364504217687E-0001	
 1.72250000000000E+0003	 1.52772493650794E-0001	
 1.72450000000000E+0003	 1.50212483083900E-0001	
 1.72650000000000E+0003	 1.47616472517007E-0001	
 1.72850000000000E+0003	 1.45265461950113E-0001	
 1.73050000000000E+0003	 1.43300451383220E-0001	
 1.73250000000000E+0003	 1.41202940816327E-0001	
 1.73450000000000E+0003	 1.39744930249433E-0001	
 1.73650000000000E+0003	 1.39129919682540E-0001	
 1.73850000000000E+0003	 1.39399909115646E-0001	
 1.74050000000000E+0003	 1.40393398548753E-0001	
 1.74250000000000E+0003	 1.40175387981859E-0001	
 1.74450000000000E+0003	 1.39809877414966E-0001	
 1.74650000000000E+0003	 1.39250866848073E-0001	
 1.74850000000000E+0003	 1.37911856281179E-0001	
 1.75050000000000E+0003	 1.35798845714286E-0001	
 1.75250000000000E+0003	 1.33416335147392E-0001	
 1.75450000000000E+0003	 1.31022324580499E-0001	
 1.75650000000000E+0003	 1.28327814013605E-0001	
 1.75850000000000E+0003	 1.25061303446712E-0001	
 1.76050000000000E+0003	 1.21404292879819E-0001	
 1.76250000000000E+0003	 1.18130282312925E-0001	
 1.76450000000000E+0003	 1.14986771746032E-0001	
 1.76650000000000E+0003	 1.12150761179138E-0001	
 1.76850000000000E+0003	 1.09581750612245E-0001	
 1.77050000000000E+0003	 1.07002240045351E-0001	
 1.77250000000000E+0003	 1.04737229478458E-0001	
 1.77450000000000E+0003	 1.02730218911565E-0001	
 1.77650000000000E+0003	 1.01424708344671E-0001	
 1.77850000000000E+0003	 1.00781197777778E-0001	
 1.78050000000000E+0003	 9.97481872108844E-0002	
 1.78250000000000E+0003	 9.86936766439909E-0002	
 1.78450000000000E+0003	 9.76566660770975E-0002	
 1.78650000000000E+0003	 9.69531555102041E-0002	
 1.78850000000000E+0003	 9.60951449433107E-0002	
 1.79050000000000E+0003	 9.51126343764172E-0002	
 1.79250000000000E+0003	 9.42286238095238E-0002	
 1.79450000000000E+0003	 9.33241132426304E-0002	
 1.79650000000000E+0003	 9.26291026757370E-0002	
 1.79850000000000E+0003	 9.23940921088435E-0002	
 1.80050000000000E+0003	 9.18365815419501E-0002	
 1.80250000000000E+0003	 9.12050709750567E-0002	
 1.80450000000000E+0003	 9.08095604081633E-0002	
 1.80650000000000E+0003	 9.05300498412698E-0002	
 1.80850000000000E+0003	 9.00635392743764E-0002	
 1.81050000000000E+0003	 8.95175287074830E-0002	
 1.81250000000000E+0003	 8.90470181405896E-0002	
 1.81450000000000E+0003	 8.86820075736961E-0002	
 1.81650000000000E+0003	 8.83764970068027E-0002	
 1.81850000000000E+0003	 8.80554864399093E-0002	
 1.82050000000000E+0003	 8.76709758730159E-0002	
 1.82250000000000E+0003	 8.71899653061224E-0002	
 1.82450000000000E+0003	 8.66199547392290E-0002	
 1.82650000000000E+0003	 8.62194441723356E-0002	
 1.82850000000000E+0003	 8.56029336054422E-0002	
 1.83050000000000E+0003	 8.54134230385488E-0002	
 1.83250000000000E+0003	 8.51554124716553E-0002	
 1.83450000000000E+0003	 8.49344019047619E-0002	
 1.83650000000000E+0003	 8.49098913378685E-0002	
 1.83850000000000E+0003	 8.46653807709751E-0002	
 1.84050000000000E+0003	 8.43333702040816E-0002	
 1.84250000000000E+0003	 8.37788596371882E-0002	
 1.84450000000000E+0003	 8.33993490702948E-0002	
 1.84650000000000E+0003	 8.29253385034014E-0002	
 1.84850000000000E+0003	 8.26758279365079E-0002	
 1.85050000000000E+0003	 8.30093173696145E-0002	
 1.85250000000000E+0003	 8.30233068027211E-0002	
 1.85450000000000E+0003	 8.29092962358277E-0002	
 1.85650000000000E+0003	 8.26827856689342E-0002	
 1.85850000000000E+0003	 8.24442751020408E-0002	
 1.86050000000000E+0003	 8.22087645351474E-0002	
 1.86250000000000E+0003	 8.20247539682540E-0002	
 1.86450000000000E+0003	 8.17932434013605E-0002	
 1.86650000000000E+0003	 8.13707328344671E-0002	
 1.86850000000000E+0003	 8.09367222675737E-0002	
 1.87050000000000E+0003	 8.07912117006803E-0002	
 1.87250000000000E+0003	 8.07242011337868E-0002	
 1.87450000000000E+0003	 8.09056905668934E-0002	
 1.87650000000000E+0003	 8.09811800000000E-0002	
 1.87850000000000E+0003	 8.08491694331066E-0002	
 1.88050000000000E+0003	 8.07121588662132E-0002	
 1.88250000000000E+0003	 8.05791482993197E-0002	
 1.88450000000000E+0003	 8.04336377324263E-0002	
 1.88650000000000E+0003	 8.02536271655329E-0002	
 1.88850000000000E+0003	 8.00011165986395E-0002	
 1.89050000000000E+0003	 7.99061060317460E-0002	
 1.89250000000000E+0003	 7.97485954648526E-0002	
 1.89450000000000E+0003	 7.96480848979592E-0002	
 1.89650000000000E+0003	 7.96675743310658E-0002	
 1.89850000000000E+0003	 7.96060637641723E-0002	
 1.90050000000000E+0003	 7.95855531972789E-0002	
 1.90250000000000E+0003	 7.95245426303855E-0002	
 1.90450000000000E+0003	 7.94260320634921E-0002	
 1.90650000000000E+0003	 7.92825214965986E-0002	
 1.90850000000000E+0003	 7.90965109297052E-0002	
 1.91050000000000E+0003	 7.89845003628118E-0002	
 1.91250000000000E+0003	 7.89534897959184E-0002	
 1.91450000000000E+0003	 7.89299792290249E-0002	
 1.91650000000000E+0003	 7.87629686621315E-0002	
 1.91850000000000E+0003	 7.86759580952381E-0002	
 1.92050000000000E+0003	 7.84714475283447E-0002	
 1.92250000000000E+0003	 7.82534369614512E-0002	
 1.92450000000000E+0003	 7.83919263945578E-0002	
 1.92650000000000E+0003	 7.84539158276644E-0002	
 1.92850000000000E+0003	 7.85554052607710E-0002	
 1.93050000000000E+0003	 7.85668946938776E-0002	
 1.93250000000000E+0003	 7.85123841269841E-0002	
 1.93450000000000E+0003	 7.84648735600907E-0002	
 1.93650000000000E+0003	 7.84308629931973E-0002	
 1.93850000000000E+0003	 7.83913524263039E-0002	
 1.94050000000000E+0003	 7.82213418594104E-0002	
 1.94250000000000E+0003	 7.80578312925170E-0002	
 1.94450000000000E+0003	 7.80238207256236E-0002	
 1.94650000000000E+0003	 7.80228101587302E-0002	
 1.94850000000000E+0003	 7.81712995918367E-0002	
 1.95050000000000E+0003	 7.82402890249433E-0002	
 1.95250000000000E+0003	 7.82502784580499E-0002	
 1.95450000000000E+0003	 7.82162678911565E-0002	
 1.95650000000000E+0003	 7.81997573242630E-0002	
 1.95850000000000E+0003	 7.81972467573696E-0002	
 1.96050000000000E+0003	 7.81927361904762E-0002	
 1.96250000000000E+0003	 7.81782256235828E-0002	
 1.96450000000000E+0003	 7.81172150566893E-0002	
 1.96650000000000E+0003	 7.80062044897959E-0002	
 1.96850000000000E+0003	 7.79886939229025E-0002	
 1.97050000000000E+0003	 7.80311833560091E-0002	
 1.97250000000000E+0003	 7.81111727891156E-0002	
 1.97450000000000E+0003	 7.81601622222222E-0002	
 1.97650000000000E+0003	 7.81611516553288E-0002	
 1.97850000000000E+0003	 7.81596410884354E-0002	
 1.98050000000000E+0003	 7.81616305215420E-0002	
 1.98250000000000E+0003	 7.81656199546485E-0002	
 1.98450000000000E+0003	 7.81636093877551E-0002	
 1.98650000000000E+0003	 7.81335988208617E-0002	
 1.98850000000000E+0003	 7.80810882539683E-0002	
 1.99050000000000E+0003	 7.79775776870748E-0002	
 1.99250000000000E+0003	 7.79540671201814E-0002	
 1.99450000000000E+0003	 7.80225565532880E-0002	
 1.99650000000000E+0003	 7.81010459863946E-0002	
 1.99850000000000E+0003	 7.82175354195011E-0002	
 2.00050000000000E+0003	 7.82555248526077E-0002	
 2.00250000000000E+0003	 7.82835142857143E-0002	
 2.00450000000000E+0003	 7.83105037188209E-0002	
 2.00650000000000E+0003	 7.83299931519274E-0002	
 2.00850000000000E+0003	 7.83474825850340E-0002	
 2.01050000000000E+0003	 7.83819720181406E-0002	
 2.01250000000000E+0003	 7.84194614512472E-0002	
 2.01450000000000E+0003	 7.84189508843537E-0002	
 2.01650000000000E+0003	 7.83729403174603E-0002	
 2.01850000000000E+0003	 7.83844297505669E-0002	
 2.02050000000000E+0003	 7.84484191836735E-0002	
 2.02250000000000E+0003	 7.85524086167800E-0002	
 2.02450000000000E+0003	 7.86323980498866E-0002	
 2.02650000000000E+0003	 7.86838874829932E-0002	
 2.02850000000000E+0003	 7.87308769160998E-0002	
 2.03050000000000E+0003	 7.87748663492063E-0002	
 2.03250000000000E+0003	 7.88093557823129E-0002	
 2.03450000000000E+0003	 7.88458452154195E-0002	
 2.03650000000000E+0003	 7.88778346485261E-0002	
 2.03850000000000E+0003	 7.89033240816327E-0002	
 2.04050000000000E+0003	 7.88993135147392E-0002	
 2.04250000000000E+0003	 7.89128029478458E-0002	
 2.04450000000000E+0003	 7.89492923809524E-0002	
 2.04650000000000E+0003	 7.90067818140590E-0002	
 2.04850000000000E+0003	 7.90572712471655E-0002	
 2.05050000000000E+0003	 7.90927606802721E-0002	
 2.05250000000000E+0003	 7.91202501133787E-0002	
 2.05450000000000E+0003	 7.91482395464853E-0002	
 2.05650000000000E+0003	 7.91662289795918E-0002	
 2.05850000000000E+0003	 7.91807184126984E-0002	
 2.06050000000000E+0003	 7.91887078458050E-0002	
 2.06250000000000E+0003	 7.91831972789116E-0002	
 2.06450000000000E+0003	 7.91486867120181E-0002	
 2.06650000000000E+0003	 7.91551761451247E-0002	
 2.06850000000000E+0003	 7.91881655782313E-0002	
 2.07050000000000E+0003	 7.92396550113379E-0002	
 2.07250000000000E+0003	 7.92696444444444E-0002	
 2.07450000000000E+0003	 7.92811338775510E-0002	
 2.07650000000000E+0003	 7.92846233106576E-0002	
 2.07850000000000E+0003	 7.92866127437642E-0002	
 2.08050000000000E+0003	 7.92921021768707E-0002	
 2.08250000000000E+0003	 7.92980916099773E-0002	
 2.08450000000000E+0003	 7.93040810430839E-0002	
 2.08650000000000E+0003	 7.93070704761905E-0002	
 2.08850000000000E+0003	 7.92890599092971E-0002	
 2.09050000000000E+0003	 7.92785493424036E-0002	
 2.09250000000000E+0003	 7.92875387755102E-0002	
 2.09450000000000E+0003	 7.93015282086168E-0002	
 2.09650000000000E+0003	 7.93105176417234E-0002	
 2.09850000000000E+0003	 7.93110070748299E-0002	
 2.10050000000000E+0003	 7.93024965079365E-0002	
 2.10250000000000E+0003	 7.92944859410431E-0002	
 2.10450000000000E+0003	 7.92844753741497E-0002	
 2.10650000000000E+0003	 7.92754648072562E-0002	
 2.10850000000000E+0003	 7.92634542403628E-0002	
 2.11050000000000E+0003	 7.92544436734694E-0002	
 2.11250000000000E+0003	 7.92404331065760E-0002	
 2.11450000000000E+0003	 7.92174225396825E-0002	
 2.11650000000000E+0003	 7.91979119727891E-0002	
 2.11850000000000E+0003	 7.91854014058957E-0002	
 2.12050000000000E+0003	 7.91703908390023E-0002	
 2.12250000000000E+0003	 7.91533802721088E-0002	
 2.12450000000000E+0003	 7.91338697052154E-0002	
 2.12650000000000E+0003	 7.91098591383220E-0002	
 2.12850000000000E+0003	 7.90878485714286E-0002	
 2.13050000000000E+0003	 7.90613380045351E-0002	
 2.13250000000000E+0003	 7.90313274376417E-0002	
 2.13450000000000E+0003	 7.89933168707483E-0002	
 2.13650000000000E+0003	 7.89558063038549E-0002	
 2.13850000000000E+0003	 7.89202957369615E-0002	
 2.14050000000000E+0003	 7.88937851700680E-0002	
 2.14250000000000E+0003	 7.88682746031746E-0002	
 2.14450000000000E+0003	 7.88362640362812E-0002	
 2.14650000000000E+0003	 7.87982534693878E-0002	
 2.14850000000000E+0003	 7.87642429024943E-0002	
 2.15050000000000E+0003	 7.87252323356009E-0002	
 2.15250000000000E+0003	 7.86852217687075E-0002	
 2.15450000000000E+0003	 7.86442112018141E-0002	
 2.15650000000000E+0003	 7.86062006349206E-0002	
 2.15850000000000E+0003	 7.85621900680272E-0002	
 2.16050000000000E+0003	 7.85166795011338E-0002	
 2.16250000000000E+0003	 7.84656689342404E-0002	
 2.16450000000000E+0003	 7.84191583673469E-0002	
 2.16650000000000E+0003	 7.83761478004535E-0002	
 2.16850000000000E+0003	 7.83481372335601E-0002	
 2.17050000000000E+0003	 7.83026266666667E-0002	
 2.17250000000000E+0003	 7.82421160997732E-0002	
 2.17450000000000E+0003	 7.81801055328798E-0002	
 2.17650000000000E+0003	 7.81280949659864E-0002	
 2.17850000000000E+0003	 7.80735843990930E-0002	
 2.18050000000000E+0003	 7.80250738321995E-0002	
 2.18250000000000E+0003	 7.79730632653061E-0002	
 2.18450000000000E+0003	 7.79220526984127E-0002	
 2.18650000000000E+0003	 7.78660421315193E-0002	
 2.18850000000000E+0003	 7.78155315646259E-0002	
 2.19050000000000E+0003	 7.77600209977324E-0002	
 2.19250000000000E+0003	 7.77050104308390E-0002	
 2.19450000000000E+0003	 7.76509998639456E-0002	
 2.19650000000000E+0003	 7.76039892970522E-0002	
 2.19850000000000E+0003	 7.75524787301587E-0002	
 2.20050000000000E+0003	 7.75019681632653E-0002	
 2.20250000000000E+0003	 7.74499575963719E-0002	
 2.20450000000000E+0003	 7.74014470294785E-0002	
 2.20650000000000E+0003	 7.73489364625850E-0002	
 2.20850000000000E+0003	 7.73039258956916E-0002	
 2.21050000000000E+0003	 7.72614153287982E-0002	
 2.21250000000000E+0003	 7.72234047619048E-0002	
 2.21450000000000E+0003	 7.71833941950113E-0002	
 2.21650000000000E+0003	 7.71438836281179E-0002	
 2.21850000000000E+0003	 7.70988730612245E-0002	
 2.22050000000000E+0003	 7.70568624943311E-0002	
 2.22250000000000E+0003	 7.70143519274376E-0002	
 2.22450000000000E+0003	 7.69733413605442E-0002	
 2.22650000000000E+0003	 7.69318307936508E-0002	
 2.22850000000000E+0003	 7.68968202267574E-0002	
 2.23050000000000E+0003	 7.68633096598639E-0002	
 2.23250000000000E+0003	 7.68317990929705E-0002	
 2.23450000000000E+0003	 7.67992885260771E-0002	
 2.23650000000000E+0003	 7.67712779591837E-0002	
 2.23850000000000E+0003	 7.67447673922902E-0002	
 2.24050000000000E+0003	 7.67222568253968E-0002	
 2.24250000000000E+0003	 7.66992462585034E-0002	
 2.24450000000000E+0003	 7.66802356916100E-0002	
 2.24650000000000E+0003	 7.66622251247166E-0002	
 2.24850000000000E+0003	 7.66417145578231E-0002	
 2.25050000000000E+0003	 7.66232039909297E-0002	
 2.25250000000000E+0003	 7.66091934240363E-0002	
 2.25450000000000E+0003	 7.65931828571429E-0002	
 2.25650000000000E+0003	 7.65806722902494E-0002	
 2.25850000000000E+0003	 7.65666617233560E-0002	
 2.26050000000000E+0003	 7.65476511564626E-0002	
 2.26250000000000E+0003	 7.65326405895692E-0002	
 2.26450000000000E+0003	 7.65286300226757E-0002	
 2.26650000000000E+0003	 7.65201194557823E-0002	
 2.26850000000000E+0003	 7.65101088888889E-0002	
 2.27050000000000E+0003	 7.64975983219955E-0002	
 2.27250000000000E+0003	 7.64840877551020E-0002	
 2.27450000000000E+0003	 7.64710771882086E-0002	
 2.27650000000000E+0003	 7.64605666213152E-0002	
 2.27850000000000E+0003	 7.64440560544218E-0002	
 2.28050000000000E+0003	 7.64255454875283E-0002	
 2.28250000000000E+0003	 7.64115349206349E-0002	
 2.28450000000000E+0003	 7.64085243537415E-0002	
 2.28650000000000E+0003	 7.64070137868481E-0002	
 2.28850000000000E+0003	 7.64030032199546E-0002	
 2.29050000000000E+0003	 7.63939926530612E-0002	
 2.29250000000000E+0003	 7.63849820861678E-0002	
 2.29450000000000E+0003	 7.63719715192744E-0002	
 2.29650000000000E+0003	 7.63659609523810E-0002	
 2.29850000000000E+0003	 7.63679503854875E-0002	
 2.30050000000000E+0003	 7.63824398185941E-0002	
 2.30250000000000E+0003	 7.64079292517007E-0002	
 2.30450000000000E+0003	 7.64339186848073E-0002	
 2.30650000000000E+0003	 7.64459081179138E-0002	
 2.30850000000000E+0003	 7.64683975510204E-0002	
 2.31050000000000E+0003	 7.64973869841270E-0002	
 2.31250000000000E+0003	 7.65178764172336E-0002	
 2.31450000000000E+0003	 7.65523658503401E-0002	
 2.31650000000000E+0003	 7.66148552834467E-0002	
 2.31850000000000E+0003	 7.66488447165533E-0002	
 2.32050000000000E+0003	 7.66253341496599E-0002	
 2.32250000000000E+0003	 7.65603235827664E-0002	
 2.32450000000000E+0003	 7.65518130158730E-0002	
 2.32650000000000E+0003	 7.66353024489796E-0002	
 2.32850000000000E+0003	 7.66822918820862E-0002	
 2.33050000000000E+0003	 7.66187813151927E-0002	
 2.33250000000000E+0003	 7.66057707482993E-0002	
 2.33450000000000E+0003	 7.67412601814059E-0002	
 2.33650000000000E+0003	 7.68812496145125E-0002	
 2.33850000000000E+0003	 7.69297390476190E-0002	
 2.34050000000000E+0003	 7.69352284807256E-0002	
 2.34250000000000E+0003	 7.68907179138322E-0002	
 2.34450000000000E+0003	 7.66937073469388E-0002	
 2.34650000000000E+0003	 7.65946967800454E-0002	
 2.34850000000000E+0003	 7.68886862131519E-0002	
 2.35050000000000E+0003	 7.70331756462585E-0002	
 2.35250000000000E+0003	 7.69646650793651E-0002	
 2.35450000000000E+0003	 7.69691545124717E-0002	
 2.35650000000000E+0003	 7.70481439455782E-0002	
 2.35850000000000E+0003	 7.71026333786848E-0002	
 2.36050000000000E+0003	 7.71156228117914E-0002	
 2.36250000000000E+0003	 7.71476122448980E-0002	
 2.36450000000000E+0003	 7.71636016780045E-0002	
 2.36650000000000E+0003	 7.71840911111111E-0002	
 2.36850000000000E+0003	 7.72390805442177E-0002	
 2.37050000000000E+0003	 7.73170699773243E-0002	
 2.37250000000000E+0003	 7.74300594104308E-0002	
 2.37450000000000E+0003	 7.75495488435374E-0002	
 2.37650000000000E+0003	 7.76110382766440E-0002	
 2.37850000000000E+0003	 7.75790277097506E-0002	
 2.38050000000000E+0003	 7.75250171428571E-0002	
 2.38250000000000E+0003	 7.75425065759637E-0002	
 2.38450000000000E+0003	 7.76519960090703E-0002	
 2.38650000000000E+0003	 7.78104854421769E-0002	
 2.38850000000000E+0003	 7.79634748752834E-0002	
 2.39050000000000E+0003	 7.80864643083900E-0002	
 2.39250000000000E+0003	 7.81799537414966E-0002	
 2.39450000000000E+0003	 7.82629431746032E-0002	
 2.39650000000000E+0003	 7.83444326077098E-0002	
 2.39850000000000E+0003	 7.84244220408163E-0002	
 2.40050000000000E+0003	 7.85029114739229E-0002	
 2.40250000000000E+0003	 7.85829009070295E-0002	
 2.40450000000000E+0003	 7.86668903401361E-0002	
 2.40650000000000E+0003	 7.87563797732426E-0002	
 2.40850000000000E+0003	 7.88468692063492E-0002	
 2.41050000000000E+0003	 7.89373586394558E-0002	
 2.41250000000000E+0003	 7.90308480725624E-0002	
 2.41450000000000E+0003	 7.91308375056689E-0002	
 2.41650000000000E+0003	 7.92318269387755E-0002	
 2.41850000000000E+0003	 7.93333163718821E-0002	
 2.42050000000000E+0003	 7.94363058049887E-0002	
 2.42250000000000E+0003	 7.95397952380952E-0002	
 2.42450000000000E+0003	 7.96482846712018E-0002	
 2.42650000000000E+0003	 7.97612741043084E-0002	
 2.42850000000000E+0003	 7.98757635374150E-0002	
 2.43050000000000E+0003	 7.99862529705215E-0002	
 2.43250000000000E+0003	 8.01012424036281E-0002	
 2.43450000000000E+0003	 8.02222318367347E-0002	
 2.43650000000000E+0003	 8.03457212698413E-0002	
 2.43850000000000E+0003	 8.04682107029478E-0002	
 2.44050000000000E+0003	 8.05937001360544E-0002	
 2.44250000000000E+0003	 8.07211895691610E-0002	
 2.44450000000000E+0003	 8.08471790022676E-0002	
 2.44650000000000E+0003	 8.09706684353741E-0002	
 2.44850000000000E+0003	 8.11006578684807E-0002	
 2.45050000000000E+0003	 8.12346473015873E-0002	
 2.45250000000000E+0003	 8.13746367346939E-0002	
 2.45450000000000E+0003	 8.15146261678005E-0002	
 2.45650000000000E+0003	 8.16531156009070E-0002	
 2.45850000000000E+0003	 8.17941050340136E-0002	
 2.46050000000000E+0003	 8.19405944671202E-0002	
 2.46250000000000E+0003	 8.20890839002268E-0002	
 2.46450000000000E+0003	 8.22420733333333E-0002	
 2.46650000000000E+0003	 8.23965627664399E-0002	
 2.46850000000000E+0003	 8.25530521995465E-0002	
 2.47050000000000E+0003	 8.27110416326531E-0002	
 2.47250000000000E+0003	 8.28675310657596E-0002	
 2.47450000000000E+0003	 8.30280204988662E-0002	
 2.47650000000000E+0003	 8.31950099319728E-0002	
 2.47850000000000E+0003	 8.33584993650794E-0002	
 2.48050000000000E+0003	 8.35244887981859E-0002	
 2.48250000000000E+0003	 8.36914782312925E-0002	
 2.48450000000000E+0003	 8.38634676643991E-0002	
 2.48650000000000E+0003	 8.40344570975057E-0002	
 2.48850000000000E+0003	 8.42059465306122E-0002	
 2.49050000000000E+0003	 8.43809359637188E-0002	
 2.49250000000000E+0003	 8.45544253968254E-0002	
 2.49450000000000E+0003	 8.47279148299320E-0002	
 2.49650000000000E+0003	 8.49059042630385E-0002	
 2.49850000000000E+0003	 8.50878936961451E-0002	
 2.50050000000000E+0003	 8.52688831292517E-0002	
 2.50250000000000E+0003	 8.54508725623583E-0002	
 2.50450000000000E+0003	 8.56363619954649E-0002	
 2.50650000000000E+0003	 8.58213514285714E-0002	
 2.50850000000000E+0003	 8.60008408616780E-0002	
 2.51050000000000E+0003	 8.61798302947846E-0002	
 2.51250000000000E+0003	 8.63578197278912E-0002	
 2.51450000000000E+0003	 8.65368091609977E-0002	
 2.51650000000000E+0003	 8.67157985941043E-0002	
 2.51850000000000E+0003	 8.68947880272109E-0002	
 2.52050000000000E+0003	 8.70607774603175E-0002	
 2.52250000000000E+0003	 8.72227668934240E-0002	
 2.52450000000000E+0003	 8.73857563265306E-0002	
 2.52650000000000E+0003	 8.75482457596372E-0002	
 2.52850000000000E+0003	 8.77057351927438E-0002	
 2.53050000000000E+0003	 8.78607246258503E-0002	
 2.53250000000000E+0003	 8.80137140589569E-0002	
 2.53450000000000E+0003	 8.81637034920635E-0002	
 2.53650000000000E+0003	 8.83066929251701E-0002	
 2.53850000000000E+0003	 8.84461823582766E-0002	
 2.54050000000000E+0003	 8.85811717913832E-0002	
 2.54250000000000E+0003	 8.87146612244898E-0002	
 2.54450000000000E+0003	 8.88401506575964E-0002	
 2.54650000000000E+0003	 8.89656400907029E-0002	
 2.54850000000000E+0003	 8.90871295238095E-0002	
 2.55050000000000E+0003	 8.92061189569161E-0002	
 2.55250000000000E+0003	 8.93236083900227E-0002	
 2.55450000000000E+0003	 8.94390978231293E-0002	
 2.55650000000000E+0003	 8.95490872562358E-0002	
 2.55850000000000E+0003	 8.96625766893424E-0002	
 2.56050000000000E+0003	 8.97760661224490E-0002	
 2.56250000000000E+0003	 8.98915555555556E-0002	
 2.56450000000000E+0003	 9.00045449886621E-0002	
 2.56650000000000E+0003	 9.01215344217687E-0002	
 2.56850000000000E+0003	 9.02425238548753E-0002	
 2.57050000000000E+0003	 9.03640132879819E-0002	
 2.57250000000000E+0003	 9.04870027210884E-0002	
 2.57450000000000E+0003	 9.06194921541950E-0002	
 2.57650000000000E+0003	 9.07624815873016E-0002	
 2.57850000000000E+0003	 9.09169710204082E-0002	
 2.58050000000000E+0003	 9.10789604535147E-0002	
 2.58250000000000E+0003	 9.12434498866213E-0002	
 2.58450000000000E+0003	 9.14154393197279E-0002	
 2.58650000000000E+0003	 9.15939287528345E-0002	
 2.58850000000000E+0003	 9.17769181859410E-0002	
 2.59050000000000E+0003	 9.19679076190476E-0002	
 2.59250000000000E+0003	 9.21608970521542E-0002	
 2.59450000000000E+0003	 9.23573864852608E-0002	
 2.59650000000000E+0003	 9.25583759183673E-0002	
 2.59850000000000E+0003	 9.27653653514739E-0002	
 2.60050000000000E+0003	 9.29733547845805E-0002	
 2.60250000000000E+0003	 9.31793442176871E-0002	
 2.60450000000000E+0003	 9.33873336507937E-0002	
 2.60650000000000E+0003	 9.36008230839002E-0002	
 2.60850000000000E+0003	 9.38098125170068E-0002	
 2.61050000000000E+0003	 9.40173019501134E-0002	
 2.61250000000000E+0003	 9.42227913832200E-0002	
 2.61450000000000E+0003	 9.44232808163265E-0002	
 2.61650000000000E+0003	 9.46212702494331E-0002	
 2.61850000000000E+0003	 9.48247596825397E-0002	
 2.62050000000000E+0003	 9.50272491156463E-0002	
 2.62250000000000E+0003	 9.52267385487528E-0002	
 2.62450000000000E+0003	 9.54252279818594E-0002	
 2.62650000000000E+0003	 9.56247174149660E-0002	
 2.62850000000000E+0003	 9.58242068480726E-0002	
 2.63050000000000E+0003	 9.60251962811791E-0002	
 2.63250000000000E+0003	 9.62201857142857E-0002	
 2.63450000000000E+0003	 9.64136751473923E-0002	
 2.63650000000000E+0003	 9.66086645804989E-0002	
 2.63850000000000E+0003	 9.68061540136054E-0002	
 2.64050000000000E+0003	 9.69966434467120E-0002	
 2.64250000000000E+0003	 9.71886328798186E-0002	
 2.64450000000000E+0003	 9.73791223129252E-0002	
 2.64650000000000E+0003	 9.75721117460317E-0002	
 2.64850000000000E+0003	 9.77686011791383E-0002	
 2.65050000000000E+0003	 9.79680906122449E-0002	
 2.65250000000000E+0003	 9.81635800453515E-0002	
 2.65450000000000E+0003	 9.83575694784580E-0002	
 2.65650000000000E+0003	 9.85515589115646E-0002	
 2.65850000000000E+0003	 9.87530483446712E-0002	
 2.66050000000000E+0003	 9.89555377777778E-0002	
 2.66250000000000E+0003	 9.91625272108844E-0002	
 2.66450000000000E+0003	 9.93730166439909E-0002	
 2.66650000000000E+0003	 9.95850060770975E-0002	
 2.66850000000000E+0003	 9.97949955102041E-0002	
 2.67050000000000E+0003	 1.00005484943311E-0001	
 2.67250000000000E+0003	 1.00220974376417E-0001	
 2.67450000000000E+0003	 1.00443963809524E-0001	
 2.67650000000000E+0003	 1.00667453242630E-0001	
 2.67850000000000E+0003	 1.00897942675737E-0001	
 2.68050000000000E+0003	 1.01125932108844E-0001	
 2.68250000000000E+0003	 1.01344421541950E-0001	
 2.68450000000000E+0003	 1.01558410975057E-0001	
 2.68650000000000E+0003	 1.01784400408163E-0001	
 2.68850000000000E+0003	 1.02014389841270E-0001	
 2.69050000000000E+0003	 1.02247379274376E-0001	
 2.69250000000000E+0003	 1.02479868707483E-0001	
 2.69450000000000E+0003	 1.02718858140590E-0001	
 2.69650000000000E+0003	 1.02968347573696E-0001	
 2.69850000000000E+0003	 1.03226837006803E-0001	
 2.70050000000000E+0003	 1.03484826439909E-0001	
 2.70250000000000E+0003	 1.03746315873016E-0001	
 2.70450000000000E+0003	 1.04017805306122E-0001	
 2.70650000000000E+0003	 1.04304294739229E-0001	
 2.70850000000000E+0003	 1.04600284172336E-0001	
 2.71050000000000E+0003	 1.04903773605442E-0001	
 2.71250000000000E+0003	 1.05210763038549E-0001	
 2.71450000000000E+0003	 1.05524252471655E-0001	
 2.71650000000000E+0003	 1.05844241904762E-0001	
 2.71850000000000E+0003	 1.06167231337868E-0001	
 2.72050000000000E+0003	 1.06497720770975E-0001	
 2.72250000000000E+0003	 1.06833210204082E-0001	
 2.72450000000000E+0003	 1.07166699637188E-0001	
 2.72650000000000E+0003	 1.07497189070295E-0001	
 2.72850000000000E+0003	 1.07799678503401E-0001	
 2.73050000000000E+0003	 1.08090167936508E-0001	
 2.73250000000000E+0003	 1.08386657369615E-0001	
 2.73450000000000E+0003	 1.08678646802721E-0001	
 2.73650000000000E+0003	 1.08966636235828E-0001	
 2.73850000000000E+0003	 1.09243125668934E-0001	
 2.74050000000000E+0003	 1.09505115102041E-0001	
 2.74250000000000E+0003	 1.09760104535147E-0001	
 2.74450000000000E+0003	 1.10015093968254E-0001	
 2.74650000000000E+0003	 1.10277583401361E-0001	
 2.74850000000000E+0003	 1.10534572834467E-0001	
 2.75050000000000E+0003	 1.10777562267574E-0001	
 2.75250000000000E+0003	 1.11018051700680E-0001	
 2.75450000000000E+0003	 1.11270541133787E-0001	
 2.75650000000000E+0003	 1.11531030566893E-0001	
 2.75850000000000E+0003	 1.11793020000000E-0001	
 2.76050000000000E+0003	 1.12063509433107E-0001	
 2.76250000000000E+0003	 1.12341998866213E-0001	
 2.76450000000000E+0003	 1.12624488299320E-0001	
 2.76650000000000E+0003	 1.12910477732426E-0001	
 2.76850000000000E+0003	 1.13199467165533E-0001	
 2.77050000000000E+0003	 1.13496456598639E-0001	
 2.77250000000000E+0003	 1.13808446031746E-0001	
 2.77450000000000E+0003	 1.14137435464853E-0001	
 2.77650000000000E+0003	 1.14455424897959E-0001	
 2.77850000000000E+0003	 1.14765414331066E-0001	
 2.78050000000000E+0003	 1.15090903764172E-0001	
 2.78250000000000E+0003	 1.15437393197279E-0001	
 2.78450000000000E+0003	 1.15797382630385E-0001	
 2.78650000000000E+0003	 1.16169372063492E-0001	
 2.78850000000000E+0003	 1.16563861496599E-0001	
 2.79050000000000E+0003	 1.16953350929705E-0001	
 2.79250000000000E+0003	 1.17327840362812E-0001	
 2.79450000000000E+0003	 1.17714829795918E-0001	
 2.79650000000000E+0003	 1.18126819229025E-0001	
 2.79850000000000E+0003	 1.18553308662132E-0001	
 2.80050000000000E+0003	 1.18959798095238E-0001	
 2.80250000000000E+0003	 1.19363787528345E-0001	
 2.80450000000000E+0003	 1.19788276961451E-0001	
 2.80650000000000E+0003	 1.20230266394558E-0001	
 2.80850000000000E+0003	 1.20696255827664E-0001	
 2.81050000000000E+0003	 1.21173245260771E-0001	
 2.81250000000000E+0003	 1.21630234693878E-0001	
 2.81450000000000E+0003	 1.22094724126984E-0001	
 2.81650000000000E+0003	 1.22583213560091E-0001	
 2.81850000000000E+0003	 1.23082202993197E-0001	
 2.82050000000000E+0003	 1.23595192426304E-0001	
 2.82250000000000E+0003	 1.24127181859410E-0001	
 2.82450000000000E+0003	 1.24673671292517E-0001	
 2.82650000000000E+0003	 1.25236160725624E-0001	
 2.82850000000000E+0003	 1.25825650158730E-0001	
 2.83050000000000E+0003	 1.26454139591837E-0001	
 2.83250000000000E+0003	 1.27125129024943E-0001	
 2.83450000000000E+0003	 1.27856118458050E-0001	
 2.83650000000000E+0003	 1.28681607891156E-0001	
 2.83850000000000E+0003	 1.29634597324263E-0001	
 2.84050000000000E+0003	 1.30691586757370E-0001	
 2.84250000000000E+0003	 1.31938576190476E-0001	
 2.84450000000000E+0003	 1.33523565623583E-0001	
 2.84650000000000E+0003	 1.35474055056689E-0001	
 2.84850000000000E+0003	 1.37683544489796E-0001	
 2.85050000000000E+0003	 1.39921533922902E-0001	
 2.85250000000000E+0003	 1.41901023356009E-0001	
 2.85450000000000E+0003	 1.43351512789116E-0001	
 2.85650000000000E+0003	 1.44205502222222E-0001	
 2.85850000000000E+0003	 1.44629991655329E-0001	
 2.86050000000000E+0003	 1.44881481088435E-0001	
 2.86250000000000E+0003	 1.45189970521542E-0001	
 2.86450000000000E+0003	 1.45741459954649E-0001	
 2.86650000000000E+0003	 1.46572949387755E-0001	
 2.86850000000000E+0003	 1.47603938820862E-0001	
 2.87050000000000E+0003	 1.48723428253968E-0001	
 2.87250000000000E+0003	 1.49792417687075E-0001	
 2.87450000000000E+0003	 1.50568407120181E-0001	
 2.87650000000000E+0003	 1.50977896553288E-0001	
 2.87850000000000E+0003	 1.51201885986395E-0001	
 2.88050000000000E+0003	 1.51376375419501E-0001	
 2.88250000000000E+0003	 1.51571364852608E-0001	
 2.88450000000000E+0003	 1.51852854285714E-0001	
 2.88650000000000E+0003	 1.52261843718821E-0001	
 2.88850000000000E+0003	 1.52804333151927E-0001	
 2.89050000000000E+0003	 1.53457322585034E-0001	
 2.89250000000000E+0003	 1.54204812018141E-0001	
 2.89450000000000E+0003	 1.55053301451247E-0001	
 2.89650000000000E+0003	 1.55954290884354E-0001	
 2.89850000000000E+0003	 1.56850280317460E-0001	
 2.90050000000000E+0003	 1.57791269750567E-0001	
 2.90250000000000E+0003	 1.58821259183673E-0001	
 2.90450000000000E+0003	 1.59955748616780E-0001	
 2.90650000000000E+0003	 1.61211238049887E-0001	
 2.90850000000000E+0003	 1.62643727482993E-0001	
 2.91050000000000E+0003	 1.64327216916100E-0001	
 2.91250000000000E+0003	 1.66298706349206E-0001	
 2.91450000000000E+0003	 1.68487695782313E-0001	
 2.91650000000000E+0003	 1.70811685215420E-0001	
 2.91850000000000E+0003	 1.73229174648526E-0001	
 2.92050000000000E+0003	 1.75591164081633E-0001	
 2.92250000000000E+0003	 1.77717653514739E-0001	
 2.92450000000000E+0003	 1.79439642947846E-0001	
 2.92650000000000E+0003	 1.80691132380952E-0001	
 2.92850000000000E+0003	 1.81504621814059E-0001	
 2.93050000000000E+0003	 1.81867611247166E-0001	
 2.93250000000000E+0003	 1.81788600680272E-0001	
 2.93450000000000E+0003	 1.81403590113379E-0001	
 2.93650000000000E+0003	 1.80752579546485E-0001	
 2.93850000000000E+0003	 1.79857068979592E-0001	
 2.94050000000000E+0003	 1.78812558412698E-0001	
 2.94250000000000E+0003	 1.77776047845805E-0001	
 2.94450000000000E+0003	 1.76831537278912E-0001	
 2.94650000000000E+0003	 1.76029526712018E-0001	
 2.94850000000000E+0003	 1.75466016145125E-0001	
 2.95050000000000E+0003	 1.75286505578231E-0001	
 2.95250000000000E+0003	 1.75489995011338E-0001	
 2.95450000000000E+0003	 1.75854484444444E-0001	
 2.95650000000000E+0003	 1.76241973877551E-0001	
 2.95850000000000E+0003	 1.76533963310658E-0001	
 2.96050000000000E+0003	 1.76564952743764E-0001	
 2.96250000000000E+0003	 1.76225942176871E-0001	
 2.96450000000000E+0003	 1.75465931609977E-0001	
 2.96650000000000E+0003	 1.74323421043084E-0001	
 2.96850000000000E+0003	 1.72888910476190E-0001	
 2.97050000000000E+0003	 1.71358399909297E-0001	
 2.97250000000000E+0003	 1.69939889342404E-0001	
 2.97450000000000E+0003	 1.68631378775510E-0001	
 2.97650000000000E+0003	 1.67359368208617E-0001	
 2.97850000000000E+0003	 1.66183357641723E-0001	
 2.98050000000000E+0003	 1.65094347074830E-0001	
 2.98250000000000E+0003	 1.64017336507937E-0001	
 2.98450000000000E+0003	 1.62982325941043E-0001	
 2.98650000000000E+0003	 1.62048315374150E-0001	
 2.98850000000000E+0003	 1.61221304807256E-0001	
 2.99050000000000E+0003	 1.60523294240363E-0001	
 2.99250000000000E+0003	 1.59929783673469E-0001	
 2.99450000000000E+0003	 1.59380773106576E-0001	
 2.99650000000000E+0003	 1.58969762539683E-0001	
 2.99850000000000E+0003	 1.58706751972789E-0001	
 3.00050000000000E+0003	 1.58527741405896E-0001	
 3.00250000000000E+0003	 1.58489230839002E-0001	
 3.00450000000000E+0003	 1.58581220272109E-0001	
 3.00650000000000E+0003	 1.58755209705215E-0001	
 3.00850000000000E+0003	 1.59035699138322E-0001	
 3.01050000000000E+0003	 1.59462188571429E-0001	
 3.01250000000000E+0003	 1.59958678004535E-0001	
 3.01450000000000E+0003	 1.60427667437642E-0001	
 3.01650000000000E+0003	 1.60885156870748E-0001	
 3.01850000000000E+0003	 1.61422146303855E-0001	
 3.02050000000000E+0003	 1.62056135736961E-0001	
 3.02250000000000E+0003	 1.62764125170068E-0001	
 3.02450000000000E+0003	 1.63557114603175E-0001	
 3.02650000000000E+0003	 1.64370604036281E-0001	
 3.02850000000000E+0003	 1.65196593469388E-0001	
 3.03050000000000E+0003	 1.66076082902494E-0001	
 3.03250000000000E+0003	 1.66997072335601E-0001	
 3.03450000000000E+0003	 1.67925561768707E-0001	
 3.03650000000000E+0003	 1.68810051201814E-0001	
 3.03850000000000E+0003	 1.69720040634921E-0001	
 3.04050000000000E+0003	 1.70730530068027E-0001	
 3.04250000000000E+0003	 1.71762019501134E-0001	
 3.04450000000000E+0003	 1.72739008934240E-0001	
 3.04650000000000E+0003	 1.73685998367347E-0001	
 3.04850000000000E+0003	 1.74669987800454E-0001	
 3.05050000000000E+0003	 1.75716977233560E-0001	
 3.05250000000000E+0003	 1.76739466666667E-0001	
 3.05450000000000E+0003	 1.77737456099773E-0001	
 3.05650000000000E+0003	 1.78729445532880E-0001	
 3.05850000000000E+0003	 1.79672434965986E-0001	
 3.06050000000000E+0003	 1.80564924399093E-0001	
 3.06250000000000E+0003	 1.81422913832200E-0001	
 3.06450000000000E+0003	 1.82244903265306E-0001	
 3.06650000000000E+0003	 1.83036892698413E-0001	
 3.06850000000000E+0003	 1.83748882131519E-0001	
 3.07050000000000E+0003	 1.84361871564626E-0001	
 3.07250000000000E+0003	 1.84944360997732E-0001	
 3.07450000000000E+0003	 1.85528850430839E-0001	
 3.07650000000000E+0003	 1.86133339863946E-0001	
 3.07850000000000E+0003	 1.86737329297052E-0001	
 3.08050000000000E+0003	 1.87260318730159E-0001	
 3.08250000000000E+0003	 1.87722808163265E-0001	
 3.08450000000000E+0003	 1.88174797596372E-0001	
 3.08650000000000E+0003	 1.88584787029478E-0001	
 3.08850000000000E+0003	 1.88980776462585E-0001	
 3.09050000000000E+0003	 1.89388265895692E-0001	
 3.09250000000000E+0003	 1.89752255328798E-0001	
 3.09450000000000E+0003	 1.90094244761905E-0001	
 3.09650000000000E+0003	 1.90467234195011E-0001	
 3.09850000000000E+0003	 1.90879723628118E-0001	
 3.10050000000000E+0003	 1.91312213061224E-0001	
 3.10250000000000E+0003	 1.91736202494331E-0001	
 3.10450000000000E+0003	 1.92171691927438E-0001	
 3.10650000000000E+0003	 1.92677181360544E-0001	
 3.10850000000000E+0003	 1.93250170793651E-0001	
 3.11050000000000E+0003	 1.93808160226757E-0001	
 3.11250000000000E+0003	 1.94382649659864E-0001	
 3.11450000000000E+0003	 1.95080639092971E-0001	
 3.11650000000000E+0003	 1.95860628526077E-0001	
 3.11850000000000E+0003	 1.96637117959184E-0001	
 3.12050000000000E+0003	 1.97391107392290E-0001	
 3.12250000000000E+0003	 1.98117596825397E-0001	
 3.12450000000000E+0003	 1.98897086258503E-0001	
 3.12650000000000E+0003	 1.99784075691610E-0001	
 3.12850000000000E+0003	 2.00754565124717E-0001	
 3.13050000000000E+0003	 2.01749054557823E-0001	
 3.13250000000000E+0003	 2.02743043990930E-0001	
 3.13450000000000E+0003	 2.03791033424036E-0001	
 3.13650000000000E+0003	 2.04920022857143E-0001	
 3.13850000000000E+0003	 2.06117012290249E-0001	
 3.14050000000000E+0003	 2.07274001723356E-0001	
 3.14250000000000E+0003	 2.08388491156463E-0001	
 3.14450000000000E+0003	 2.09571980589569E-0001	
 3.14650000000000E+0003	 2.10830470022676E-0001	
 3.14850000000000E+0003	 2.12147459455782E-0001	
 3.15050000000000E+0003	 2.13574448888889E-0001	
 3.15250000000000E+0003	 2.15025438321995E-0001	
 3.15450000000000E+0003	 2.16352927755102E-0001	
 3.15650000000000E+0003	 2.17664917188209E-0001	
 3.15850000000000E+0003	 2.19071906621315E-0001	
 3.16050000000000E+0003	 2.20538396054422E-0001	
 3.16250000000000E+0003	 2.22041385487528E-0001	
 3.16450000000000E+0003	 2.23569874920635E-0001	
 3.16650000000000E+0003	 2.25110364353741E-0001	
 3.16850000000000E+0003	 2.26658853786848E-0001	
 3.17050000000000E+0003	 2.28221343219955E-0001	
 3.17250000000000E+0003	 2.29789332653061E-0001	
 3.17450000000000E+0003	 2.31361822086168E-0001	
 3.17650000000000E+0003	 2.32936311519274E-0001	
 3.17850000000000E+0003	 2.34514300952381E-0001	
 3.18050000000000E+0003	 2.36081290385488E-0001	
 3.18250000000000E+0003	 2.37629279818594E-0001	
 3.18450000000000E+0003	 2.39160769251701E-0001	
 3.18650000000000E+0003	 2.40685258684807E-0001	
 3.18850000000000E+0003	 2.42190748117914E-0001	
 3.19050000000000E+0003	 2.43664237551020E-0001	
 3.19250000000000E+0003	 2.45110226984127E-0001	
 3.19450000000000E+0003	 2.46523716417234E-0001	
 3.19650000000000E+0003	 2.47902205850340E-0001	
 3.19850000000000E+0003	 2.49265695283447E-0001	
 3.20050000000000E+0003	 2.50608684716553E-0001	
 3.20250000000000E+0003	 2.51921174149660E-0001	
 3.20450000000000E+0003	 2.53213163582766E-0001	
 3.20650000000000E+0003	 2.54491653015873E-0001	
 3.20850000000000E+0003	 2.55743642448980E-0001	
 3.21050000000000E+0003	 2.56985131882086E-0001	
 3.21250000000000E+0003	 2.58228621315193E-0001	
 3.21450000000000E+0003	 2.59477110748299E-0001	
 3.21650000000000E+0003	 2.60728100181406E-0001	
 3.21850000000000E+0003	 2.61986089614512E-0001	
 3.22050000000000E+0003	 2.63245079047619E-0001	
 3.22250000000000E+0003	 2.64506568480726E-0001	
 3.22450000000000E+0003	 2.65787557913832E-0001	
 3.22650000000000E+0003	 2.67098047346939E-0001	
 3.22850000000000E+0003	 2.68444036780045E-0001	
 3.23050000000000E+0003	 2.69857026213152E-0001	
 3.23250000000000E+0003	 2.71345515646259E-0001	
 3.23450000000000E+0003	 2.72775005079365E-0001	
 3.23650000000000E+0003	 2.74120494512472E-0001	
 3.23850000000000E+0003	 2.75527983945578E-0001	
 3.24050000000000E+0003	 2.77016973378685E-0001	
 3.24250000000000E+0003	 2.78549962811791E-0001	
 3.24450000000000E+0003	 2.80144452244898E-0001	
 3.24650000000000E+0003	 2.81801441678005E-0001	
 3.24850000000000E+0003	 2.83418931111111E-0001	
 3.25050000000000E+0003	 2.85002420544218E-0001	
 3.25250000000000E+0003	 2.86643409977324E-0001	
 3.25450000000000E+0003	 2.88357399410431E-0001	
 3.25650000000000E+0003	 2.90074388843537E-0001	
 3.25850000000000E+0003	 2.91759378276644E-0001	
 3.26050000000000E+0003	 2.93451867709751E-0001	
 3.26250000000000E+0003	 2.95159857142857E-0001	
 3.26450000000000E+0003	 2.96857346575964E-0001	
 3.26650000000000E+0003	 2.98537836009070E-0001	
 3.26850000000000E+0003	 3.00221825442177E-0001	
 3.27050000000000E+0003	 3.01878814875283E-0001	
 3.27250000000000E+0003	 3.03396304308390E-0001	
 3.27450000000000E+0003	 3.04802793741497E-0001	
 3.27650000000000E+0003	 3.06163783174603E-0001	
 3.27850000000000E+0003	 3.07462272607710E-0001	
 3.28050000000000E+0003	 3.08698762040816E-0001	
 3.28250000000000E+0003	 3.09865751473923E-0001	
 3.28450000000000E+0003	 3.10965740907029E-0001	
 3.28650000000000E+0003	 3.11993230340136E-0001	
 3.28850000000000E+0003	 3.12955719773243E-0001	
 3.29050000000000E+0003	 3.13882209206349E-0001	
 3.29250000000000E+0003	 3.14742698639456E-0001	
 3.29450000000000E+0003	 3.15490188072562E-0001	
 3.29650000000000E+0003	 3.16148677505669E-0001	
 3.29850000000000E+0003	 3.16739166938776E-0001	
 3.30050000000000E+0003	 3.17293156371882E-0001	
 3.30250000000000E+0003	 3.17857145804989E-0001	
 3.30450000000000E+0003	 3.18447635238095E-0001	
 3.30650000000000E+0003	 3.18969624671202E-0001	
 3.30850000000000E+0003	 3.19360114104308E-0001	
 3.31050000000000E+0003	 3.19676603537415E-0001	
 3.31250000000000E+0003	 3.20004592970522E-0001	
 3.31450000000000E+0003	 3.20368582403628E-0001	
 3.31650000000000E+0003	 3.20742071836735E-0001	
 3.31850000000000E+0003	 3.21114061269841E-0001	
 3.32050000000000E+0003	 3.21485550702948E-0001	
 3.32250000000000E+0003	 3.21871040136054E-0001	
 3.32450000000000E+0003	 3.22293029569161E-0001	
 3.32650000000000E+0003	 3.22707519002268E-0001	
 3.32850000000000E+0003	 3.23074008435374E-0001	
 3.33050000000000E+0003	 3.23456997868481E-0001	
 3.33250000000000E+0003	 3.23886987301587E-0001	
 3.33450000000000E+0003	 3.24354976734694E-0001	
 3.33650000000000E+0003	 3.24875966167800E-0001	
 3.33850000000000E+0003	 3.25408955600907E-0001	
 3.34050000000000E+0003	 3.25882945034014E-0001	
 3.34250000000000E+0003	 3.26345934467120E-0001	
 3.34450000000000E+0003	 3.26829423900227E-0001	
 3.34650000000000E+0003	 3.27331913333333E-0001	
 3.34850000000000E+0003	 3.27913402766440E-0001	
 3.35050000000000E+0003	 3.28521892199546E-0001	
 3.35250000000000E+0003	 3.29031381632653E-0001	
 3.35450000000000E+0003	 3.29500371065760E-0001	
 3.35650000000000E+0003	 3.30035360498866E-0001	
 3.35850000000000E+0003	 3.30620349931973E-0001	
 3.36050000000000E+0003	 3.31216839365079E-0001	
 3.36250000000000E+0003	 3.31788328798186E-0001	
 3.36450000000000E+0003	 3.32393318231293E-0001	
 3.36650000000000E+0003	 3.33084807664399E-0001	
 3.36850000000000E+0003	 3.33763297097506E-0001	
 3.37050000000000E+0003	 3.34284286530612E-0001	
 3.37250000000000E+0003	 3.34699275963719E-0001	
 3.37450000000000E+0003	 3.35187265396825E-0001	
 3.37650000000000E+0003	 3.35750754829932E-0001	
 3.37850000000000E+0003	 3.36310244263039E-0001	
 3.38050000000000E+0003	 3.36849233696145E-0001	
 3.38250000000000E+0003	 3.37357223129252E-0001	
 3.38450000000000E+0003	 3.37865212562358E-0001	
 3.38650000000000E+0003	 3.38398201995465E-0001	
 3.38850000000000E+0003	 3.38997191428571E-0001	
 3.39050000000000E+0003	 3.39670180861678E-0001	
 3.39250000000000E+0003	 3.40212670294785E-0001	
 3.39450000000000E+0003	 3.40554659727891E-0001	
 3.39650000000000E+0003	 3.40948149160998E-0001	
 3.39850000000000E+0003	 3.41562138594104E-0001	
 3.40050000000000E+0003	 3.42163628027211E-0001	
 3.40250000000000E+0003	 3.42425617460317E-0001	
 3.40450000000000E+0003	 3.42534606893424E-0001	
 3.40650000000000E+0003	 3.42796096326531E-0001	
 3.40850000000000E+0003	 3.43152585759637E-0001	
 3.41050000000000E+0003	 3.43457075192744E-0001	
 3.41250000000000E+0003	 3.43698064625850E-0001	
 3.41450000000000E+0003	 3.43838554058957E-0001	
 3.41650000000000E+0003	 3.43920043492063E-0001	
 3.41850000000000E+0003	 3.44032532925170E-0001	
 3.42050000000000E+0003	 3.44146522358277E-0001	
 3.42250000000000E+0003	 3.44192511791383E-0001	
 3.42450000000000E+0003	 3.44202001224490E-0001	
 3.42650000000000E+0003	 3.44244490657596E-0001	
 3.42850000000000E+0003	 3.44304980090703E-0001	
 3.43050000000000E+0003	 3.44262469523810E-0001	
 3.43250000000000E+0003	 3.44160958956916E-0001	
 3.43450000000000E+0003	 3.44104948390023E-0001	
 3.43650000000000E+0003	 3.43905937823129E-0001	
 3.43850000000000E+0003	 3.43450927256236E-0001	
 3.44050000000000E+0003	 3.42946416689342E-0001	
 3.44250000000000E+0003	 3.42538906122449E-0001	
 3.44450000000000E+0003	 3.42167395555556E-0001	
 3.44650000000000E+0003	 3.41766384988662E-0001	
 3.44850000000000E+0003	 3.41312374421769E-0001	
 3.45050000000000E+0003	 3.40789863854875E-0001	
 3.45250000000000E+0003	 3.40240853287982E-0001	
 3.45450000000000E+0003	 3.39662842721088E-0001	
 3.45650000000000E+0003	 3.39076832154195E-0001	
 3.45850000000000E+0003	 3.38518321587302E-0001	
 3.46050000000000E+0003	 3.37894811020408E-0001	
 3.46250000000000E+0003	 3.37159300453515E-0001	
 3.46450000000000E+0003	 3.36506289886621E-0001	
 3.46650000000000E+0003	 3.35987779319728E-0001	
 3.46850000000000E+0003	 3.35313268752834E-0001	
 3.47050000000000E+0003	 3.34268258185941E-0001	
 3.47250000000000E+0003	 3.33111747619048E-0001	
 3.47450000000000E+0003	 3.32104237052154E-0001	
 3.47650000000000E+0003	 3.31223226485261E-0001	
 3.47850000000000E+0003	 3.30392215918367E-0001	
 3.48050000000000E+0003	 3.29418705351474E-0001	
 3.48250000000000E+0003	 3.28275194784580E-0001	
 3.48450000000000E+0003	 3.27199684217687E-0001	
 3.48650000000000E+0003	 3.26186673650794E-0001	
 3.48850000000000E+0003	 3.25087663083900E-0001	
 3.49050000000000E+0003	 3.23934652517007E-0001	
 3.49250000000000E+0003	 3.22818141950113E-0001	
 3.49450000000000E+0003	 3.21723131383220E-0001	
 3.49650000000000E+0003	 3.20608120816327E-0001	
 3.49850000000000E+0003	 3.19423610249433E-0001	
 3.50050000000000E+0003	 3.18241099682540E-0001	
 3.50250000000000E+0003	 3.17063089115646E-0001	
 3.50450000000000E+0003	 3.15724078548753E-0001	
 3.50650000000000E+0003	 3.14304567981859E-0001	
 3.50850000000000E+0003	 3.12958557414966E-0001	
 3.51050000000000E+0003	 3.11702046848073E-0001	
 3.51250000000000E+0003	 3.10490536281179E-0001	
 3.51450000000000E+0003	 3.09180025714286E-0001	
 3.51650000000000E+0003	 3.07743515147392E-0001	
 3.51850000000000E+0003	 3.06318504580499E-0001	
 3.52050000000000E+0003	 3.04967994013605E-0001	
 3.52250000000000E+0003	 3.03675983446712E-0001	
 3.52450000000000E+0003	 3.02263972879819E-0001	
 3.52650000000000E+0003	 3.00686962312925E-0001	
 3.52850000000000E+0003	 2.99151951746032E-0001	
 3.53050000000000E+0003	 2.97675441179138E-0001	
 3.53250000000000E+0003	 2.96219430612245E-0001	
 3.53450000000000E+0003	 2.94818420045351E-0001	
 3.53650000000000E+0003	 2.93367909478458E-0001	
 3.53850000000000E+0003	 2.91753898911565E-0001	
 3.54050000000000E+0003	 2.90172888344671E-0001	
 3.54250000000000E+0003	 2.88713877777778E-0001	
 3.54450000000000E+0003	 2.87186367210884E-0001	
 3.54650000000000E+0003	 2.85423356643991E-0001	
 3.54850000000000E+0003	 2.83567846077098E-0001	
 3.55050000000000E+0003	 2.81811335510204E-0001	
 3.55250000000000E+0003	 2.80070824943311E-0001	
 3.55450000000000E+0003	 2.78292314376417E-0001	
 3.55650000000000E+0003	 2.76530303809524E-0001	
 3.55850000000000E+0003	 2.74779293242630E-0001	
 3.56050000000000E+0003	 2.73008782675737E-0001	
 3.56250000000000E+0003	 2.71151772108844E-0001	
 3.56450000000000E+0003	 2.69187761541950E-0001	
 3.56650000000000E+0003	 2.67228750975057E-0001	
 3.56850000000000E+0003	 2.65420240408163E-0001	
 3.57050000000000E+0003	 2.63609729841270E-0001	
 3.57250000000000E+0003	 2.61665219274376E-0001	
 3.57450000000000E+0003	 2.59672708707483E-0001	
 3.57650000000000E+0003	 2.57696698140590E-0001	
 3.57850000000000E+0003	 2.55740187573696E-0001	
 3.58050000000000E+0003	 2.53823677006803E-0001	
 3.58250000000000E+0003	 2.51933666439909E-0001	
 3.58450000000000E+0003	 2.49992655873016E-0001	
 3.58650000000000E+0003	 2.47824645306122E-0001	
 3.58850000000000E+0003	 2.45528134739229E-0001	
 3.59050000000000E+0003	 2.43382624172336E-0001	
 3.59250000000000E+0003	 2.41312613605442E-0001	
 3.59450000000000E+0003	 2.39170603038549E-0001	
 3.59650000000000E+0003	 2.37053592471655E-0001	
 3.59850000000000E+0003	 2.34998581904762E-0001	
 3.60050000000000E+0003	 2.32876571337868E-0001	
 3.60250000000000E+0003	 2.30713060770975E-0001	
 3.60450000000000E+0003	 2.28550550204082E-0001	
 3.60650000000000E+0003	 2.26317039637188E-0001	
 3.60850000000000E+0003	 2.24019029070295E-0001	
 3.61050000000000E+0003	 2.21761018503401E-0001	
 3.61250000000000E+0003	 2.19600007936508E-0001	
 3.61450000000000E+0003	 2.17511997369615E-0001	
 3.61650000000000E+0003	 2.15390486802721E-0001	
 3.61850000000000E+0003	 2.13241976235828E-0001	
 3.62050000000000E+0003	 2.11090965668934E-0001	
 3.62250000000000E+0003	 2.08879955102041E-0001	
 3.62450000000000E+0003	 2.06703944535147E-0001	
 3.62650000000000E+0003	 2.04561933968254E-0001	
 3.62850000000000E+0003	 2.02260923401361E-0001	
 3.63050000000000E+0003	 2.00003912834467E-0001	
 3.63250000000000E+0003	 1.97920402267574E-0001	
 3.63450000000000E+0003	 1.95932891700680E-0001	
 3.63650000000000E+0003	 1.93850881133787E-0001	
 3.63850000000000E+0003	 1.91780370566893E-0001	
 3.64050000000000E+0003	 1.89730860000000E-0001	
 3.64250000000000E+0003	 1.87724349433107E-0001	
 3.64450000000000E+0003	 1.85768838866213E-0001	
 3.64650000000000E+0003	 1.83858828299320E-0001	
 3.64850000000000E+0003	 1.81958817732426E-0001	
 3.65050000000000E+0003	 1.80102807165533E-0001	
 3.65250000000000E+0003	 1.78278296598639E-0001	
 3.65450000000000E+0003	 1.76476286031746E-0001	
 3.65650000000000E+0003	 1.74779275464853E-0001	
 3.65850000000000E+0003	 1.73149264897959E-0001	
 3.66050000000000E+0003	 1.71542754331066E-0001	
 3.66250000000000E+0003	 1.69865743764172E-0001	
 3.66450000000000E+0003	 1.68222233197279E-0001	
 3.66650000000000E+0003	 1.66744722630385E-0001	
 3.66850000000000E+0003	 1.65311712063492E-0001	
 3.67050000000000E+0003	 1.63922701496599E-0001	
 3.67250000000000E+0003	 1.62636690929705E-0001	
 3.67450000000000E+0003	 1.61417180362812E-0001	
 3.67650000000000E+0003	 1.60243669795918E-0001	
 3.67850000000000E+0003	 1.59054159229025E-0001	
 3.68050000000000E+0003	 1.58007148662132E-0001	
 3.68250000000000E+0003	 1.56966138095238E-0001	
 3.68450000000000E+0003	 1.56044127528345E-0001	
 3.68650000000000E+0003	 1.55260616961451E-0001	
 3.68850000000000E+0003	 1.54446606394558E-0001	
 3.69050000000000E+0003	 1.53478595827664E-0001	
 3.69250000000000E+0003	 1.52542585260771E-0001	
 3.69450000000000E+0003	 1.51736574693878E-0001	
 3.69650000000000E+0003	 1.51004064126984E-0001	
 3.69850000000000E+0003	 1.50289553560091E-0001	
 3.70050000000000E+0003	 1.49594042993197E-0001	
 3.70250000000000E+0003	 1.48986532426304E-0001	
 3.70450000000000E+0003	 1.48393021859410E-0001	
 3.70650000000000E+0003	 1.47808511292517E-0001	
 3.70850000000000E+0003	 1.47259500725624E-0001	
 3.71050000000000E+0003	 1.46727490158730E-0001	
 3.71250000000000E+0003	 1.46279479591837E-0001	
 3.71450000000000E+0003	 1.45891969024943E-0001	
 3.71650000000000E+0003	 1.45487458458050E-0001	
 3.71850000000000E+0003	 1.45077947891156E-0001	
 3.72050000000000E+0003	 1.44638437324263E-0001	
 3.72250000000000E+0003	 1.44235926757370E-0001	
 3.72450000000000E+0003	 1.43835416190476E-0001	
 3.72650000000000E+0003	 1.43454405623583E-0001	
 3.72850000000000E+0003	 1.43109395056689E-0001	
 3.73050000000000E+0003	 1.42743384489796E-0001	
 3.73250000000000E+0003	 1.42420373922902E-0001	
 3.73450000000000E+0003	 1.42118863356009E-0001	
 3.73650000000000E+0003	 1.41946352789116E-0001	
 3.73850000000000E+0003	 1.41656342222222E-0001	
 3.74050000000000E+0003	 1.41354331655329E-0001	
 3.74250000000000E+0003	 1.41034821088435E-0001	
 3.74450000000000E+0003	 1.40688810521542E-0001	
 3.74650000000000E+0003	 1.40454299954649E-0001	
 3.74850000000000E+0003	 1.40215789387755E-0001	
 3.75050000000000E+0003	 1.40009778820862E-0001	
 3.75250000000000E+0003	 1.39810268253968E-0001	
 3.75450000000000E+0003	 1.39622257687075E-0001	
 3.75650000000000E+0003	 1.39404747120181E-0001	
 3.75850000000000E+0003	 1.39218736553288E-0001	
 3.76050000000000E+0003	 1.39045725986395E-0001	
 3.76250000000000E+0003	 1.38841215419501E-0001	
 3.76450000000000E+0003	 1.38611704852608E-0001	
 3.76650000000000E+0003	 1.38453694285714E-0001	
 3.76850000000000E+0003	 1.38254183718821E-0001	
 3.77050000000000E+0003	 1.38107173151927E-0001	
 3.77250000000000E+0003	 1.37934162585034E-0001	
 3.77450000000000E+0003	 1.37751652018141E-0001	
 3.77650000000000E+0003	 1.37594141451247E-0001	
 3.77850000000000E+0003	 1.37455630884354E-0001	
 3.78050000000000E+0003	 1.37338120317460E-0001	
 3.78250000000000E+0003	 1.37126109750567E-0001	
 3.78450000000000E+0003	 1.36939599183673E-0001	
 3.78650000000000E+0003	 1.36806088616780E-0001	
 3.78850000000000E+0003	 1.36675578049887E-0001	
 3.79050000000000E+0003	 1.36536567482993E-0001	
 3.79250000000000E+0003	 1.36380556916100E-0001	
 3.79450000000000E+0003	 1.36183046349206E-0001	
 3.79650000000000E+0003	 1.36036035782313E-0001	
 3.79850000000000E+0003	 1.35952525215420E-0001	
 3.80050000000000E+0003	 1.35797514648526E-0001	
 3.80250000000000E+0003	 1.35730504081633E-0001	
 3.80450000000000E+0003	 1.35592493514739E-0001	
 3.80650000000000E+0003	 1.35494482947846E-0001	
 3.80850000000000E+0003	 1.35411972380952E-0001	
 3.81050000000000E+0003	 1.35262461814059E-0001	
 3.81250000000000E+0003	 1.35202451247166E-0001	
 3.81450000000000E+0003	 1.35079440680272E-0001	
 3.81650000000000E+0003	 1.34989930113379E-0001	
 3.81850000000000E+0003	 1.34866419546485E-0001	
 3.82050000000000E+0003	 1.34776408979592E-0001	
 3.82250000000000E+0003	 1.34767898412698E-0001	
 3.82450000000000E+0003	 1.34592387845805E-0001	
 3.82650000000000E+0003	 1.34508377278912E-0001	
 3.82850000000000E+0003	 1.34433866712018E-0001	
 3.83050000000000E+0003	 1.34322856145125E-0001	
 3.83250000000000E+0003	 1.34277345578231E-0001	
 3.83450000000000E+0003	 1.34307335011338E-0001	
 3.83650000000000E+0003	 1.34297324444444E-0001	
 3.83850000000000E+0003	 1.34135813877551E-0001	
 3.84050000000000E+0003	 1.33986303310658E-0001	
 3.84250000000000E+0003	 1.33938292743764E-0001	
 3.84450000000000E+0003	 1.33932282176871E-0001	
 3.84650000000000E+0003	 1.33850271609977E-0001	
 3.84850000000000E+0003	 1.33765261043084E-0001	
 3.85050000000000E+0003	 1.33782250476190E-0001	
 3.85250000000000E+0003	 1.33718739909297E-0001	
 3.85450000000000E+0003	 1.33669729342404E-0001	
 3.85650000000000E+0003	 1.33564218775510E-0001	
 3.85850000000000E+0003	 1.33488208208617E-0001	
 3.86050000000000E+0003	 1.33449197641723E-0001	
 3.86250000000000E+0003	 1.33392687074830E-0001	
 3.86450000000000E+0003	 1.33371676507937E-0001	
 3.86650000000000E+0003	 1.33393665941043E-0001	
 3.86850000000000E+0003	 1.33292655374150E-0001	
 3.87050000000000E+0003	 1.33282644807256E-0001	
 3.87250000000000E+0003	 1.33205634240363E-0001	
 3.87450000000000E+0003	 1.33212123673469E-0001	
 3.87650000000000E+0003	 1.33211613106576E-0001	
 3.87850000000000E+0003	 1.33099102539683E-0001	
 3.88050000000000E+0003	 1.33090091972789E-0001	
 3.88250000000000E+0003	 1.33153081405896E-0001	
 3.88450000000000E+0003	 1.33150570839002E-0001	
 3.88650000000000E+0003	 1.33152560272109E-0001	
 3.88850000000000E+0003	 1.33047549705215E-0001	
 3.89050000000000E+0003	 1.33007539138322E-0001	
 3.89250000000000E+0003	 1.33029028571429E-0001	
 3.89450000000000E+0003	 1.32985018004535E-0001	
 3.89650000000000E+0003	 1.32943007437642E-0001	
 3.89850000000000E+0003	 1.32910496870748E-0001	
 3.90050000000000E+0003	 1.32899986303855E-0001	
 3.90250000000000E+0003	 1.32869475736961E-0001	
 3.90450000000000E+0003	 1.32935465170068E-0001	
 3.90650000000000E+0003	 1.32993954603175E-0001	
 3.90850000000000E+0003	 1.32970944036281E-0001	
 3.91050000000000E+0003	 1.32936933469388E-0001	
 3.91250000000000E+0003	 1.32917422902494E-0001	
 3.91450000000000E+0003	 1.32895412335601E-0001	
 3.91650000000000E+0003	 1.32890401768707E-0001	
 3.91850000000000E+0003	 1.32895391201814E-0001	
 3.92050000000000E+0003	 1.32906380634921E-0001	
 3.92250000000000E+0003	 1.32901370068027E-0001	
 3.92450000000000E+0003	 1.32910359501134E-0001	
 3.92650000000000E+0003	 1.32938348934240E-0001	
 3.92850000000000E+0003	 1.32919838367347E-0001	
 3.93050000000000E+0003	 1.32906327800454E-0001	
 3.93250000000000E+0003	 1.32922817233560E-0001	
 3.93450000000000E+0003	 1.32961306666667E-0001	
 3.93650000000000E+0003	 1.32955296099773E-0001	
 3.93850000000000E+0003	 1.32945785532880E-0001	
 3.94050000000000E+0003	 1.32925274965986E-0001	
 3.94250000000000E+0003	 1.32935264399093E-0001	
 3.94450000000000E+0003	 1.32949753832200E-0001	
 3.94650000000000E+0003	 1.32919743265306E-0001	
 3.94850000000000E+0003	 1.32916732698413E-0001	
 3.95050000000000E+0003	 1.32951222131519E-0001	
 3.95250000000000E+0003	 1.32973211564626E-0001	
 3.95450000000000E+0003	 1.32967700997732E-0001	
 3.95650000000000E+0003	 1.32961190430839E-0001	
 3.95850000000000E+0003	 1.32969679863946E-0001	
 3.96050000000000E+0003	 1.32973669297052E-0001	
 3.96250000000000E+0003	 1.32982158730159E-0001	
 3.96450000000000E+0003	 1.32993648163265E-0001	
 3.96650000000000E+0003	 1.33002637596372E-0001	
 3.96850000000000E+0003	 1.33014127029478E-0001	
 3.97050000000000E+0003	 1.33027116462585E-0001	
 3.97250000000000E+0003	 1.33031105895692E-0001	
 3.97450000000000E+0003	 1.33037595328798E-0001	
 3.97650000000000E+0003	 1.33054084761905E-0001	
 3.97850000000000E+0003	 1.33067074195011E-0001	
 3.98050000000000E+0003	 1.33077563628118E-0001	
 3.98250000000000E+0003	 1.33110553061224E-0001	
 3.98450000000000E+0003	 1.33133542494331E-0001	
 3.98650000000000E+0003	 1.33120531927438E-0001	
 3.98850000000000E+0003	 1.33099521360544E-0001	
 3.99050000000000E+0003	 1.33101010793651E-0001	
 3.99250000000000E+0003	 1.33108000226757E-0001	
 3.99450000000000E+0003	 1.33119989659864E-0001	
 3.99650000000000E+0003	 1.33135979092971E-0001	
 3.99850000000000E+0003	 1.33146468526077E-0001	

>1	DATALINE
