*CPCWIN*

>1	DATALINE
DATALINE
1
Operator:

Description:

Remarks:





15.9.2008
11:35


_x	_y
	
	
UNIT	UNIT
 4.50500000000000E+0002	 1.49657646158612E-0001	
 4.52500000000000E+0002	 1.49919730793061E-0001	
 4.54500000000000E+0002	 1.50480315427509E-0001	
 4.56500000000000E+0002	 1.50536900061958E-0001	
 4.58500000000000E+0002	 1.50948484696406E-0001	
 4.60500000000000E+0002	 1.51817069330855E-0001	
 4.62500000000000E+0002	 1.52825653965304E-0001	
 4.64500000000000E+0002	 1.53338738599752E-0001	
 4.66500000000000E+0002	 1.54244823234201E-0001	
 4.68500000000000E+0002	 1.54740407868649E-0001	
 4.70500000000000E+0002	 1.55267492503098E-0001	
 4.72500000000000E+0002	 1.55422077137546E-0001	
 4.74500000000000E+0002	 1.56274661771995E-0001	
 4.76500000000000E+0002	 1.56980246406444E-0001	
 4.78500000000000E+0002	 1.57758331040892E-0001	
 4.80500000000000E+0002	 1.58281915675341E-0001	
 4.82500000000000E+0002	 1.59015000309789E-0001	
 4.84500000000000E+0002	 1.59435584944238E-0001	
 4.86500000000000E+0002	 1.60213669578686E-0001	
 4.88500000000000E+0002	 1.60943754213135E-0001	
 4.90500000000000E+0002	 1.61870338847584E-0001	
 4.92500000000000E+0002	 1.62499923482032E-0001	
 4.94500000000000E+0002	 1.63372508116481E-0001	
 4.96500000000000E+0002	 1.64071092750929E-0001	
 4.98500000000000E+0002	 1.64960677385378E-0001	
 5.00500000000000E+0002	 1.65613262019827E-0001	
 5.02500000000000E+0002	 1.66374846654275E-0001	
 5.04500000000000E+0002	 1.67001431288724E-0001	
 5.06500000000000E+0002	 1.67761015923172E-0001	
 5.08500000000000E+0002	 1.68323600557621E-0001	
 5.10500000000000E+0002	 1.69237185192069E-0001	
 5.12500000000000E+0002	 1.70026269826518E-0001	
 5.14500000000000E+0002	 1.70963354460967E-0001	
 5.16500000000000E+0002	 1.71574439095415E-0001	
 5.18500000000000E+0002	 1.72330023729864E-0001	
 5.20500000000000E+0002	 1.72969608364312E-0001	
 5.22500000000000E+0002	 1.73737692998761E-0001	
 5.24500000000000E+0002	 1.74184277633209E-0001	
 5.26500000000000E+0002	 1.74883862267658E-0001	
 5.28500000000000E+0002	 1.75592946902107E-0001	
 5.30500000000000E+0002	 1.76220031536555E-0001	
 5.32500000000000E+0002	 1.76390116171004E-0001	
 5.34500000000000E+0002	 1.76588700805452E-0001	
 5.36500000000000E+0002	 1.76481285439901E-0001	
 5.38500000000000E+0002	 1.76439370074349E-0001	
 5.40500000000000E+0002	 1.76068454708798E-0001	
 5.42500000000000E+0002	 1.75719039343247E-0001	
 5.44500000000000E+0002	 1.75195123977695E-0001	
 5.46500000000000E+0002	 1.74820208612144E-0001	
 5.48500000000000E+0002	 1.74368293246592E-0001	
 5.50500000000000E+0002	 1.74177377881041E-0001	
 5.52500000000000E+0002	 1.73887462515489E-0001	
 5.54500000000000E+0002	 1.73724047149938E-0001	
 5.56500000000000E+0002	 1.73498131784387E-0001	
 5.58500000000000E+0002	 1.73534716418835E-0001	
 5.60500000000000E+0002	 1.73395301053284E-0001	
 5.62500000000000E+0002	 1.73272385687732E-0001	
 5.64500000000000E+0002	 1.73064470322181E-0001	
 5.66500000000000E+0002	 1.73049554956629E-0001	
 5.68500000000000E+0002	 1.72880139591078E-0001	
 5.70500000000000E+0002	 1.72896724225527E-0001	
 5.72500000000000E+0002	 1.72771308859975E-0001	
 5.74500000000000E+0002	 1.72666393494424E-0001	
 5.76500000000000E+0002	 1.72321978128872E-0001	
 5.78500000000000E+0002	 1.72040062763321E-0001	
 5.80500000000000E+0002	 1.71445147397770E-0001	
 5.82500000000000E+0002	 1.70800732032218E-0001	
 5.84500000000000E+0002	 1.70122316666667E-0001	
 5.86500000000000E+0002	 1.69735901301115E-0001	
 5.88500000000000E+0002	 1.69374485935564E-0001	
 5.90500000000000E+0002	 1.69261070570012E-0001	
 5.92500000000000E+0002	 1.69167655204461E-0001	
 5.94500000000000E+0002	 1.69314239838910E-0001	
 5.96500000000000E+0002	 1.69397324473358E-0001	
 5.98500000000000E+0002	 1.69569409107807E-0001	
 6.00500000000000E+0002	 1.69576993742255E-0001	
 6.02500000000000E+0002	 1.69675578376704E-0001	
 6.04500000000000E+0002	 1.69725663011152E-0001	
 6.06500000000000E+0002	 1.69954747645601E-0001	
 6.08500000000000E+0002	 1.70058332280050E-0001	
 6.10500000000000E+0002	 1.70278916914498E-0001	
 6.12500000000000E+0002	 1.70350501548947E-0001	
 6.14500000000000E+0002	 1.70336086183395E-0001	
 6.16500000000000E+0002	 1.69996170817844E-0001	
 6.18500000000000E+0002	 1.69601755452292E-0001	
 6.20500000000000E+0002	 1.69001340086741E-0001	
 6.22500000000000E+0002	 1.68418424721190E-0001	
 6.24500000000000E+0002	 1.67769009355638E-0001	
 6.26500000000000E+0002	 1.67279593990087E-0001	
 6.28500000000000E+0002	 1.66779678624535E-0001	
 6.30500000000000E+0002	 1.66397763258984E-0001	
 6.32500000000000E+0002	 1.65939347893432E-0001	
 6.34500000000000E+0002	 1.65595932527881E-0001	
 6.36500000000000E+0002	 1.65255017162330E-0001	
 6.38500000000000E+0002	 1.65083601796778E-0001	
 6.40500000000000E+0002	 1.64834686431227E-0001	
 6.42500000000000E+0002	 1.64549271065675E-0001	
 6.44500000000000E+0002	 1.64081855700124E-0001	
 6.46500000000000E+0002	 1.63692440334572E-0001	
 6.48500000000000E+0002	 1.63239524969021E-0001	
 6.50500000000000E+0002	 1.62844609603470E-0001	
 6.52500000000000E+0002	 1.62388194237918E-0001	
 6.54500000000000E+0002	 1.62079778872367E-0001	
 6.56500000000000E+0002	 1.61795363506815E-0001	
 6.58500000000000E+0002	 1.61586448141264E-0001	
 6.60500000000000E+0002	 1.61322532775713E-0001	
 6.62500000000000E+0002	 1.61131117410161E-0001	
 6.64500000000000E+0002	 1.60759202044610E-0001	
 6.66500000000000E+0002	 1.60350286679058E-0001	
 6.68500000000000E+0002	 1.59856371313507E-0001	
 6.70500000000000E+0002	 1.59465455947955E-0001	
 6.72500000000000E+0002	 1.59159540582404E-0001	
 6.74500000000000E+0002	 1.58670625216853E-0001	
 6.76500000000000E+0002	 1.58067709851301E-0001	
 6.78500000000000E+0002	 1.57510794485750E-0001	
 6.80500000000000E+0002	 1.56910379120198E-0001	
 6.82500000000000E+0002	 1.56423463754647E-0001	
 6.84500000000000E+0002	 1.55972048389095E-0001	
 6.86500000000000E+0002	 1.55633133023544E-0001	
 6.88500000000000E+0002	 1.55276717657993E-0001	
 6.90500000000000E+0002	 1.55016302292441E-0001	
 6.92500000000000E+0002	 1.54780386926890E-0001	
 6.94500000000000E+0002	 1.54635471561338E-0001	
 6.96500000000000E+0002	 1.54510556195787E-0001	
 6.98500000000000E+0002	 1.54439140830235E-0001	
 7.00500000000000E+0002	 1.54218225464684E-0001	
 7.02500000000000E+0002	 1.53868310099133E-0001	
 7.04500000000000E+0002	 1.53345894733581E-0001	
 7.06500000000000E+0002	 1.52727979368030E-0001	
 7.08500000000000E+0002	 1.51988064002478E-0001	
 7.10500000000000E+0002	 1.51245148636927E-0001	
 7.12500000000000E+0002	 1.50431233271375E-0001	
 7.14500000000000E+0002	 1.49539817905824E-0001	
 7.16500000000000E+0002	 1.48631902540273E-0001	
 7.18500000000000E+0002	 1.47868487174721E-0001	
 7.20500000000000E+0002	 1.47112571809170E-0001	
 7.22500000000000E+0002	 1.46349156443618E-0001	
 7.24500000000000E+0002	 1.45473741078067E-0001	
 7.26500000000000E+0002	 1.44481325712515E-0001	
 7.28500000000000E+0002	 1.43401910346964E-0001	
 7.30500000000000E+0002	 1.42366494981413E-0001	
 7.32500000000000E+0002	 1.41417079615861E-0001	
 7.34500000000000E+0002	 1.40582164250310E-0001	
 7.36500000000000E+0002	 1.39834248884758E-0001	
 7.38500000000000E+0002	 1.39159333519207E-0001	
 7.40500000000000E+0002	 1.38540418153656E-0001	
 7.42500000000000E+0002	 1.38000502788104E-0001	
 7.44500000000000E+0002	 1.37524587422553E-0001	
 7.46500000000000E+0002	 1.37097172057001E-0001	
 7.48500000000000E+0002	 1.36666256691450E-0001	
 7.50500000000000E+0002	 1.36202841325898E-0001	
 7.52500000000000E+0002	 1.35659425960347E-0001	
 7.54500000000000E+0002	 1.35038510594796E-0001	
 7.56500000000000E+0002	 1.34334095229244E-0001	
 7.58500000000000E+0002	 1.33564179863693E-0001	
 7.60500000000000E+0002	 1.32846264498141E-0001	
 7.62500000000000E+0002	 1.32228849132590E-0001	
 7.64500000000000E+0002	 1.31631933767038E-0001	
 7.66500000000000E+0002	 1.30921018401487E-0001	
 7.68500000000000E+0002	 1.30067603035936E-0001	
 7.70500000000000E+0002	 1.29192687670384E-0001	
 7.72500000000000E+0002	 1.28462772304833E-0001	
 7.74500000000000E+0002	 1.28020856939281E-0001	
 7.76500000000000E+0002	 1.28032941573730E-0001	
 7.78500000000000E+0002	 1.28293026208178E-0001	
 7.80500000000000E+0002	 1.28151110842627E-0001	
 7.82500000000000E+0002	 1.27364695477076E-0001	
 7.84500000000000E+0002	 1.26443280111524E-0001	
 7.86500000000000E+0002	 1.25718364745973E-0001	
 7.88500000000000E+0002	 1.25172949380421E-0001	
 7.90500000000000E+0002	 1.24767534014870E-0001	
 7.92500000000000E+0002	 1.24662118649318E-0001	
 7.94500000000000E+0002	 1.24882203283767E-0001	
 7.96500000000000E+0002	 1.25202287918216E-0001	
 7.98500000000000E+0002	 1.25388372552664E-0001	
 8.00500000000000E+0002	 1.25491957187113E-0001	
 8.02500000000000E+0002	 1.25497041821561E-0001	
 8.04500000000000E+0002	 1.25270626456010E-0001	
 8.06500000000000E+0002	 1.24656211090458E-0001	
 8.08500000000000E+0002	 1.23740295724907E-0001	
 8.10500000000000E+0002	 1.22714880359356E-0001	
 8.12500000000000E+0002	 1.21749964993804E-0001	
 8.14500000000000E+0002	 1.20898549628253E-0001	
 8.16500000000000E+0002	 1.20149134262701E-0001	
 8.18500000000000E+0002	 1.19482718897150E-0001	
 8.20500000000000E+0002	 1.18945303531599E-0001	
 8.22500000000000E+0002	 1.18523388166047E-0001	
 8.24500000000000E+0002	 1.18212472800496E-0001	
 8.26500000000000E+0002	 1.17945557434944E-0001	
 8.28500000000000E+0002	 1.17724642069393E-0001	
 8.30500000000000E+0002	 1.17557726703841E-0001	
 8.32500000000000E+0002	 1.17479811338290E-0001	
 8.34500000000000E+0002	 1.17466395972739E-0001	
 8.36500000000000E+0002	 1.17475480607187E-0001	
 8.38500000000000E+0002	 1.17519565241636E-0001	
 8.40500000000000E+0002	 1.17583149876084E-0001	
 8.42500000000000E+0002	 1.17641734510533E-0001	
 8.44500000000000E+0002	 1.17747819144981E-0001	
 8.46500000000000E+0002	 1.17982903779430E-0001	
 8.48500000000000E+0002	 1.18321988413879E-0001	
 8.50500000000000E+0002	 1.18742073048327E-0001	
 8.52500000000000E+0002	 1.19263657682776E-0001	
 8.54500000000000E+0002	 1.19846742317224E-0001	
 8.56500000000000E+0002	 1.20402826951673E-0001	
 8.58500000000000E+0002	 1.20840411586121E-0001	
 8.60500000000000E+0002	 1.21050996220570E-0001	
 8.62500000000000E+0002	 1.20986080855019E-0001	
 8.64500000000000E+0002	 1.20630165489467E-0001	
 8.66500000000000E+0002	 1.20100250123916E-0001	
 8.68500000000000E+0002	 1.19607834758364E-0001	
 8.70500000000000E+0002	 1.19502419392813E-0001	
 8.72500000000000E+0002	 1.19444004027261E-0001	
 8.74500000000000E+0002	 1.18678088661710E-0001	
 8.76500000000000E+0002	 1.17463173296159E-0001	
 8.78500000000000E+0002	 1.16374757930607E-0001	
 8.80500000000000E+0002	 1.15452342565056E-0001	
 8.82500000000000E+0002	 1.14673927199504E-0001	
 8.84500000000000E+0002	 1.13955511833953E-0001	
 8.86500000000000E+0002	 1.13315596468401E-0001	
 8.88500000000000E+0002	 1.12766681102850E-0001	
 8.90500000000000E+0002	 1.12374765737299E-0001	
 8.92500000000000E+0002	 1.12129850371747E-0001	
 8.94500000000000E+0002	 1.12056435006196E-0001	
 8.96500000000000E+0002	 1.12043519640644E-0001	
 8.98500000000000E+0002	 1.12103104275093E-0001	
 9.00500000000000E+0002	 1.12199688909542E-0001	
 9.02500000000000E+0002	 1.12419273543990E-0001	
 9.04500000000000E+0002	 1.12799358178439E-0001	
 9.06500000000000E+0002	 1.13415442812887E-0001	
 9.08500000000000E+0002	 1.14177027447336E-0001	
 9.10500000000000E+0002	 1.14974612081784E-0001	
 9.12500000000000E+0002	 1.15612696716233E-0001	
 9.14500000000000E+0002	 1.16014781350682E-0001	
 9.16500000000000E+0002	 1.16073865985130E-0001	
 9.18500000000000E+0002	 1.15867450619579E-0001	
 9.20500000000000E+0002	 1.15499535254027E-0001	
 9.22500000000000E+0002	 1.15207119888476E-0001	
 9.24500000000000E+0002	 1.15120204522924E-0001	
 9.26500000000000E+0002	 1.15351789157373E-0001	
 9.28500000000000E+0002	 1.15842873791822E-0001	
 9.30500000000000E+0002	 1.16549958426270E-0001	
 9.32500000000000E+0002	 1.17336043060719E-0001	
 9.34500000000000E+0002	 1.18175127695167E-0001	
 9.36500000000000E+0002	 1.18985212329616E-0001	
 9.38500000000000E+0002	 1.19778796964064E-0001	
 9.40500000000000E+0002	 1.20461381598513E-0001	
 9.42500000000000E+0002	 1.21032966232962E-0001	
 9.44500000000000E+0002	 1.21414550867410E-0001	
 9.46500000000000E+0002	 1.21616135501859E-0001	
 9.48500000000000E+0002	 1.21600720136307E-0001	
 9.50500000000000E+0002	 1.21493804770756E-0001	
 9.52500000000000E+0002	 1.21452389405204E-0001	
 9.54500000000000E+0002	 1.21718974039653E-0001	
 9.56500000000000E+0002	 1.22370558674102E-0001	
 9.58500000000000E+0002	 1.23442643308550E-0001	
 9.60500000000000E+0002	 1.24816727942999E-0001	
 9.62500000000000E+0002	 1.26412812577447E-0001	
 9.64500000000000E+0002	 1.28092397211896E-0001	
 9.66500000000000E+0002	 1.29795481846344E-0001	
 9.68500000000000E+0002	 1.31462066480793E-0001	
 9.70500000000000E+0002	 1.33191651115242E-0001	
 9.72500000000000E+0002	 1.35111735749690E-0001	
 9.74500000000000E+0002	 1.37516820384139E-0001	
 9.76500000000000E+0002	 1.40658905018587E-0001	
 9.78500000000000E+0002	 1.44715989653036E-0001	
 9.80500000000000E+0002	 1.49644574287485E-0001	
 9.82500000000000E+0002	 1.55180658921933E-0001	
 9.84500000000000E+0002	 1.60784743556382E-0001	
 9.86500000000000E+0002	 1.65885328190830E-0001	
 9.88500000000000E+0002	 1.69996912825279E-0001	
 9.90500000000000E+0002	 1.72828497459727E-0001	
 9.92500000000000E+0002	 1.74214582094176E-0001	
 9.94500000000000E+0002	 1.74247666728625E-0001	
 9.96500000000000E+0002	 1.73221751363073E-0001	
 9.98500000000000E+0002	 1.71664335997522E-0001	
 1.00050000000000E+0003	 1.70205420631970E-0001	
 1.00250000000000E+0003	 1.69412005266419E-0001	
 1.00450000000000E+0003	 1.69638089900867E-0001	
 1.00650000000000E+0003	 1.71022674535316E-0001	
 1.00850000000000E+0003	 1.73415259169765E-0001	
 1.01050000000000E+0003	 1.76424343804213E-0001	
 1.01250000000000E+0003	 1.79610428438662E-0001	
 1.01450000000000E+0003	 1.82669513073110E-0001	
 1.01650000000000E+0003	 1.85476597707559E-0001	
 1.01850000000000E+0003	 1.88133182342007E-0001	
 1.02050000000000E+0003	 1.90882266976456E-0001	
 1.02250000000000E+0003	 1.93951351610905E-0001	
 1.02450000000000E+0003	 1.97429936245353E-0001	
 1.02650000000000E+0003	 2.01105520879802E-0001	
 1.02850000000000E+0003	 2.04580105514250E-0001	
 1.03050000000000E+0003	 2.07477690148699E-0001	
 1.03250000000000E+0003	 2.09606274783147E-0001	
 1.03450000000000E+0003	 2.11008359417596E-0001	
 1.03650000000000E+0003	 2.11924944052045E-0001	
 1.03850000000000E+0003	 2.12624528686493E-0001	
 1.04050000000000E+0003	 2.13388613320942E-0001	
 1.04250000000000E+0003	 2.14438197955390E-0001	
 1.04450000000000E+0003	 2.15837282589839E-0001	
 1.04650000000000E+0003	 2.17457367224287E-0001	
 1.04850000000000E+0003	 2.19063951858736E-0001	
 1.05050000000000E+0003	 2.20319036493185E-0001	
 1.05250000000000E+0003	 2.21012121127633E-0001	
 1.05450000000000E+0003	 2.21253205762082E-0001	
 1.05650000000000E+0003	 2.21292290396530E-0001	
 1.05850000000000E+0003	 2.21212375030979E-0001	
 1.06050000000000E+0003	 2.20966959665428E-0001	
 1.06250000000000E+0003	 2.20529544299876E-0001	
 1.06450000000000E+0003	 2.20100128934325E-0001	
 1.06650000000000E+0003	 2.19972213568773E-0001	
 1.06850000000000E+0003	 2.20342298203222E-0001	
 1.07050000000000E+0003	 2.21194882837670E-0001	
 1.07250000000000E+0003	 2.22368967472119E-0001	
 1.07450000000000E+0003	 2.23567052106568E-0001	
 1.07650000000000E+0003	 2.24450636741016E-0001	
 1.07850000000000E+0003	 2.24709221375465E-0001	
 1.08050000000000E+0003	 2.24200306009913E-0001	
 1.08250000000000E+0003	 2.22944390644362E-0001	
 1.08450000000000E+0003	 2.21074475278810E-0001	
 1.08650000000000E+0003	 2.18724559913259E-0001	
 1.08850000000000E+0003	 2.16077644547708E-0001	
 1.09050000000000E+0003	 2.13348729182156E-0001	
 1.09250000000000E+0003	 2.10830813816605E-0001	
 1.09450000000000E+0003	 2.08766898451053E-0001	
 1.09650000000000E+0003	 2.07246983085502E-0001	
 1.09850000000000E+0003	 2.06168067719950E-0001	
 1.10050000000000E+0003	 2.05369152354399E-0001	
 1.10250000000000E+0003	 2.04674236988848E-0001	
 1.10450000000000E+0003	 2.03962821623296E-0001	
 1.10650000000000E+0003	 2.03187406257745E-0001	
 1.10850000000000E+0003	 2.02381490892193E-0001	
 1.11050000000000E+0003	 2.01575075526642E-0001	
 1.11250000000000E+0003	 2.00701660161090E-0001	
 1.11450000000000E+0003	 1.99565744795539E-0001	
 1.11650000000000E+0003	 1.97995829429988E-0001	
 1.11850000000000E+0003	 1.95914414064436E-0001	
 1.12050000000000E+0003	 1.93345498698885E-0001	
 1.12250000000000E+0003	 1.90354583333333E-0001	
 1.12450000000000E+0003	 1.87045167967782E-0001	
 1.12650000000000E+0003	 1.83507252602230E-0001	
 1.12850000000000E+0003	 1.79845337236679E-0001	
 1.13050000000000E+0003	 1.76195921871128E-0001	
 1.13250000000000E+0003	 1.72749506505576E-0001	
 1.13450000000000E+0003	 1.69692091140025E-0001	
 1.13650000000000E+0003	 1.67184675774473E-0001	
 1.13850000000000E+0003	 1.65403760408922E-0001	
 1.14050000000000E+0003	 1.64485845043371E-0001	
 1.14250000000000E+0003	 1.64416429677819E-0001	
 1.14450000000000E+0003	 1.64960014312268E-0001	
 1.14650000000000E+0003	 1.65702598946716E-0001	
 1.14850000000000E+0003	 1.66166683581165E-0001	
 1.15050000000000E+0003	 1.65975768215613E-0001	
 1.15250000000000E+0003	 1.64956352850062E-0001	
 1.15450000000000E+0003	 1.63139437484511E-0001	
 1.15650000000000E+0003	 1.60725522118959E-0001	
 1.15850000000000E+0003	 1.57997606753408E-0001	
 1.16050000000000E+0003	 1.55197191387856E-0001	
 1.16250000000000E+0003	 1.52494276022305E-0001	
 1.16450000000000E+0003	 1.49968360656753E-0001	
 1.16650000000000E+0003	 1.47681945291202E-0001	
 1.16850000000000E+0003	 1.45668029925651E-0001	
 1.17050000000000E+0003	 1.43928114560099E-0001	
 1.17250000000000E+0003	 1.42403699194548E-0001	
 1.17450000000000E+0003	 1.40995783828996E-0001	
 1.17650000000000E+0003	 1.39682368463445E-0001	
 1.17850000000000E+0003	 1.38575453097893E-0001	
 1.18050000000000E+0003	 1.37799037732342E-0001	
 1.18250000000000E+0003	 1.37443122366791E-0001	
 1.18450000000000E+0003	 1.37577707001239E-0001	
 1.18650000000000E+0003	 1.38275291635688E-0001	
 1.18850000000000E+0003	 1.39543376270136E-0001	
 1.19050000000000E+0003	 1.41355960904585E-0001	
 1.19250000000000E+0003	 1.43668545539033E-0001	
 1.19450000000000E+0003	 1.46417630173482E-0001	
 1.19650000000000E+0003	 1.49495214807931E-0001	
 1.19850000000000E+0003	 1.52754799442379E-0001	
 1.20050000000000E+0003	 1.56009384076828E-0001	
 1.20250000000000E+0003	 1.59136468711276E-0001	
 1.20450000000000E+0003	 1.62024053345725E-0001	
 1.20650000000000E+0003	 1.64602137980173E-0001	
 1.20850000000000E+0003	 1.66836722614622E-0001	
 1.21050000000000E+0003	 1.68832807249071E-0001	
 1.21250000000000E+0003	 1.70751391883519E-0001	
 1.21450000000000E+0003	 1.72727976517968E-0001	
 1.21650000000000E+0003	 1.74642561152416E-0001	
 1.21850000000000E+0003	 1.76113145786865E-0001	
 1.22050000000000E+0003	 1.77076730421314E-0001	
 1.22250000000000E+0003	 1.77926815055762E-0001	
 1.22450000000000E+0003	 1.78781399690211E-0001	
 1.22650000000000E+0003	 1.79585984324659E-0001	
 1.22850000000000E+0003	 1.80301068959108E-0001	
 1.23050000000000E+0003	 1.80863153593556E-0001	
 1.23250000000000E+0003	 1.81166238228005E-0001	
 1.23450000000000E+0003	 1.81194322862454E-0001	
 1.23650000000000E+0003	 1.80928907496902E-0001	
 1.23850000000000E+0003	 1.80404992131351E-0001	
 1.24050000000000E+0003	 1.79620076765799E-0001	
 1.24250000000000E+0003	 1.78598161400248E-0001	
 1.24450000000000E+0003	 1.77346246034696E-0001	
 1.24650000000000E+0003	 1.75894330669145E-0001	
 1.24850000000000E+0003	 1.74256415303594E-0001	
 1.25050000000000E+0003	 1.72473999938042E-0001	
 1.25250000000000E+0003	 1.70577584572491E-0001	
 1.25450000000000E+0003	 1.68627669206939E-0001	
 1.25650000000000E+0003	 1.66638753841388E-0001	
 1.25850000000000E+0003	 1.64634338475836E-0001	
 1.26050000000000E+0003	 1.62587923110285E-0001	
 1.26250000000000E+0003	 1.60535007744734E-0001	
 1.26450000000000E+0003	 1.58540592379182E-0001	
 1.26650000000000E+0003	 1.56653177013631E-0001	
 1.26850000000000E+0003	 1.54889261648079E-0001	
 1.27050000000000E+0003	 1.53287846282528E-0001	
 1.27250000000000E+0003	 1.51837430916976E-0001	
 1.27450000000000E+0003	 1.50576015551425E-0001	
 1.27650000000000E+0003	 1.49480100185874E-0001	
 1.27850000000000E+0003	 1.48524184820322E-0001	
 1.28050000000000E+0003	 1.47668769454771E-0001	
 1.28250000000000E+0003	 1.46833854089219E-0001	
 1.28450000000000E+0003	 1.45963438723668E-0001	
 1.28650000000000E+0003	 1.45129523358116E-0001	
 1.28850000000000E+0003	 1.44369107992565E-0001	
 1.29050000000000E+0003	 1.43745692627014E-0001	
 1.29250000000000E+0003	 1.43280277261462E-0001	
 1.29450000000000E+0003	 1.42969361895911E-0001	
 1.29650000000000E+0003	 1.42810946530359E-0001	
 1.29850000000000E+0003	 1.42836531164808E-0001	
 1.30050000000000E+0003	 1.43022615799257E-0001	
 1.30250000000000E+0003	 1.43310700433705E-0001	
 1.30450000000000E+0003	 1.43619285068154E-0001	
 1.30650000000000E+0003	 1.43952369702602E-0001	
 1.30850000000000E+0003	 1.44288954337051E-0001	
 1.31050000000000E+0003	 1.44647538971499E-0001	
 1.31250000000000E+0003	 1.45006123605948E-0001	
 1.31450000000000E+0003	 1.45293708240397E-0001	
 1.31650000000000E+0003	 1.45476792874845E-0001	
 1.31850000000000E+0003	 1.45551877509294E-0001	
 1.32050000000000E+0003	 1.45449462143742E-0001	
 1.32250000000000E+0003	 1.45316546778191E-0001	
 1.32450000000000E+0003	 1.45140631412639E-0001	
 1.32650000000000E+0003	 1.44924716047088E-0001	
 1.32850000000000E+0003	 1.44709300681537E-0001	
 1.33050000000000E+0003	 1.44537885315985E-0001	
 1.33250000000000E+0003	 1.44378969950434E-0001	
 1.33450000000000E+0003	 1.44192554584882E-0001	
 1.33650000000000E+0003	 1.43879639219331E-0001	
 1.33850000000000E+0003	 1.43431223853779E-0001	
 1.34050000000000E+0003	 1.42815808488228E-0001	
 1.34250000000000E+0003	 1.42245893122677E-0001	
 1.34450000000000E+0003	 1.41812977757125E-0001	
 1.34650000000000E+0003	 1.41289062391574E-0001	
 1.34850000000000E+0003	 1.40784647026022E-0001	
 1.35050000000000E+0003	 1.40478731660471E-0001	
 1.35250000000000E+0003	 1.40422316294919E-0001	
 1.35450000000000E+0003	 1.40598400929368E-0001	
 1.35650000000000E+0003	 1.40905485563817E-0001	
 1.35850000000000E+0003	 1.41395570198265E-0001	
 1.36050000000000E+0003	 1.42037654832714E-0001	
 1.36250000000000E+0003	 1.43036739467162E-0001	
 1.36450000000000E+0003	 1.44741324101611E-0001	
 1.36650000000000E+0003	 1.47108908736059E-0001	
 1.36850000000000E+0003	 1.49434493370508E-0001	
 1.37050000000000E+0003	 1.51291578004957E-0001	
 1.37250000000000E+0003	 1.52709662639405E-0001	
 1.37450000000000E+0003	 1.53803247273854E-0001	
 1.37650000000000E+0003	 1.54652331908302E-0001	
 1.37850000000000E+0003	 1.55450416542751E-0001	
 1.38050000000000E+0003	 1.55833501177200E-0001	
 1.38250000000000E+0003	 1.56054585811648E-0001	
 1.38450000000000E+0003	 1.56104170446097E-0001	
 1.38650000000000E+0003	 1.55822755080545E-0001	
 1.38850000000000E+0003	 1.55600339714994E-0001	
 1.39050000000000E+0003	 1.55900424349442E-0001	
 1.39250000000000E+0003	 1.56285008983891E-0001	
 1.39450000000000E+0003	 1.56503093618340E-0001	
 1.39650000000000E+0003	 1.56783178252788E-0001	
 1.39850000000000E+0003	 1.57260262887237E-0001	
 1.40050000000000E+0003	 1.57755847521685E-0001	
 1.40250000000000E+0003	 1.58095432156134E-0001	
 1.40450000000000E+0003	 1.58054516790582E-0001	
 1.40650000000000E+0003	 1.57458601425031E-0001	
 1.40850000000000E+0003	 1.57106186059480E-0001	
 1.41050000000000E+0003	 1.56772770693928E-0001	
 1.41250000000000E+0003	 1.56283355328377E-0001	
 1.41450000000000E+0003	 1.55807939962825E-0001	
 1.41650000000000E+0003	 1.54992024597274E-0001	
 1.41850000000000E+0003	 1.53698609231722E-0001	
 1.42050000000000E+0003	 1.52727193866171E-0001	
 1.42250000000000E+0003	 1.52382278500620E-0001	
 1.42450000000000E+0003	 1.51833863135068E-0001	
 1.42650000000000E+0003	 1.50802947769517E-0001	
 1.42850000000000E+0003	 1.49938532403965E-0001	
 1.43050000000000E+0003	 1.49055617038414E-0001	
 1.43250000000000E+0003	 1.48715201672862E-0001	
 1.43450000000000E+0003	 1.48505786307311E-0001	
 1.43650000000000E+0003	 1.48456870941760E-0001	
 1.43850000000000E+0003	 1.49027455576208E-0001	
 1.44050000000000E+0003	 1.50458040210657E-0001	
 1.44250000000000E+0003	 1.51845124845105E-0001	
 1.44450000000000E+0003	 1.52716209479554E-0001	
 1.44650000000000E+0003	 1.53338294114002E-0001	
 1.44850000000000E+0003	 1.54018878748451E-0001	
 1.45050000000000E+0003	 1.54905963382900E-0001	
 1.45250000000000E+0003	 1.55902548017348E-0001	
 1.45450000000000E+0003	 1.55782632651797E-0001	
 1.45650000000000E+0003	 1.54971717286245E-0001	
 1.45850000000000E+0003	 1.53113301920694E-0001	
 1.46050000000000E+0003	 1.52236386555143E-0001	
 1.46250000000000E+0003	 1.51695971189591E-0001	
 1.46450000000000E+0003	 1.49930555824040E-0001	
 1.46650000000000E+0003	 1.47583640458488E-0001	
 1.46850000000000E+0003	 1.45812725092937E-0001	
 1.47050000000000E+0003	 1.43359309727385E-0001	
 1.47250000000000E+0003	 1.39749394361834E-0001	
 1.47450000000000E+0003	 1.36220978996283E-0001	
 1.47650000000000E+0003	 1.34273563630731E-0001	
 1.47850000000000E+0003	 1.33336148265180E-0001	
 1.48050000000000E+0003	 1.32866732899628E-0001	
 1.48250000000000E+0003	 1.32429817534077E-0001	
 1.48450000000000E+0003	 1.32113402168525E-0001	
 1.48650000000000E+0003	 1.32029986802974E-0001	
 1.48850000000000E+0003	 1.31952071437423E-0001	
 1.49050000000000E+0003	 1.32640656071871E-0001	
 1.49250000000000E+0003	 1.34374740706320E-0001	
 1.49450000000000E+0003	 1.36641825340768E-0001	
 1.49650000000000E+0003	 1.38968409975217E-0001	
 1.49850000000000E+0003	 1.40409994609665E-0001	
 1.50050000000000E+0003	 1.42579579244114E-0001	
 1.50250000000000E+0003	 1.45297163878563E-0001	
 1.50450000000000E+0003	 1.47428248513011E-0001	
 1.50650000000000E+0003	 1.50412333147460E-0001	
 1.50850000000000E+0003	 1.53515417781908E-0001	
 1.51050000000000E+0003	 1.57368002416357E-0001	
 1.51250000000000E+0003	 1.62439087050805E-0001	
 1.51450000000000E+0003	 1.66701171685254E-0001	
 1.51650000000000E+0003	 1.70063756319703E-0001	
 1.51850000000000E+0003	 1.72228340954151E-0001	
 1.52050000000000E+0003	 1.74890425588600E-0001	
 1.52250000000000E+0003	 1.78544510223048E-0001	
 1.52450000000000E+0003	 1.81546094857497E-0001	
 1.52650000000000E+0003	 1.85571179491945E-0001	
 1.52850000000000E+0003	 1.89461264126394E-0001	
 1.53050000000000E+0003	 1.92775848760843E-0001	
 1.53250000000000E+0003	 1.95548433395291E-0001	
 1.53450000000000E+0003	 1.98326518029740E-0001	
 1.53650000000000E+0003	 2.00611602664188E-0001	
 1.53850000000000E+0003	 2.03265687298637E-0001	
 1.54050000000000E+0003	 2.04990771933086E-0001	
 1.54250000000000E+0003	 2.05786856567534E-0001	
 1.54450000000000E+0003	 2.08022941201983E-0001	
 1.54650000000000E+0003	 2.10016025836431E-0001	
 1.54850000000000E+0003	 2.10674610470880E-0001	
 1.55050000000000E+0003	 2.09887695105328E-0001	
 1.55250000000000E+0003	 2.07674279739777E-0001	
 1.55450000000000E+0003	 2.04981864374226E-0001	
 1.55650000000000E+0003	 2.00844949008674E-0001	
 1.55850000000000E+0003	 1.96371033643123E-0001	
 1.56050000000000E+0003	 1.92049618277571E-0001	
 1.56250000000000E+0003	 1.91183202912020E-0001	
 1.56450000000000E+0003	 1.89765787546468E-0001	
 1.56650000000000E+0003	 1.87328872180917E-0001	
 1.56850000000000E+0003	 1.84547956815366E-0001	
 1.57050000000000E+0003	 1.81849041449814E-0001	
 1.57250000000000E+0003	 1.79936126084263E-0001	
 1.57450000000000E+0003	 1.78678710718711E-0001	
 1.57650000000000E+0003	 1.77473795353160E-0001	
 1.57850000000000E+0003	 1.75449379987608E-0001	
 1.58050000000000E+0003	 1.74077964622057E-0001	
 1.58250000000000E+0003	 1.73478549256506E-0001	
 1.58450000000000E+0003	 1.72748133890954E-0001	
 1.58650000000000E+0003	 1.72333218525403E-0001	
 1.58850000000000E+0003	 1.72312303159851E-0001	
 1.59050000000000E+0003	 1.72687387794300E-0001	
 1.59250000000000E+0003	 1.73439472428748E-0001	
 1.59450000000000E+0003	 1.74535057063197E-0001	
 1.59650000000000E+0003	 1.75935641697646E-0001	
 1.59850000000000E+0003	 1.77632226332094E-0001	
 1.60050000000000E+0003	 1.79659310966543E-0001	
 1.60250000000000E+0003	 1.81946895600991E-0001	
 1.60450000000000E+0003	 1.84571980235440E-0001	
 1.60650000000000E+0003	 1.87603564869888E-0001	
 1.60850000000000E+0003	 1.91167649504337E-0001	
 1.61050000000000E+0003	 1.95201234138786E-0001	
 1.61250000000000E+0003	 1.99686318773234E-0001	
 1.61450000000000E+0003	 2.03996903407683E-0001	
 1.61650000000000E+0003	 2.09994988042131E-0001	
 1.61850000000000E+0003	 2.16461072676580E-0001	
 1.62050000000000E+0003	 2.21687157311029E-0001	
 1.62250000000000E+0003	 2.28003741945477E-0001	
 1.62450000000000E+0003	 2.34907826579926E-0001	
 1.62650000000000E+0003	 2.41727911214374E-0001	
 1.62850000000000E+0003	 2.49207995848823E-0001	
 1.63050000000000E+0003	 2.56473080483271E-0001	
 1.63250000000000E+0003	 2.62360165117720E-0001	
 1.63450000000000E+0003	 2.67581249752169E-0001	
 1.63650000000000E+0003	 2.73243834386617E-0001	
 1.63850000000000E+0003	 2.77728919021066E-0001	
 1.64050000000000E+0003	 2.81914503655514E-0001	
 1.64250000000000E+0003	 2.85239088289963E-0001	
 1.64450000000000E+0003	 2.87105172924411E-0001	
 1.64650000000000E+0003	 2.89134257558860E-0001	
 1.64850000000000E+0003	 2.90409842193309E-0001	
 1.65050000000000E+0003	 2.91165926827757E-0001	
 1.65250000000000E+0003	 2.93855511462206E-0001	
 1.65450000000000E+0003	 2.95180596096654E-0001	
 1.65650000000000E+0003	 2.94906680731103E-0001	
 1.65850000000000E+0003	 2.94772765365551E-0001	
 1.66050000000000E+0003	 2.92784350000000E-0001	
 1.66250000000000E+0003	 2.89029434634449E-0001	
 1.66450000000000E+0003	 2.84598519268897E-0001	
 1.66650000000000E+0003	 2.80589103903346E-0001	
 1.66850000000000E+0003	 2.76081688537794E-0001	
 1.67050000000000E+0003	 2.70655773172243E-0001	
 1.67250000000000E+0003	 2.65811857806691E-0001	
 1.67450000000000E+0003	 2.61817942441140E-0001	
 1.67650000000000E+0003	 2.57508027075589E-0001	
 1.67850000000000E+0003	 2.53720111710037E-0001	
 1.68050000000000E+0003	 2.50028196344486E-0001	
 1.68250000000000E+0003	 2.45079780978934E-0001	
 1.68450000000000E+0003	 2.40162365613383E-0001	
 1.68650000000000E+0003	 2.36017950247831E-0001	
 1.68850000000000E+0003	 2.32338534882280E-0001	
 1.69050000000000E+0003	 2.28368619516729E-0001	
 1.69250000000000E+0003	 2.23891704151177E-0001	
 1.69450000000000E+0003	 2.19573788785626E-0001	
 1.69650000000000E+0003	 2.15005873420074E-0001	
 1.69850000000000E+0003	 2.08821958054523E-0001	
 1.70050000000000E+0003	 2.03690042688971E-0001	
 1.70250000000000E+0003	 1.99695127323420E-0001	
 1.70450000000000E+0003	 1.96826711957869E-0001	
 1.70650000000000E+0003	 1.94037796592317E-0001	
 1.70850000000000E+0003	 1.91007381226766E-0001	
 1.71050000000000E+0003	 1.88541965861214E-0001	
 1.71250000000000E+0003	 1.85360050495663E-0001	
 1.71450000000000E+0003	 1.81474135130112E-0001	
 1.71650000000000E+0003	 1.77312719764560E-0001	
 1.71850000000000E+0003	 1.73213304399009E-0001	
 1.72050000000000E+0003	 1.69433389033457E-0001	
 1.72250000000000E+0003	 1.67000473667906E-0001	
 1.72450000000000E+0003	 1.64572558302354E-0001	
 1.72650000000000E+0003	 1.61984142936803E-0001	
 1.72850000000000E+0003	 1.59832227571252E-0001	
 1.73050000000000E+0003	 1.57770312205700E-0001	
 1.73250000000000E+0003	 1.55949396840149E-0001	
 1.73450000000000E+0003	 1.55465981474597E-0001	
 1.73650000000000E+0003	 1.54748066109046E-0001	
 1.73850000000000E+0003	 1.54497150743494E-0001	
 1.74050000000000E+0003	 1.54837235377943E-0001	
 1.74250000000000E+0003	 1.54728320012392E-0001	
 1.74450000000000E+0003	 1.54848904646840E-0001	
 1.74650000000000E+0003	 1.54352989281289E-0001	
 1.74850000000000E+0003	 1.53011573915737E-0001	
 1.75050000000000E+0003	 1.51186158550186E-0001	
 1.75250000000000E+0003	 1.49487743184634E-0001	
 1.75450000000000E+0003	 1.47135327819083E-0001	
 1.75650000000000E+0003	 1.44324912453532E-0001	
 1.75850000000000E+0003	 1.40950497087980E-0001	
 1.76050000000000E+0003	 1.37485581722429E-0001	
 1.76250000000000E+0003	 1.34197166356877E-0001	
 1.76450000000000E+0003	 1.31110750991326E-0001	
 1.76650000000000E+0003	 1.28571835625774E-0001	
 1.76850000000000E+0003	 1.25930420260223E-0001	
 1.77050000000000E+0003	 1.22717004894672E-0001	
 1.77250000000000E+0003	 1.20333089529120E-0001	
 1.77450000000000E+0003	 1.18713674163569E-0001	
 1.77650000000000E+0003	 1.17552758798017E-0001	
 1.77850000000000E+0003	 1.16667843432466E-0001	
 1.78050000000000E+0003	 1.15492428066914E-0001	
 1.78250000000000E+0003	 1.14121512701363E-0001	
 1.78450000000000E+0003	 1.13104097335812E-0001	
 1.78650000000000E+0003	 1.12334181970260E-0001	
 1.78850000000000E+0003	 1.11410766604709E-0001	
 1.79050000000000E+0003	 1.10268851239157E-0001	
 1.79250000000000E+0003	 1.09026935873606E-0001	
 1.79450000000000E+0003	 1.08146520508055E-0001	
 1.79650000000000E+0003	 1.07822605142503E-0001	
 1.79850000000000E+0003	 1.07377689776952E-0001	
 1.80050000000000E+0003	 1.06503774411400E-0001	
 1.80250000000000E+0003	 1.05727359045849E-0001	
 1.80450000000000E+0003	 1.05323443680297E-0001	
 1.80650000000000E+0003	 1.05068528314746E-0001	
 1.80850000000000E+0003	 1.04595112949195E-0001	
 1.81050000000000E+0003	 1.03914197583643E-0001	
 1.81250000000000E+0003	 1.03279282218092E-0001	
 1.81450000000000E+0003	 1.02833866852540E-0001	
 1.81650000000000E+0003	 1.02551451486989E-0001	
 1.81850000000000E+0003	 1.02119036121437E-0001	
 1.82050000000000E+0003	 1.01666120755886E-0001	
 1.82250000000000E+0003	 1.01142705390335E-0001	
 1.82450000000000E+0003	 1.00467790024783E-0001	
 1.82650000000000E+0003	 9.97193746592317E-0002	
 1.82850000000000E+0003	 9.90064592936803E-0002	
 1.83050000000000E+0003	 9.86220439281289E-0002	
 1.83250000000000E+0003	 9.83336285625774E-0002	
 1.83450000000000E+0003	 9.85682131970260E-0002	
 1.83650000000000E+0003	 9.85857978314746E-0002	
 1.83850000000000E+0003	 9.82448824659232E-0002	
 1.84050000000000E+0003	 9.78404671003717E-0002	
 1.84250000000000E+0003	 9.71920517348203E-0002	
 1.84450000000000E+0003	 9.66886363692689E-0002	
 1.84650000000000E+0003	 9.61962210037175E-0002	
 1.84850000000000E+0003	 9.61778056381660E-0002	
 1.85050000000000E+0003	 9.63548902726146E-0002	
 1.85250000000000E+0003	 9.62289749070632E-0002	
 1.85450000000000E+0003	 9.60565595415118E-0002	
 1.85650000000000E+0003	 9.58096441759603E-0002	
 1.85850000000000E+0003	 9.55852288104089E-0002	
 1.86050000000000E+0003	 9.53523134448575E-0002	
 1.86250000000000E+0003	 9.51328980793061E-0002	
 1.86450000000000E+0003	 9.48949827137546E-0002	
 1.86650000000000E+0003	 9.44555673482032E-0002	
 1.86850000000000E+0003	 9.38266519826518E-0002	
 1.87050000000000E+0003	 9.33862366171004E-0002	
 1.87250000000000E+0003	 9.34718212515489E-0002	
 1.87450000000000E+0003	 9.38054058859975E-0002	
 1.87650000000000E+0003	 9.38009905204461E-0002	
 1.87850000000000E+0003	 9.36355751548947E-0002	
 1.88050000000000E+0003	 9.34681597893432E-0002	
 1.88250000000000E+0003	 9.33152444237918E-0002	
 1.88450000000000E+0003	 9.31643290582404E-0002	
 1.88650000000000E+0003	 9.29474136926890E-0002	
 1.88850000000000E+0003	 9.26359983271375E-0002	
 1.89050000000000E+0003	 9.23820829615861E-0002	
 1.89250000000000E+0003	 9.22016675960347E-0002	
 1.89450000000000E+0003	 9.23017522304833E-0002	
 1.89650000000000E+0003	 9.22428368649318E-0002	
 1.89850000000000E+0003	 9.21119214993804E-0002	
 1.90050000000000E+0003	 9.20790061338290E-0002	
 1.90250000000000E+0003	 9.20025907682776E-0002	
 1.90450000000000E+0003	 9.18756754027261E-0002	
 1.90650000000000E+0003	 9.17512600371747E-0002	
 1.90850000000000E+0003	 9.16008446716233E-0002	
 1.91050000000000E+0003	 9.14474293060719E-0002	
 1.91250000000000E+0003	 9.13085139405204E-0002	
 1.91450000000000E+0003	 9.12710985749690E-0002	
 1.91650000000000E+0003	 9.10346832094176E-0002	
 1.91850000000000E+0003	 9.08507678438662E-0002	
 1.92050000000000E+0003	 9.06323524783147E-0002	
 1.92250000000000E+0003	 9.06889371127633E-0002	
 1.92450000000000E+0003	 9.07000217472119E-0002	
 1.92650000000000E+0003	 9.06321063816605E-0002	
 1.92850000000000E+0003	 9.07296910161090E-0002	
 1.93050000000000E+0003	 9.07157756505576E-0002	
 1.93250000000000E+0003	 9.06463602850062E-0002	
 1.93450000000000E+0003	 9.05914449194548E-0002	
 1.93650000000000E+0003	 9.05280295539033E-0002	
 1.93850000000000E+0003	 9.04951141883519E-0002	
 1.94050000000000E+0003	 9.03586988228005E-0002	
 1.94250000000000E+0003	 9.02142834572491E-0002	
 1.94450000000000E+0003	 9.00243680916976E-0002	
 1.94650000000000E+0003	 9.00579527261462E-0002	
 1.94850000000000E+0003	 9.02095373605948E-0002	
 1.95050000000000E+0003	 9.02431219950434E-0002	
 1.95250000000000E+0003	 9.02392066294919E-0002	
 1.95450000000000E+0003	 9.02217912639405E-0002	
 1.95650000000000E+0003	 9.01923758983891E-0002	
 1.95850000000000E+0003	 9.01749605328377E-0002	
 1.96050000000000E+0003	 9.01690451672862E-0002	
 1.96250000000000E+0003	 9.01501298017348E-0002	
 1.96450000000000E+0003	 9.01062144361834E-0002	
 1.96650000000000E+0003	 9.00692990706320E-0002	
 1.96850000000000E+0003	 8.99938837050805E-0002	
 1.97050000000000E+0003	 8.99569683395291E-0002	
 1.97250000000000E+0003	 9.00435529739777E-0002	
 1.97450000000000E+0003	 9.00776376084263E-0002	
 1.97650000000000E+0003	 9.00677222428748E-0002	
 1.97850000000000E+0003	 9.00663068773234E-0002	
 1.98050000000000E+0003	 9.00658915117720E-0002	
 1.98250000000000E+0003	 9.00659761462206E-0002	
 1.98450000000000E+0003	 9.00710607806691E-0002	
 1.98650000000000E+0003	 9.00641454151177E-0002	
 1.98850000000000E+0003	 9.00582300495663E-0002	
 1.99050000000000E+0003	 8.99813146840149E-0002	
 1.99250000000000E+0003	 8.99443993184634E-0002	
 1.99450000000000E+0003	 8.99139839529120E-0002	
 1.99650000000000E+0003	 9.00090685873606E-0002	
 1.99850000000000E+0003	 9.01316532218092E-0002	
 2.00050000000000E+0003	 9.01502378562577E-0002	
 2.00250000000000E+0003	 9.01678224907063E-0002	
 2.00450000000000E+0003	 9.02014071251549E-0002	
 2.00650000000000E+0003	 9.02304917596035E-0002	
 2.00850000000000E+0003	 9.02615763940520E-0002	
 2.01050000000000E+0003	 9.02871610285006E-0002	
 2.01250000000000E+0003	 9.03287456629492E-0002	
 2.01450000000000E+0003	 9.03633302973978E-0002	
 2.01650000000000E+0003	 9.03944149318463E-0002	
 2.01850000000000E+0003	 9.04044995662949E-0002	
 2.02050000000000E+0003	 9.04265842007435E-0002	
 2.02250000000000E+0003	 9.05256688351921E-0002	
 2.02450000000000E+0003	 9.06002534696406E-0002	
 2.02650000000000E+0003	 9.06433381040892E-0002	
 2.02850000000000E+0003	 9.06954227385378E-0002	
 2.03050000000000E+0003	 9.07505073729864E-0002	
 2.03250000000000E+0003	 9.07980920074349E-0002	
 2.03450000000000E+0003	 9.08431766418835E-0002	
 2.03650000000000E+0003	 9.08927612763321E-0002	
 2.03850000000000E+0003	 9.09368459107807E-0002	
 2.04050000000000E+0003	 9.09799305452292E-0002	
 2.04250000000000E+0003	 9.10155151796778E-0002	
 2.04450000000000E+0003	 9.10355998141264E-0002	
 2.04650000000000E+0003	 9.10891844485750E-0002	
 2.04850000000000E+0003	 9.11372690830235E-0002	
 2.05050000000000E+0003	 9.11783537174721E-0002	
 2.05250000000000E+0003	 9.12129383519207E-0002	
 2.05450000000000E+0003	 9.12475229863693E-0002	
 2.05650000000000E+0003	 9.12796076208178E-0002	
 2.05850000000000E+0003	 9.13116922552664E-0002	
 2.06050000000000E+0003	 9.13392768897150E-0002	
 2.06250000000000E+0003	 9.13563615241636E-0002	
 2.06450000000000E+0003	 9.13749461586121E-0002	
 2.06650000000000E+0003	 9.13845307930607E-0002	
 2.06850000000000E+0003	 9.13831154275093E-0002	
 2.07050000000000E+0003	 9.14332000619579E-0002	
 2.07250000000000E+0003	 9.14597846964064E-0002	
 2.07450000000000E+0003	 9.14778693308550E-0002	
 2.07650000000000E+0003	 9.14879539653036E-0002	
 2.07850000000000E+0003	 9.15085385997522E-0002	
 2.08050000000000E+0003	 9.15206232342007E-0002	
 2.08250000000000E+0003	 9.15347078686493E-0002	
 2.08450000000000E+0003	 9.15437925030979E-0002	
 2.08650000000000E+0003	 9.15583771375465E-0002	
 2.08850000000000E+0003	 9.15659617719950E-0002	
 2.09050000000000E+0003	 9.15815464064436E-0002	
 2.09250000000000E+0003	 9.15836310408922E-0002	
 2.09450000000000E+0003	 9.15957156753408E-0002	
 2.09650000000000E+0003	 9.16063003097893E-0002	
 2.09850000000000E+0003	 9.16158849442379E-0002	
 2.10050000000000E+0003	 9.16174695786865E-0002	
 2.10250000000000E+0003	 9.16190542131351E-0002	
 2.10450000000000E+0003	 9.16101388475836E-0002	
 2.10650000000000E+0003	 9.16087234820322E-0002	
 2.10850000000000E+0003	 9.15993081164808E-0002	
 2.11050000000000E+0003	 9.15988927509294E-0002	
 2.11250000000000E+0003	 9.15904773853779E-0002	
 2.11450000000000E+0003	 9.15815620198265E-0002	
 2.11650000000000E+0003	 9.15616466542751E-0002	
 2.11850000000000E+0003	 9.15522312887237E-0002	
 2.12050000000000E+0003	 9.15413159231722E-0002	
 2.12250000000000E+0003	 9.15309005576208E-0002	
 2.12450000000000E+0003	 9.15074851920694E-0002	
 2.12650000000000E+0003	 9.14890698265180E-0002	
 2.12850000000000E+0003	 9.14616544609665E-0002	
 2.13050000000000E+0003	 9.14342390954151E-0002	
 2.13250000000000E+0003	 9.14048237298637E-0002	
 2.13450000000000E+0003	 9.13779083643123E-0002	
 2.13650000000000E+0003	 9.13409929987608E-0002	
 2.13850000000000E+0003	 9.13020776332094E-0002	
 2.14050000000000E+0003	 9.12601622676580E-0002	
 2.14250000000000E+0003	 9.12207469021066E-0002	
 2.14450000000000E+0003	 9.11738315365551E-0002	
 2.14650000000000E+0003	 9.11314161710037E-0002	
 2.14850000000000E+0003	 9.10785008054523E-0002	
 2.15050000000000E+0003	 9.10295854399009E-0002	
 2.15250000000000E+0003	 9.09806700743494E-0002	
 2.15450000000000E+0003	 9.09322547087980E-0002	
 2.15650000000000E+0003	 9.08768393432466E-0002	
 2.15850000000000E+0003	 9.08214239776952E-0002	
 2.16050000000000E+0003	 9.07580086121437E-0002	
 2.16250000000000E+0003	 9.06955932465923E-0002	
 2.16450000000000E+0003	 9.06306778810409E-0002	
 2.16650000000000E+0003	 9.05777625154895E-0002	
 2.16850000000000E+0003	 9.05278471499380E-0002	
 2.17050000000000E+0003	 9.04649317843866E-0002	
 2.17250000000000E+0003	 9.03810164188352E-0002	
 2.17450000000000E+0003	 9.03051010532838E-0002	
 2.17650000000000E+0003	 9.02351856877323E-0002	
 2.17850000000000E+0003	 9.01687703221809E-0002	
 2.18050000000000E+0003	 9.01018549566295E-0002	
 2.18250000000000E+0003	 9.00359395910781E-0002	
 2.18450000000000E+0003	 8.99640242255266E-0002	
 2.18650000000000E+0003	 8.98941088599752E-0002	
 2.18850000000000E+0003	 8.98231934944238E-0002	
 2.19050000000000E+0003	 8.97542781288724E-0002	
 2.19250000000000E+0003	 8.96878627633209E-0002	
 2.19450000000000E+0003	 8.96209473977695E-0002	
 2.19650000000000E+0003	 8.95515320322181E-0002	
 2.19850000000000E+0003	 8.94836166666667E-0002	
 2.20050000000000E+0003	 8.94147013011152E-0002	
 2.20250000000000E+0003	 8.93497859355638E-0002	
 2.20450000000000E+0003	 8.92853705700124E-0002	
 2.20650000000000E+0003	 8.92259552044610E-0002	
 2.20850000000000E+0003	 8.91640398389095E-0002	
 2.21050000000000E+0003	 8.91041244733581E-0002	
 2.21250000000000E+0003	 8.90397091078067E-0002	
 2.21450000000000E+0003	 8.89772937422553E-0002	
 2.21650000000000E+0003	 8.89178783767038E-0002	
 2.21850000000000E+0003	 8.88589630111524E-0002	
 2.22050000000000E+0003	 8.87985476456010E-0002	
 2.22250000000000E+0003	 8.87456322800496E-0002	
 2.22450000000000E+0003	 8.86917169144981E-0002	
 2.22650000000000E+0003	 8.86363015489467E-0002	
 2.22850000000000E+0003	 8.85818861833953E-0002	
 2.23050000000000E+0003	 8.85369708178439E-0002	
 2.23250000000000E+0003	 8.84945554522924E-0002	
 2.23450000000000E+0003	 8.84556400867410E-0002	
 2.23650000000000E+0003	 8.84152247211896E-0002	
 2.23850000000000E+0003	 8.83733093556382E-0002	
 2.24050000000000E+0003	 8.83308939900867E-0002	
 2.24250000000000E+0003	 8.82944786245353E-0002	
 2.24450000000000E+0003	 8.82570632589839E-0002	
 2.24650000000000E+0003	 8.82246478934325E-0002	
 2.24850000000000E+0003	 8.81932325278810E-0002	
 2.25050000000000E+0003	 8.81633171623296E-0002	
 2.25250000000000E+0003	 8.81319017967782E-0002	
 2.25450000000000E+0003	 8.81074864312268E-0002	
 2.25650000000000E+0003	 8.80850710656753E-0002	
 2.25850000000000E+0003	 8.80606557001239E-0002	
 2.26050000000000E+0003	 8.80302403345725E-0002	
 2.26250000000000E+0003	 8.80068249690211E-0002	
 2.26450000000000E+0003	 8.79859096034696E-0002	
 2.26650000000000E+0003	 8.79689942379182E-0002	
 2.26850000000000E+0003	 8.79485788723668E-0002	
 2.27050000000000E+0003	 8.79281635068154E-0002	
 2.27250000000000E+0003	 8.79037481412639E-0002	
 2.27450000000000E+0003	 8.78808327757125E-0002	
 2.27650000000000E+0003	 8.78569174101611E-0002	
 2.27850000000000E+0003	 8.78295020446097E-0002	
 2.28050000000000E+0003	 8.77945866790582E-0002	
 2.28250000000000E+0003	 8.77661713135068E-0002	
 2.28450000000000E+0003	 8.77517559479554E-0002	
 2.28650000000000E+0003	 8.77403405824040E-0002	
 2.28850000000000E+0003	 8.77199252168525E-0002	
 2.29050000000000E+0003	 8.76945098513011E-0002	
 2.29250000000000E+0003	 8.76575944857497E-0002	
 2.29450000000000E+0003	 8.76201791201983E-0002	
 2.29650000000000E+0003	 8.75877637546468E-0002	
 2.29850000000000E+0003	 8.75683483890954E-0002	
 2.30050000000000E+0003	 8.75609330235440E-0002	
 2.30250000000000E+0003	 8.75685176579926E-0002	
 2.30450000000000E+0003	 8.75736022924411E-0002	
 2.30650000000000E+0003	 8.75651869268897E-0002	
 2.30850000000000E+0003	 8.75532715613383E-0002	
 2.31050000000000E+0003	 8.75468561957869E-0002	
 2.31250000000000E+0003	 8.75474408302354E-0002	
 2.31450000000000E+0003	 8.75515254646840E-0002	
 2.31650000000000E+0003	 8.75516100991326E-0002	
 2.31850000000000E+0003	 8.75461947335812E-0002	
 2.32050000000000E+0003	 8.75012793680297E-0002	
 2.32250000000000E+0003	 8.74438640024783E-0002	
 2.32450000000000E+0003	 8.74564486369269E-0002	
 2.32650000000000E+0003	 8.75555332713755E-0002	
 2.32850000000000E+0003	 8.76381179058240E-0002	
 2.33050000000000E+0003	 8.76587025402726E-0002	
 2.33250000000000E+0003	 8.77127871747212E-0002	
 2.33450000000000E+0003	 8.78778718091698E-0002	
 2.33650000000000E+0003	 8.80344564436183E-0002	
 2.33850000000000E+0003	 8.81060410780669E-0002	
 2.34050000000000E+0003	 8.80896257125155E-0002	
 2.34250000000000E+0003	 8.80322103469641E-0002	
 2.34450000000000E+0003	 8.79897949814126E-0002	
 2.34650000000000E+0003	 8.79658796158612E-0002	
 2.34850000000000E+0003	 8.80119642503098E-0002	
 2.35050000000000E+0003	 8.80225488847584E-0002	
 2.35250000000000E+0003	 8.79721335192069E-0002	
 2.35450000000000E+0003	 8.79747181536555E-0002	
 2.35650000000000E+0003	 8.80613027881041E-0002	
 2.35850000000000E+0003	 8.81773874225527E-0002	
 2.36050000000000E+0003	 8.82704720570012E-0002	
 2.36250000000000E+0003	 8.83060566914498E-0002	
 2.36450000000000E+0003	 8.82686413258984E-0002	
 2.36650000000000E+0003	 8.82197259603470E-0002	
 2.36850000000000E+0003	 8.82073105947955E-0002	
 2.37050000000000E+0003	 8.82753952292441E-0002	
 2.37250000000000E+0003	 8.84524798636927E-0002	
 2.37450000000000E+0003	 8.86610644981413E-0002	
 2.37650000000000E+0003	 8.87656491325898E-0002	
 2.37850000000000E+0003	 8.87152337670384E-0002	
 2.38050000000000E+0003	 8.86288184014870E-0002	
 2.38250000000000E+0003	 8.86399030359356E-0002	
 2.38450000000000E+0003	 8.87714876703841E-0002	
 2.38650000000000E+0003	 8.89520723048327E-0002	
 2.38850000000000E+0003	 8.91171569392813E-0002	
 2.39050000000000E+0003	 8.92427415737299E-0002	
 2.39250000000000E+0003	 8.93388262081784E-0002	
 2.39450000000000E+0003	 8.94249108426270E-0002	
 2.39650000000000E+0003	 8.95054954770756E-0002	
 2.39850000000000E+0003	 8.95845801115242E-0002	
 2.40050000000000E+0003	 8.96681647459727E-0002	
 2.40250000000000E+0003	 8.97587493804213E-0002	
 2.40450000000000E+0003	 8.98518340148699E-0002	
 2.40650000000000E+0003	 8.99479186493185E-0002	
 2.40850000000000E+0003	 9.00440032837670E-0002	
 2.41050000000000E+0003	 9.01385879182156E-0002	
 2.41250000000000E+0003	 9.02386725526642E-0002	
 2.41450000000000E+0003	 9.03502571871128E-0002	
 2.41650000000000E+0003	 9.04613418215613E-0002	
 2.41850000000000E+0003	 9.05719264560099E-0002	
 2.42050000000000E+0003	 9.06825110904585E-0002	
 2.42250000000000E+0003	 9.07985957249071E-0002	
 2.42450000000000E+0003	 9.09181803593556E-0002	
 2.42650000000000E+0003	 9.10442649938042E-0002	
 2.42850000000000E+0003	 9.11673496282528E-0002	
 2.43050000000000E+0003	 9.12924342627014E-0002	
 2.43250000000000E+0003	 9.14210188971499E-0002	
 2.43450000000000E+0003	 9.15536035315985E-0002	
 2.43650000000000E+0003	 9.16891881660471E-0002	
 2.43850000000000E+0003	 9.18282728004957E-0002	
 2.44050000000000E+0003	 9.19663574349442E-0002	
 2.44250000000000E+0003	 9.21079420693928E-0002	
 2.44450000000000E+0003	 9.22470267038414E-0002	
 2.44650000000000E+0003	 9.23861113382900E-0002	
 2.44850000000000E+0003	 9.25251959727385E-0002	
 2.45050000000000E+0003	 9.26677806071871E-0002	
 2.45250000000000E+0003	 9.28123652416357E-0002	
 2.45450000000000E+0003	 9.29619498760843E-0002	
 2.45650000000000E+0003	 9.31140345105328E-0002	
 2.45850000000000E+0003	 9.32676191449814E-0002	
 2.46050000000000E+0003	 9.34227037794300E-0002	
 2.46250000000000E+0003	 9.35832884138786E-0002	
 2.46450000000000E+0003	 9.37443730483271E-0002	
 2.46650000000000E+0003	 9.39074576827757E-0002	
 2.46850000000000E+0003	 9.40760423172243E-0002	
 2.47050000000000E+0003	 9.42471269516729E-0002	
 2.47250000000000E+0003	 9.44237115861214E-0002	
 2.47450000000000E+0003	 9.46052962205700E-0002	
 2.47650000000000E+0003	 9.47808808550186E-0002	
 2.47850000000000E+0003	 9.49514654894672E-0002	
 2.48050000000000E+0003	 9.51295501239157E-0002	
 2.48250000000000E+0003	 9.53111347583643E-0002	
 2.48450000000000E+0003	 9.54932193928129E-0002	
 2.48650000000000E+0003	 9.56728040272615E-0002	
 2.48850000000000E+0003	 9.58563886617100E-0002	
 2.49050000000000E+0003	 9.60424732961586E-0002	
 2.49250000000000E+0003	 9.62330579306072E-0002	
 2.49450000000000E+0003	 9.64181425650558E-0002	
 2.49650000000000E+0003	 9.66077271995043E-0002	
 2.49850000000000E+0003	 9.68008118339529E-0002	
 2.50050000000000E+0003	 9.69998964684015E-0002	
 2.50250000000000E+0003	 9.71954811028501E-0002	
 2.50450000000000E+0003	 9.73895657372986E-0002	
 2.50650000000000E+0003	 9.75836503717472E-0002	
 2.50850000000000E+0003	 9.77817350061958E-0002	
 2.51050000000000E+0003	 9.79743196406444E-0002	
 2.51250000000000E+0003	 9.81669042750929E-0002	
 2.51450000000000E+0003	 9.83559889095415E-0002	
 2.51650000000000E+0003	 9.85450735439901E-0002	
 2.51850000000000E+0003	 9.87221581784387E-0002	
 2.52050000000000E+0003	 9.88982428128872E-0002	
 2.52250000000000E+0003	 9.90748274473358E-0002	
 2.52450000000000E+0003	 9.92584120817844E-0002	
 2.52650000000000E+0003	 9.94314967162330E-0002	
 2.52850000000000E+0003	 9.96035813506815E-0002	
 2.53050000000000E+0003	 9.97731659851301E-0002	
 2.53250000000000E+0003	 9.99447506195787E-0002	
 2.53450000000000E+0003	 1.00106835254027E-0001	
 2.53650000000000E+0003	 1.00265919888476E-0001	
 2.53850000000000E+0003	 1.00417504522924E-0001	
 2.54050000000000E+0003	 1.00570089157373E-0001	
 2.54250000000000E+0003	 1.00716173791822E-0001	
 2.54450000000000E+0003	 1.00861758426270E-0001	
 2.54650000000000E+0003	 1.00998843060719E-0001	
 2.54850000000000E+0003	 1.01132927695167E-0001	
 2.55050000000000E+0003	 1.01261512329616E-0001	
 2.55250000000000E+0003	 1.01394096964064E-0001	
 2.55450000000000E+0003	 1.01526181598513E-0001	
 2.55650000000000E+0003	 1.01653266232962E-0001	
 2.55850000000000E+0003	 1.01773350867410E-0001	
 2.56050000000000E+0003	 1.01891435501859E-0001	
 2.56250000000000E+0003	 1.02005520136307E-0001	
 2.56450000000000E+0003	 1.02127104770756E-0001	
 2.56650000000000E+0003	 1.02247689405204E-0001	
 2.56850000000000E+0003	 1.02369774039653E-0001	
 2.57050000000000E+0003	 1.02492858674102E-0001	
 2.57250000000000E+0003	 1.02625943308550E-0001	
 2.57450000000000E+0003	 1.02765027942999E-0001	
 2.57650000000000E+0003	 1.02910112577447E-0001	
 2.57850000000000E+0003	 1.03061197211896E-0001	
 2.58050000000000E+0003	 1.03218781846344E-0001	
 2.58250000000000E+0003	 1.03387866480793E-0001	
 2.58450000000000E+0003	 1.03561451115242E-0001	
 2.58650000000000E+0003	 1.03740535749690E-0001	
 2.58850000000000E+0003	 1.03932620384139E-0001	
 2.59050000000000E+0003	 1.04132205018587E-0001	
 2.59250000000000E+0003	 1.04329789653036E-0001	
 2.59450000000000E+0003	 1.04529874287485E-0001	
 2.59650000000000E+0003	 1.04734958921933E-0001	
 2.59850000000000E+0003	 1.04945043556382E-0001	
 2.60050000000000E+0003	 1.05157128190830E-0001	
 2.60250000000000E+0003	 1.05375712825279E-0001	
 2.60450000000000E+0003	 1.05594797459727E-0001	
 2.60650000000000E+0003	 1.05816882094176E-0001	
 2.60850000000000E+0003	 1.06036966728625E-0001	
 2.61050000000000E+0003	 1.06256551363073E-0001	
 2.61250000000000E+0003	 1.06472135997522E-0001	
 2.61450000000000E+0003	 1.06692720631970E-0001	
 2.61650000000000E+0003	 1.06910305266419E-0001	
 2.61850000000000E+0003	 1.07126389900867E-0001	
 2.62050000000000E+0003	 1.07340974535316E-0001	
 2.62250000000000E+0003	 1.07564059169765E-0001	
 2.62450000000000E+0003	 1.07784643804213E-0001	
 2.62650000000000E+0003	 1.08002228438662E-0001	
 2.62850000000000E+0003	 1.08215813073110E-0001	
 2.63050000000000E+0003	 1.08429897707559E-0001	
 2.63250000000000E+0003	 1.08641982342007E-0001	
 2.63450000000000E+0003	 1.08859066976456E-0001	
 2.63650000000000E+0003	 1.09075651610905E-0001	
 2.63850000000000E+0003	 1.09294736245353E-0001	
 2.64050000000000E+0003	 1.09512320879802E-0001	
 2.64250000000000E+0003	 1.09727905514250E-0001	
 2.64450000000000E+0003	 1.09932990148699E-0001	
 2.64650000000000E+0003	 1.10143074783147E-0001	
 2.64850000000000E+0003	 1.10358159417596E-0001	
 2.65050000000000E+0003	 1.10575244052045E-0001	
 2.65250000000000E+0003	 1.10788828686493E-0001	
 2.65450000000000E+0003	 1.11000413320942E-0001	
 2.65650000000000E+0003	 1.11211497955390E-0001	
 2.65850000000000E+0003	 1.11430082589839E-0001	
 2.66050000000000E+0003	 1.11654167224287E-0001	
 2.66250000000000E+0003	 1.11878751858736E-0001	
 2.66450000000000E+0003	 1.12103336493185E-0001	
 2.66650000000000E+0003	 1.12328921127633E-0001	
 2.66850000000000E+0003	 1.12551005762082E-0001	
 2.67050000000000E+0003	 1.12776590396530E-0001	
 2.67250000000000E+0003	 1.13009675030979E-0001	
 2.67450000000000E+0003	 1.13241259665428E-0001	
 2.67650000000000E+0003	 1.13478344299876E-0001	
 2.67850000000000E+0003	 1.13720928934325E-0001	
 2.68050000000000E+0003	 1.13955013568773E-0001	
 2.68250000000000E+0003	 1.14171598203222E-0001	
 2.68450000000000E+0003	 1.14389682837670E-0001	
 2.68650000000000E+0003	 1.14617767472119E-0001	
 2.68850000000000E+0003	 1.14853352106568E-0001	
 2.69050000000000E+0003	 1.15087936741016E-0001	
 2.69250000000000E+0003	 1.15321521375465E-0001	
 2.69450000000000E+0003	 1.15555606009913E-0001	
 2.69650000000000E+0003	 1.15801190644362E-0001	
 2.69850000000000E+0003	 1.16049775278810E-0001	
 2.70050000000000E+0003	 1.16304859913259E-0001	
 2.70250000000000E+0003	 1.16561944547708E-0001	
 2.70450000000000E+0003	 1.16833029182156E-0001	
 2.70650000000000E+0003	 1.17110613816605E-0001	
 2.70850000000000E+0003	 1.17399698451053E-0001	
 2.71050000000000E+0003	 1.17689283085502E-0001	
 2.71250000000000E+0003	 1.17987867719950E-0001	
 2.71450000000000E+0003	 1.18294952354399E-0001	
 2.71650000000000E+0003	 1.18614536988848E-0001	
 2.71850000000000E+0003	 1.18926621623296E-0001	
 2.72050000000000E+0003	 1.19249206257745E-0001	
 2.72250000000000E+0003	 1.19576290892193E-0001	
 2.72450000000000E+0003	 1.19904875526642E-0001	
 2.72650000000000E+0003	 1.20221960161090E-0001	
 2.72850000000000E+0003	 1.20520044795539E-0001	
 2.73050000000000E+0003	 1.20800129429988E-0001	
 2.73250000000000E+0003	 1.21086214064436E-0001	
 2.73450000000000E+0003	 1.21370798698885E-0001	
 2.73650000000000E+0003	 1.21661883333333E-0001	
 2.73850000000000E+0003	 1.21933967967782E-0001	
 2.74050000000000E+0003	 1.22194052602230E-0001	
 2.74250000000000E+0003	 1.22448137236679E-0001	
 2.74450000000000E+0003	 1.22705721871128E-0001	
 2.74650000000000E+0003	 1.22968306505576E-0001	
 2.74850000000000E+0003	 1.23227391140025E-0001	
 2.75050000000000E+0003	 1.23457475774473E-0001	
 2.75250000000000E+0003	 1.23679560408922E-0001	
 2.75450000000000E+0003	 1.23919645043371E-0001	
 2.75650000000000E+0003	 1.24181229677819E-0001	
 2.75850000000000E+0003	 1.24438314312268E-0001	
 2.76050000000000E+0003	 1.24693398946716E-0001	
 2.76250000000000E+0003	 1.24957983581165E-0001	
 2.76450000000000E+0003	 1.25231568215613E-0001	
 2.76650000000000E+0003	 1.25506652850062E-0001	
 2.76850000000000E+0003	 1.25788737484511E-0001	
 2.77050000000000E+0003	 1.26074822118959E-0001	
 2.77250000000000E+0003	 1.26375906753408E-0001	
 2.77450000000000E+0003	 1.26691491387856E-0001	
 2.77650000000000E+0003	 1.26984576022305E-0001	
 2.77850000000000E+0003	 1.27264160656753E-0001	
 2.78050000000000E+0003	 1.27571245291202E-0001	
 2.78250000000000E+0003	 1.27898829925651E-0001	
 2.78450000000000E+0003	 1.28232414560099E-0001	
 2.78650000000000E+0003	 1.28583999194548E-0001	
 2.78850000000000E+0003	 1.28963083828996E-0001	
 2.79050000000000E+0003	 1.29333668463445E-0001	
 2.79250000000000E+0003	 1.29681753097893E-0001	
 2.79450000000000E+0003	 1.30044337732342E-0001	
 2.79650000000000E+0003	 1.30431922366791E-0001	
 2.79850000000000E+0003	 1.30830507001239E-0001	
 2.80050000000000E+0003	 1.31210591635688E-0001	
 2.80250000000000E+0003	 1.31588676270136E-0001	
 2.80450000000000E+0003	 1.31980260904585E-0001	
 2.80650000000000E+0003	 1.32393845539033E-0001	
 2.80850000000000E+0003	 1.32830430173482E-0001	
 2.81050000000000E+0003	 1.33274014807931E-0001	
 2.81250000000000E+0003	 1.33700099442379E-0001	
 2.81450000000000E+0003	 1.34135184076828E-0001	
 2.81650000000000E+0003	 1.34582768711276E-0001	
 2.81850000000000E+0003	 1.35047853345725E-0001	
 2.82050000000000E+0003	 1.35525437980173E-0001	
 2.82250000000000E+0003	 1.36020022614622E-0001	
 2.82450000000000E+0003	 1.36527607249071E-0001	
 2.82650000000000E+0003	 1.37047691883519E-0001	
 2.82850000000000E+0003	 1.37584276517968E-0001	
 2.83050000000000E+0003	 1.38161361152416E-0001	
 2.83250000000000E+0003	 1.38782945786865E-0001	
 2.83450000000000E+0003	 1.39457530421314E-0001	
 2.83650000000000E+0003	 1.40202115055762E-0001	
 2.83850000000000E+0003	 1.41048199690211E-0001	
 2.84050000000000E+0003	 1.41976784324659E-0001	
 2.84250000000000E+0003	 1.43075868959108E-0001	
 2.84450000000000E+0003	 1.44472953593556E-0001	
 2.84650000000000E+0003	 1.46192038228005E-0001	
 2.84850000000000E+0003	 1.48113122862454E-0001	
 2.85050000000000E+0003	 1.49998207496902E-0001	
 2.85250000000000E+0003	 1.51592292131351E-0001	
 2.85450000000000E+0003	 1.52705876765799E-0001	
 2.85650000000000E+0003	 1.53342961400248E-0001	
 2.85850000000000E+0003	 1.53702546034696E-0001	
 2.86050000000000E+0003	 1.53986130669145E-0001	
 2.86250000000000E+0003	 1.54348215303594E-0001	
 2.86450000000000E+0003	 1.54926799938042E-0001	
 2.86650000000000E+0003	 1.55732884572491E-0001	
 2.86850000000000E+0003	 1.56685969206939E-0001	
 2.87050000000000E+0003	 1.57704053841388E-0001	
 2.87250000000000E+0003	 1.58677638475836E-0001	
 2.87450000000000E+0003	 1.59397723110285E-0001	
 2.87650000000000E+0003	 1.59813807744734E-0001	
 2.87850000000000E+0003	 1.60084892379182E-0001	
 2.88050000000000E+0003	 1.60309477013631E-0001	
 2.88250000000000E+0003	 1.60545061648079E-0001	
 2.88450000000000E+0003	 1.60859646282528E-0001	
 2.88650000000000E+0003	 1.61266230916976E-0001	
 2.88850000000000E+0003	 1.61768315551425E-0001	
 2.89050000000000E+0003	 1.62358900185874E-0001	
 2.89250000000000E+0003	 1.63029984820322E-0001	
 2.89450000000000E+0003	 1.63769569454771E-0001	
 2.89650000000000E+0003	 1.64535654089219E-0001	
 2.89850000000000E+0003	 1.65291238723668E-0001	
 2.90050000000000E+0003	 1.66090823358116E-0001	
 2.90250000000000E+0003	 1.66964407992565E-0001	
 2.90450000000000E+0003	 1.67918992627014E-0001	
 2.90650000000000E+0003	 1.68969577261462E-0001	
 2.90850000000000E+0003	 1.70185661895911E-0001	
 2.91050000000000E+0003	 1.71625246530359E-0001	
 2.91250000000000E+0003	 1.73315331164808E-0001	
 2.91450000000000E+0003	 1.75172915799257E-0001	
 2.91650000000000E+0003	 1.77113500433705E-0001	
 2.91850000000000E+0003	 1.79071085068154E-0001	
 2.92050000000000E+0003	 1.80931669702602E-0001	
 2.92250000000000E+0003	 1.82574754337051E-0001	
 2.92450000000000E+0003	 1.83904338971499E-0001	
 2.92650000000000E+0003	 1.84871923605948E-0001	
 2.92850000000000E+0003	 1.85531008240397E-0001	
 2.93050000000000E+0003	 1.85858092874845E-0001	
 2.93250000000000E+0003	 1.85858677509294E-0001	
 2.93450000000000E+0003	 1.85652762143742E-0001	
 2.93650000000000E+0003	 1.85276346778191E-0001	
 2.93850000000000E+0003	 1.84708931412639E-0001	
 2.94050000000000E+0003	 1.84011516047088E-0001	
 2.94250000000000E+0003	 1.83296600681537E-0001	
 2.94450000000000E+0003	 1.82613185315985E-0001	
 2.94650000000000E+0003	 1.81980769950434E-0001	
 2.94850000000000E+0003	 1.81495854584882E-0001	
 2.95050000000000E+0003	 1.81290439219331E-0001	
 2.95250000000000E+0003	 1.81387523853779E-0001	
 2.95450000000000E+0003	 1.81605108488228E-0001	
 2.95650000000000E+0003	 1.81852193122677E-0001	
 2.95850000000000E+0003	 1.82042277757125E-0001	
 2.96050000000000E+0003	 1.82052862391574E-0001	
 2.96250000000000E+0003	 1.81796447026022E-0001	
 2.96450000000000E+0003	 1.81239031660471E-0001	
 2.96650000000000E+0003	 1.80441116294919E-0001	
 2.96850000000000E+0003	 1.79498200929368E-0001	
 2.97050000000000E+0003	 1.78418785563817E-0001	
 2.97250000000000E+0003	 1.77227870198265E-0001	
 2.97450000000000E+0003	 1.76047954832714E-0001	
 2.97650000000000E+0003	 1.74965539467162E-0001	
 2.97850000000000E+0003	 1.74028624101611E-0001	
 2.98050000000000E+0003	 1.73185208736059E-0001	
 2.98250000000000E+0003	 1.72344793370508E-0001	
 2.98450000000000E+0003	 1.71538378004957E-0001	
 2.98650000000000E+0003	 1.70827962639405E-0001	
 2.98850000000000E+0003	 1.70215047273854E-0001	
 2.99050000000000E+0003	 1.69708631908302E-0001	
 2.99250000000000E+0003	 1.69284716542751E-0001	
 2.99450000000000E+0003	 1.68888801177200E-0001	
 2.99650000000000E+0003	 1.68606385811648E-0001	
 2.99850000000000E+0003	 1.68451470446097E-0001	
 3.00050000000000E+0003	 1.68364055080545E-0001	
 3.00250000000000E+0003	 1.68391139714994E-0001	
 3.00450000000000E+0003	 1.68518724349442E-0001	
 3.00650000000000E+0003	 1.68718808983891E-0001	
 3.00850000000000E+0003	 1.69028893618340E-0001	
 3.01050000000000E+0003	 1.69473478252788E-0001	
 3.01250000000000E+0003	 1.69973562887237E-0001	
 3.01450000000000E+0003	 1.70451647521685E-0001	
 3.01650000000000E+0003	 1.70908732156134E-0001	
 3.01850000000000E+0003	 1.71406316790582E-0001	
 3.02050000000000E+0003	 1.71972901425031E-0001	
 3.02250000000000E+0003	 1.72633986059480E-0001	
 3.02450000000000E+0003	 1.73379070693928E-0001	
 3.02650000000000E+0003	 1.74127655328377E-0001	
 3.02850000000000E+0003	 1.74896739962825E-0001	
 3.03050000000000E+0003	 1.75715824597274E-0001	
 3.03250000000000E+0003	 1.76549909231722E-0001	
 3.03450000000000E+0003	 1.77368493866171E-0001	
 3.03650000000000E+0003	 1.78138578500620E-0001	
 3.03850000000000E+0003	 1.78950163135068E-0001	
 3.04050000000000E+0003	 1.79873247769517E-0001	
 3.04250000000000E+0003	 1.80815332403965E-0001	
 3.04450000000000E+0003	 1.81707917038414E-0001	
 3.04650000000000E+0003	 1.82575001672862E-0001	
 3.04850000000000E+0003	 1.83479586307311E-0001	
 3.05050000000000E+0003	 1.84442670941760E-0001	
 3.05250000000000E+0003	 1.85396255576208E-0001	
 3.05450000000000E+0003	 1.86338840210657E-0001	
 3.05650000000000E+0003	 1.87277424845105E-0001	
 3.05850000000000E+0003	 1.88164009479554E-0001	
 3.06050000000000E+0003	 1.89020094114002E-0001	
 3.06250000000000E+0003	 1.89877178748451E-0001	
 3.06450000000000E+0003	 1.90718263382900E-0001	
 3.06650000000000E+0003	 1.91528848017348E-0001	
 3.06850000000000E+0003	 1.92255432651797E-0001	
 3.07050000000000E+0003	 1.92888517286245E-0001	
 3.07250000000000E+0003	 1.93520101920694E-0001	
 3.07450000000000E+0003	 1.94175686555143E-0001	
 3.07650000000000E+0003	 1.94865771189591E-0001	
 3.07850000000000E+0003	 1.95542355824040E-0001	
 3.08050000000000E+0003	 1.96128440458488E-0001	
 3.08250000000000E+0003	 1.96652525092937E-0001	
 3.08450000000000E+0003	 1.97177109727385E-0001	
 3.08650000000000E+0003	 1.97668194361834E-0001	
 3.08850000000000E+0003	 1.98159278996283E-0001	
 3.09050000000000E+0003	 1.98655863630731E-0001	
 3.09250000000000E+0003	 1.99105948265180E-0001	
 3.09450000000000E+0003	 1.99545032899628E-0001	
 3.09650000000000E+0003	 2.00028117534077E-0001	
 3.09850000000000E+0003	 2.00545702168525E-0001	
 3.10050000000000E+0003	 2.01073286802974E-0001	
 3.10250000000000E+0003	 2.01564371437423E-0001	
 3.10450000000000E+0003	 2.02073456071871E-0001	
 3.10650000000000E+0003	 2.02660040706320E-0001	
 3.10850000000000E+0003	 2.03304125340768E-0001	
 3.11050000000000E+0003	 2.03916709975217E-0001	
 3.11250000000000E+0003	 2.04560794609665E-0001	
 3.11450000000000E+0003	 2.05333379244114E-0001	
 3.11650000000000E+0003	 2.06166463878563E-0001	
 3.11850000000000E+0003	 2.06963548513011E-0001	
 3.12050000000000E+0003	 2.07733633147460E-0001	
 3.12250000000000E+0003	 2.08469217781908E-0001	
 3.12450000000000E+0003	 2.09250302416357E-0001	
 3.12650000000000E+0003	 2.10136887050805E-0001	
 3.12850000000000E+0003	 2.11115971685254E-0001	
 3.13050000000000E+0003	 2.12112056319703E-0001	
 3.13250000000000E+0003	 2.13097140954151E-0001	
 3.13450000000000E+0003	 2.14121225588600E-0001	
 3.13650000000000E+0003	 2.15230810223048E-0001	
 3.13850000000000E+0003	 2.16402894857497E-0001	
 3.14050000000000E+0003	 2.17523979491945E-0001	
 3.14250000000000E+0003	 2.18591564126394E-0001	
 3.14450000000000E+0003	 2.19727648760843E-0001	
 3.14650000000000E+0003	 2.20934233395291E-0001	
 3.14850000000000E+0003	 2.22201318029740E-0001	
 3.15050000000000E+0003	 2.23570402664188E-0001	
 3.15250000000000E+0003	 2.24957987298637E-0001	
 3.15450000000000E+0003	 2.26216071933086E-0001	
 3.15650000000000E+0003	 2.27454656567534E-0001	
 3.15850000000000E+0003	 2.28783741201983E-0001	
 3.16050000000000E+0003	 2.30170325836431E-0001	
 3.16250000000000E+0003	 2.31586910470880E-0001	
 3.16450000000000E+0003	 2.33026495105328E-0001	
 3.16650000000000E+0003	 2.34475579739777E-0001	
 3.16850000000000E+0003	 2.35937664374226E-0001	
 3.17050000000000E+0003	 2.37412749008674E-0001	
 3.17250000000000E+0003	 2.38892833643123E-0001	
 3.17450000000000E+0003	 2.40379918277571E-0001	
 3.17650000000000E+0003	 2.41881002912020E-0001	
 3.17850000000000E+0003	 2.43383587546468E-0001	
 3.18050000000000E+0003	 2.44863172180917E-0001	
 3.18250000000000E+0003	 2.46324256815366E-0001	
 3.18450000000000E+0003	 2.47786841449814E-0001	
 3.18650000000000E+0003	 2.49249926084263E-0001	
 3.18850000000000E+0003	 2.50698510718711E-0001	
 3.19050000000000E+0003	 2.52114095353160E-0001	
 3.19250000000000E+0003	 2.53507679987608E-0001	
 3.19450000000000E+0003	 2.54885264622057E-0001	
 3.19650000000000E+0003	 2.56244849256506E-0001	
 3.19850000000000E+0003	 2.57591433890954E-0001	
 3.20050000000000E+0003	 2.58920018525403E-0001	
 3.20250000000000E+0003	 2.60230103159851E-0001	
 3.20450000000000E+0003	 2.61521687794300E-0001	
 3.20650000000000E+0003	 2.62796772428748E-0001	
 3.20850000000000E+0003	 2.64054857063197E-0001	
 3.21050000000000E+0003	 2.65312941697646E-0001	
 3.21250000000000E+0003	 2.66579526332094E-0001	
 3.21450000000000E+0003	 2.67837110966543E-0001	
 3.21650000000000E+0003	 2.69086195600991E-0001	
 3.21850000000000E+0003	 2.70350280235440E-0001	
 3.22050000000000E+0003	 2.71605864869888E-0001	
 3.22250000000000E+0003	 2.72844449504337E-0001	
 3.22450000000000E+0003	 2.74109534138786E-0001	
 3.22650000000000E+0003	 2.75406618773234E-0001	
 3.22850000000000E+0003	 2.76731703407683E-0001	
 3.23050000000000E+0003	 2.78121788042131E-0001	
 3.23250000000000E+0003	 2.79579872676580E-0001	
 3.23450000000000E+0003	 2.80951457311029E-0001	
 3.23650000000000E+0003	 2.82226541945477E-0001	
 3.23850000000000E+0003	 2.83556626579926E-0001	
 3.24050000000000E+0003	 2.84964711214374E-0001	
 3.24250000000000E+0003	 2.86415295848823E-0001	
 3.24450000000000E+0003	 2.87936880483271E-0001	
 3.24650000000000E+0003	 2.89493965117720E-0001	
 3.24850000000000E+0003	 2.90980549752169E-0001	
 3.25050000000000E+0003	 2.92430634386617E-0001	
 3.25250000000000E+0003	 2.93956719021066E-0001	
 3.25450000000000E+0003	 2.95561303655514E-0001	
 3.25650000000000E+0003	 2.97156388289963E-0001	
 3.25850000000000E+0003	 2.98697972924411E-0001	
 3.26050000000000E+0003	 3.00253057558860E-0001	
 3.26250000000000E+0003	 3.01832142193309E-0001	
 3.26450000000000E+0003	 3.03411726827757E-0001	
 3.26650000000000E+0003	 3.04980311462206E-0001	
 3.26850000000000E+0003	 3.06571896096654E-0001	
 3.27050000000000E+0003	 3.08145980731103E-0001	
 3.27250000000000E+0003	 3.09583565365551E-0001	
 3.27450000000000E+0003	 3.10907150000000E-0001	
 3.27650000000000E+0003	 3.12188734634449E-0001	
 3.27850000000000E+0003	 3.13419819268897E-0001	
 3.28050000000000E+0003	 3.14625403903346E-0001	
 3.28250000000000E+0003	 3.15790988537794E-0001	
 3.28450000000000E+0003	 3.16898073172243E-0001	
 3.28650000000000E+0003	 3.17936157806691E-0001	
 3.28850000000000E+0003	 3.18941242441140E-0001	
 3.29050000000000E+0003	 3.19946327075589E-0001	
 3.29250000000000E+0003	 3.20894911710037E-0001	
 3.29450000000000E+0003	 3.21720996344486E-0001	
 3.29650000000000E+0003	 3.22470580978934E-0001	
 3.29850000000000E+0003	 3.23156665613383E-0001	
 3.30050000000000E+0003	 3.23836250247831E-0001	
 3.30250000000000E+0003	 3.24566334882280E-0001	
 3.30450000000000E+0003	 3.25342919516729E-0001	
 3.30650000000000E+0003	 3.26042004151177E-0001	
 3.30850000000000E+0003	 3.26609088785626E-0001	
 3.31050000000000E+0003	 3.27094173420074E-0001	
 3.31250000000000E+0003	 3.27597258054523E-0001	
 3.31450000000000E+0003	 3.28146842688971E-0001	
 3.31650000000000E+0003	 3.28718927323420E-0001	
 3.31850000000000E+0003	 3.29303011957869E-0001	
 3.32050000000000E+0003	 3.29909096592317E-0001	
 3.32250000000000E+0003	 3.30545181226766E-0001	
 3.32450000000000E+0003	 3.31226265861214E-0001	
 3.32650000000000E+0003	 3.31880350495663E-0001	
 3.32850000000000E+0003	 3.32492435130112E-0001	
 3.33050000000000E+0003	 3.33128519764560E-0001	
 3.33250000000000E+0003	 3.33808604399009E-0001	
 3.33450000000000E+0003	 3.34522689033457E-0001	
 3.33650000000000E+0003	 3.35307273667906E-0001	
 3.33850000000000E+0003	 3.36093358302354E-0001	
 3.34050000000000E+0003	 3.36807942936803E-0001	
 3.34250000000000E+0003	 3.37508027571252E-0001	
 3.34450000000000E+0003	 3.38216612205700E-0001	
 3.34650000000000E+0003	 3.38945696840149E-0001	
 3.34850000000000E+0003	 3.39781781474597E-0001	
 3.35050000000000E+0003	 3.40632866109046E-0001	
 3.35250000000000E+0003	 3.41354450743494E-0001	
 3.35450000000000E+0003	 3.42030035377943E-0001	
 3.35650000000000E+0003	 3.42784620012392E-0001	
 3.35850000000000E+0003	 3.43592204646840E-0001	
 3.36050000000000E+0003	 3.44402289281289E-0001	
 3.36250000000000E+0003	 3.45178873915737E-0001	
 3.36450000000000E+0003	 3.46007958550186E-0001	
 3.36650000000000E+0003	 3.46929543184634E-0001	
 3.36850000000000E+0003	 3.47814627819083E-0001	
 3.37050000000000E+0003	 3.48506212453532E-0001	
 3.37250000000000E+0003	 3.49080797087980E-0001	
 3.37450000000000E+0003	 3.49740881722429E-0001	
 3.37650000000000E+0003	 3.50494466356877E-0001	
 3.37850000000000E+0003	 3.51240050991326E-0001	
 3.38050000000000E+0003	 3.51954635625774E-0001	
 3.38250000000000E+0003	 3.52629220260223E-0001	
 3.38450000000000E+0003	 3.53299804894672E-0001	
 3.38650000000000E+0003	 3.53990889529120E-0001	
 3.38850000000000E+0003	 3.54771974163569E-0001	
 3.39050000000000E+0003	 3.55639558798017E-0001	
 3.39250000000000E+0003	 3.56341643432466E-0001	
 3.39450000000000E+0003	 3.56820728066914E-0001	
 3.39650000000000E+0003	 3.57371812701363E-0001	
 3.39850000000000E+0003	 3.58144897335812E-0001	
 3.40050000000000E+0003	 3.58898981970260E-0001	
 3.40250000000000E+0003	 3.59304066604709E-0001	
 3.40450000000000E+0003	 3.59551151239157E-0001	
 3.40650000000000E+0003	 3.59957235873606E-0001	
 3.40850000000000E+0003	 3.60471820508055E-0001	
 3.41050000000000E+0003	 3.60934905142503E-0001	
 3.41250000000000E+0003	 3.61330989776952E-0001	
 3.41450000000000E+0003	 3.61612074411400E-0001	
 3.41650000000000E+0003	 3.61830159045849E-0001	
 3.41850000000000E+0003	 3.62098243680297E-0001	
 3.42050000000000E+0003	 3.62375328314746E-0001	
 3.42250000000000E+0003	 3.62570912949195E-0001	
 3.42450000000000E+0003	 3.62732997583643E-0001	
 3.42650000000000E+0003	 3.62936582218092E-0001	
 3.42850000000000E+0003	 3.63158666852540E-0001	
 3.43050000000000E+0003	 3.63274251486989E-0001	
 3.43250000000000E+0003	 3.63337836121437E-0001	
 3.43450000000000E+0003	 3.63449920755886E-0001	
 3.43650000000000E+0003	 3.63417505390335E-0001	
 3.43850000000000E+0003	 3.63117090024783E-0001	
 3.44050000000000E+0003	 3.62756174659232E-0001	
 3.44250000000000E+0003	 3.62486259293680E-0001	
 3.44450000000000E+0003	 3.62277343928129E-0001	
 3.44650000000000E+0003	 3.62053428562577E-0001	
 3.44850000000000E+0003	 3.61743013197026E-0001	
 3.45050000000000E+0003	 3.61359097831475E-0001	
 3.45250000000000E+0003	 3.60963182465923E-0001	
 3.45450000000000E+0003	 3.60547767100372E-0001	
 3.45650000000000E+0003	 3.60133351734820E-0001	
 3.45850000000000E+0003	 3.59746936369269E-0001	
 3.46050000000000E+0003	 3.59282521003717E-0001	
 3.46250000000000E+0003	 3.58692105638166E-0001	
 3.46450000000000E+0003	 3.58199190272615E-0001	
 3.46650000000000E+0003	 3.57846774907063E-0001	
 3.46850000000000E+0003	 3.57315359541512E-0001	
 3.47050000000000E+0003	 3.56396944175960E-0001	
 3.47250000000000E+0003	 3.55381528810409E-0001	
 3.47450000000000E+0003	 3.54523613444857E-0001	
 3.47650000000000E+0003	 3.53802198079306E-0001	
 3.47850000000000E+0003	 3.53137282713755E-0001	
 3.48050000000000E+0003	 3.52319367348203E-0001	
 3.48250000000000E+0003	 3.51303951982652E-0001	
 3.48450000000000E+0003	 3.50367036617100E-0001	
 3.48650000000000E+0003	 3.49505621251549E-0001	
 3.48850000000000E+0003	 3.48548705885998E-0001	
 3.49050000000000E+0003	 3.47530290520446E-0001	
 3.49250000000000E+0003	 3.46559875154895E-0001	
 3.49450000000000E+0003	 3.45623959789343E-0001	
 3.49650000000000E+0003	 3.44665544423792E-0001	
 3.49850000000000E+0003	 3.43627129058240E-0001	
 3.50050000000000E+0003	 3.42618213692689E-0001	
 3.50250000000000E+0003	 3.41601298327138E-0001	
 3.50450000000000E+0003	 3.40358382961586E-0001	
 3.50650000000000E+0003	 3.39042467596035E-0001	
 3.50850000000000E+0003	 3.37845552230483E-0001	
 3.51050000000000E+0003	 3.36737136864932E-0001	
 3.51250000000000E+0003	 3.35675721499380E-0001	
 3.51450000000000E+0003	 3.34500806133829E-0001	
 3.51650000000000E+0003	 3.33200390768278E-0001	
 3.51850000000000E+0003	 3.31909475402726E-0001	
 3.52050000000000E+0003	 3.30730060037175E-0001	
 3.52250000000000E+0003	 3.29646644671623E-0001	
 3.52450000000000E+0003	 3.28410229306072E-0001	
 3.52650000000000E+0003	 3.26958813940520E-0001	
 3.52850000000000E+0003	 3.25516898574969E-0001	
 3.53050000000000E+0003	 3.24142983209418E-0001	
 3.53250000000000E+0003	 3.22808567843866E-0001	
 3.53450000000000E+0003	 3.21552652478315E-0001	
 3.53650000000000E+0003	 3.20230237112763E-0001	
 3.53850000000000E+0003	 3.18731821747212E-0001	
 3.54050000000000E+0003	 3.17307406381660E-0001	
 3.54250000000000E+0003	 3.16042991016109E-0001	
 3.54450000000000E+0003	 3.14723075650558E-0001	
 3.54650000000000E+0003	 3.13104660285006E-0001	
 3.54850000000000E+0003	 3.11302244919455E-0001	
 3.55050000000000E+0003	 3.09614829553903E-0001	
 3.55250000000000E+0003	 3.07959914188352E-0001	
 3.55450000000000E+0003	 3.06254998822800E-0001	
 3.55650000000000E+0003	 3.04584083457249E-0001	
 3.55850000000000E+0003	 3.02958168091698E-0001	
 3.56050000000000E+0003	 3.01328252726146E-0001	
 3.56250000000000E+0003	 2.99590337360595E-0001	
 3.56450000000000E+0003	 2.97810421995043E-0001	
 3.56650000000000E+0003	 2.96090506629492E-0001	
 3.56850000000000E+0003	 2.94309591263941E-0001	
 3.57050000000000E+0003	 2.92397675898389E-0001	
 3.57250000000000E+0003	 2.90439760532838E-0001	
 3.57450000000000E+0003	 2.88501345167286E-0001	
 3.57650000000000E+0003	 2.86580929801735E-0001	
 3.57850000000000E+0003	 2.84692514436183E-0001	
 3.58050000000000E+0003	 2.82865599070632E-0001	
 3.58250000000000E+0003	 2.81063683705081E-0001	
 3.58450000000000E+0003	 2.79231268339529E-0001	
 3.58650000000000E+0003	 2.77184352973978E-0001	
 3.58850000000000E+0003	 2.74893937608426E-0001	
 3.59050000000000E+0003	 2.72725522242875E-0001	
 3.59250000000000E+0003	 2.70678106877323E-0001	
 3.59450000000000E+0003	 2.68548691511772E-0001	
 3.59650000000000E+0003	 2.66415276146221E-0001	
 3.59850000000000E+0003	 2.64371860780669E-0001	
 3.60050000000000E+0003	 2.62259445415118E-0001	
 3.60250000000000E+0003	 2.60053530049566E-0001	
 3.60450000000000E+0003	 2.57882114684015E-0001	
 3.60650000000000E+0003	 2.55716199318463E-0001	
 3.60850000000000E+0003	 2.53459783952912E-0001	
 3.61050000000000E+0003	 2.51180868587361E-0001	
 3.61250000000000E+0003	 2.48965953221809E-0001	
 3.61450000000000E+0003	 2.46720537856258E-0001	
 3.61650000000000E+0003	 2.44462622490706E-0001	
 3.61850000000000E+0003	 2.42126207125155E-0001	
 3.62050000000000E+0003	 2.39765791759603E-0001	
 3.62250000000000E+0003	 2.37556376394052E-0001	
 3.62450000000000E+0003	 2.35351961028501E-0001	
 3.62650000000000E+0003	 2.33121045662949E-0001	
 3.62850000000000E+0003	 2.30712130297398E-0001	
 3.63050000000000E+0003	 2.28150714931846E-0001	
 3.63250000000000E+0003	 2.25939799566295E-0001	
 3.63450000000000E+0003	 2.23763884200743E-0001	
 3.63650000000000E+0003	 2.21470468835192E-0001	
 3.63850000000000E+0003	 2.19177053469641E-0001	
 3.64050000000000E+0003	 2.16936638104089E-0001	
 3.64250000000000E+0003	 2.14757222738538E-0001	
 3.64450000000000E+0003	 2.12687307372986E-0001	
 3.64650000000000E+0003	 2.10694892007435E-0001	
 3.64850000000000E+0003	 2.08593476641884E-0001	
 3.65050000000000E+0003	 2.06297061276332E-0001	
 3.65250000000000E+0003	 2.04021145910781E-0001	
 3.65450000000000E+0003	 2.01971730545229E-0001	
 3.65650000000000E+0003	 1.99981315179678E-0001	
 3.65850000000000E+0003	 1.98058399814126E-0001	
 3.66050000000000E+0003	 1.96183484448575E-0001	
 3.66250000000000E+0003	 1.94244069083024E-0001	
 3.66450000000000E+0003	 1.92384153717472E-0001	
 3.66650000000000E+0003	 1.90685238351921E-0001	
 3.66850000000000E+0003	 1.89052322986369E-0001	
 3.67050000000000E+0003	 1.87313907620818E-0001	
 3.67250000000000E+0003	 1.85794992255266E-0001	
 3.67450000000000E+0003	 1.84483076889715E-0001	
 3.67650000000000E+0003	 1.82965161524164E-0001	
 3.67850000000000E+0003	 1.81536746158612E-0001	
 3.68050000000000E+0003	 1.80253830793061E-0001	
 3.68250000000000E+0003	 1.79046415427509E-0001	
 3.68450000000000E+0003	 1.77905000061958E-0001	
 3.68650000000000E+0003	 1.76945084696406E-0001	
 3.68850000000000E+0003	 1.75968669330855E-0001	
 3.69050000000000E+0003	 1.74782253965304E-0001	
 3.69250000000000E+0003	 1.73713838599752E-0001	
 3.69450000000000E+0003	 1.72809423234201E-0001	
 3.69650000000000E+0003	 1.71947507868649E-0001	
 3.69850000000000E+0003	 1.71111092503098E-0001	
 3.70050000000000E+0003	 1.70339177137546E-0001	
 3.70250000000000E+0003	 1.69604261771995E-0001	
 3.70450000000000E+0003	 1.68935346406444E-0001	
 3.70650000000000E+0003	 1.68332431040892E-0001	
 3.70850000000000E+0003	 1.67778015675341E-0001	
 3.71050000000000E+0003	 1.67204100309789E-0001	
 3.71250000000000E+0003	 1.66589684944238E-0001	
 3.71450000000000E+0003	 1.66005269578686E-0001	
 3.71650000000000E+0003	 1.65466854213135E-0001	
 3.71850000000000E+0003	 1.64971438847584E-0001	
 3.72050000000000E+0003	 1.64531023482032E-0001	
 3.72250000000000E+0003	 1.64097108116481E-0001	
 3.72450000000000E+0003	 1.63670192750929E-0001	
 3.72650000000000E+0003	 1.63246777385378E-0001	
 3.72850000000000E+0003	 1.62811862019827E-0001	
 3.73050000000000E+0003	 1.62440946654275E-0001	
 3.73250000000000E+0003	 1.62122031288724E-0001	
 3.73450000000000E+0003	 1.61867115923172E-0001	
 3.73650000000000E+0003	 1.61658200557621E-0001	
 3.73850000000000E+0003	 1.61357785192069E-0001	
 3.74050000000000E+0003	 1.60813369826518E-0001	
 3.74250000000000E+0003	 1.60307954460967E-0001	
 3.74450000000000E+0003	 1.59963539095415E-0001	
 3.74650000000000E+0003	 1.59661623729864E-0001	
 3.74850000000000E+0003	 1.59375708364312E-0001	
 3.75050000000000E+0003	 1.59091292998761E-0001	
 3.75250000000000E+0003	 1.58813377633209E-0001	
 3.75450000000000E+0003	 1.58532962267658E-0001	
 3.75650000000000E+0003	 1.58250046902107E-0001	
 3.75850000000000E+0003	 1.57995131536555E-0001	
 3.76050000000000E+0003	 1.57718216171004E-0001	
 3.76250000000000E+0003	 1.57438300805452E-0001	
 3.76450000000000E+0003	 1.57193385439901E-0001	
 3.76650000000000E+0003	 1.56963470074349E-0001	
 3.76850000000000E+0003	 1.56759054708798E-0001	
 3.77050000000000E+0003	 1.56508139343247E-0001	
 3.77250000000000E+0003	 1.56235723977695E-0001	
 3.77450000000000E+0003	 1.55976808612144E-0001	
 3.77650000000000E+0003	 1.55817393246592E-0001	
 3.77850000000000E+0003	 1.55712977881041E-0001	
 3.78050000000000E+0003	 1.55500562515489E-0001	
 3.78250000000000E+0003	 1.55235647149938E-0001	
 3.78450000000000E+0003	 1.54996731784387E-0001	
 3.78650000000000E+0003	 1.54798316418835E-0001	
 3.78850000000000E+0003	 1.54615901053284E-0001	
 3.79050000000000E+0003	 1.54448485687732E-0001	
 3.79250000000000E+0003	 1.54286570322181E-0001	
 3.79450000000000E+0003	 1.54166654956629E-0001	
 3.79650000000000E+0003	 1.54017239591078E-0001	
 3.79850000000000E+0003	 1.53799324225527E-0001	
 3.80050000000000E+0003	 1.53630908859975E-0001	
 3.80250000000000E+0003	 1.53504993494424E-0001	
 3.80450000000000E+0003	 1.53405078128872E-0001	
 3.80650000000000E+0003	 1.53229162763321E-0001	
 3.80850000000000E+0003	 1.53072747397770E-0001	
 3.81050000000000E+0003	 1.52929332032218E-0001	
 3.81250000000000E+0003	 1.52754916666667E-0001	
 3.81450000000000E+0003	 1.52669001301115E-0001	
 3.81650000000000E+0003	 1.52585085935564E-0001	
 3.81850000000000E+0003	 1.52509670570012E-0001	
 3.82050000000000E+0003	 1.52413755204461E-0001	
 3.82250000000000E+0003	 1.52295839838910E-0001	
 3.82450000000000E+0003	 1.52182924473358E-0001	
 3.82650000000000E+0003	 1.52031509107807E-0001	
 3.82850000000000E+0003	 1.51921593742255E-0001	
 3.83050000000000E+0003	 1.51819678376704E-0001	
 3.83250000000000E+0003	 1.51713763011152E-0001	
 3.83450000000000E+0003	 1.51627347645601E-0001	
 3.83650000000000E+0003	 1.51542432280050E-0001	
 3.83850000000000E+0003	 1.51450516914498E-0001	
 3.84050000000000E+0003	 1.51391101548947E-0001	
 3.84250000000000E+0003	 1.51348186183395E-0001	
 3.84450000000000E+0003	 1.51278270817844E-0001	
 3.84650000000000E+0003	 1.51193355452292E-0001	
 3.84850000000000E+0003	 1.51024440086741E-0001	
 3.85050000000000E+0003	 1.50787024721190E-0001	
 3.85250000000000E+0003	 1.50524109355638E-0001	
 3.85450000000000E+0003	 1.50375693990087E-0001	
 3.85650000000000E+0003	 1.50519278624535E-0001	
 3.85850000000000E+0003	 1.50626863258984E-0001	
 3.86050000000000E+0003	 1.50619947893432E-0001	
 3.86250000000000E+0003	 1.50536032527881E-0001	
 3.86450000000000E+0003	 1.50447117162330E-0001	
 3.86650000000000E+0003	 1.50381201796778E-0001	
 3.86850000000000E+0003	 1.50352786431227E-0001	
 3.87050000000000E+0003	 1.50295371065675E-0001	
 3.87250000000000E+0003	 1.50267455700124E-0001	
 3.87450000000000E+0003	 1.50203040334572E-0001	
 3.87650000000000E+0003	 1.50168124969021E-0001	
 3.87850000000000E+0003	 1.50148209603470E-0001	
 3.88050000000000E+0003	 1.50112794237918E-0001	
 3.88250000000000E+0003	 1.50096378872367E-0001	
 3.88450000000000E+0003	 1.50131963506815E-0001	
 3.88650000000000E+0003	 1.50113048141264E-0001	
 3.88850000000000E+0003	 1.49994132775713E-0001	
 3.89050000000000E+0003	 1.49837217410161E-0001	
 3.89250000000000E+0003	 1.49786302044610E-0001	
 3.89450000000000E+0003	 1.49802386679058E-0001	
 3.89650000000000E+0003	 1.49779471313507E-0001	
 3.89850000000000E+0003	 1.49779555947955E-0001	
 3.90050000000000E+0003	 1.49857140582404E-0001	
 3.90250000000000E+0003	 1.49888725216853E-0001	
 3.90450000000000E+0003	 1.49750809851301E-0001	
 3.90650000000000E+0003	 1.49658894485750E-0001	
 3.90850000000000E+0003	 1.49645979120198E-0001	
 3.91050000000000E+0003	 1.49631563754647E-0001	
 3.91250000000000E+0003	 1.49615648389095E-0001	
 3.91450000000000E+0003	 1.49634233023544E-0001	
 3.91650000000000E+0003	 1.49692317657993E-0001	
 3.91850000000000E+0003	 1.49728402292441E-0001	
 3.92050000000000E+0003	 1.49682986926890E-0001	
 3.92250000000000E+0003	 1.49621571561338E-0001	
 3.92450000000000E+0003	 1.49569656195787E-0001	
 3.92650000000000E+0003	 1.49554740830235E-0001	
 3.92850000000000E+0003	 1.49568825464684E-0001	
 3.93050000000000E+0003	 1.49609910099133E-0001	
 3.93250000000000E+0003	 1.49684494733581E-0001	
 3.93450000000000E+0003	 1.49687579368030E-0001	
 3.93650000000000E+0003	 1.49619664002478E-0001	
 3.93850000000000E+0003	 1.49556748636927E-0001	
 3.94050000000000E+0003	 1.49542333271375E-0001	
 3.94250000000000E+0003	 1.49541417905824E-0001	
 3.94450000000000E+0003	 1.49563502540273E-0001	
 3.94650000000000E+0003	 1.49586087174721E-0001	
 3.94850000000000E+0003	 1.49577171809170E-0001	
 3.95050000000000E+0003	 1.49546256443618E-0001	
 3.95250000000000E+0003	 1.49520841078067E-0001	
 3.95450000000000E+0003	 1.49508425712515E-0001	
 3.95650000000000E+0003	 1.49501510346964E-0001	
 3.95850000000000E+0003	 1.49502094981413E-0001	
 3.96050000000000E+0003	 1.49510679615861E-0001	
 3.96250000000000E+0003	 1.49514264250310E-0001	
 3.96450000000000E+0003	 1.49509848884758E-0001	
 3.96650000000000E+0003	 1.49503433519207E-0001	
 3.96850000000000E+0003	 1.49506018153656E-0001	
 3.97050000000000E+0003	 1.49505102788104E-0001	
 3.97250000000000E+0003	 1.49503687422553E-0001	
 3.97450000000000E+0003	 1.49519772057001E-0001	
 3.97650000000000E+0003	 1.49543356691450E-0001	
 3.97850000000000E+0003	 1.49541441325898E-0001	
 3.98050000000000E+0003	 1.49533525960347E-0001	
 3.98250000000000E+0003	 1.49554110594796E-0001	
 3.98450000000000E+0003	 1.49571195229244E-0001	
 3.98650000000000E+0003	 1.49549279863693E-0001	
 3.98850000000000E+0003	 1.49524364498141E-0001	
 3.99050000000000E+0003	 1.49518449132590E-0001	
 3.99250000000000E+0003	 1.49525533767038E-0001	
 3.99450000000000E+0003	 1.49603118401487E-0001	
 3.99650000000000E+0003	 1.49646703035936E-0001	
 3.99850000000000E+0003	 1.49580287670384E-0001	

>1	DATALINE
