*CPCWIN*

>1	DATALINE
DATALINE
1
Operator:

Description:

Remarks:





15.9.2008
11:28


_x	_y
	
	
UNIT	UNIT
 4.50500000000000E+0002	 1.03150219912044E-0001	
 4.52500000000000E+0002	 1.03588141655125E-0001	
 4.54500000000000E+0002	 1.03687063398207E-0001	
 4.56500000000000E+0002	 1.03417485141288E-0001	
 4.58500000000000E+0002	 1.03289906884370E-0001	
 4.60500000000000E+0002	 1.03666328627451E-0001	
 4.62500000000000E+0002	 1.03931750370532E-0001	
 4.64500000000000E+0002	 1.04023172113614E-0001	
 4.66500000000000E+0002	 1.04290093856695E-0001	
 4.68500000000000E+0002	 1.04523515599776E-0001	
 4.70500000000000E+0002	 1.04441937342858E-0001	
 4.72500000000000E+0002	 1.04548359085939E-0001	
 4.74500000000000E+0002	 1.04733780829021E-0001	
 4.76500000000000E+0002	 1.04857702572102E-0001	
 4.78500000000000E+0002	 1.05037124315183E-0001	
 4.80500000000000E+0002	 1.05279546058265E-0001	
 4.82500000000000E+0002	 1.05488467801346E-0001	
 4.84500000000000E+0002	 1.05674389544427E-0001	
 4.86500000000000E+0002	 1.05878811287509E-0001	
 4.88500000000000E+0002	 1.06153233030590E-0001	
 4.90500000000000E+0002	 1.06320654773672E-0001	
 4.92500000000000E+0002	 1.06611576516753E-0001	
 4.94500000000000E+0002	 1.06903998259834E-0001	
 4.96500000000000E+0002	 1.07127420002916E-0001	
 4.98500000000000E+0002	 1.07370841745997E-0001	
 5.00500000000000E+0002	 1.07653763489078E-0001	
 5.02500000000000E+0002	 1.07888185232160E-0001	
 5.04500000000000E+0002	 1.08056106975241E-0001	
 5.06500000000000E+0002	 1.08155028718323E-0001	
 5.08500000000000E+0002	 1.08398450461404E-0001	
 5.10500000000000E+0002	 1.08721872204485E-0001	
 5.12500000000000E+0002	 1.08982793947567E-0001	
 5.14500000000000E+0002	 1.09220215690648E-0001	
 5.16500000000000E+0002	 1.09660637433729E-0001	
 5.18500000000000E+0002	 1.10007559176811E-0001	
 5.20500000000000E+0002	 1.10132980919892E-0001	
 5.22500000000000E+0002	 1.10320402662973E-0001	
 5.24500000000000E+0002	 1.10561824406055E-0001	
 5.26500000000000E+0002	 1.10909246149136E-0001	
 5.28500000000000E+0002	 1.11366167892218E-0001	
 5.30500000000000E+0002	 1.11625589635299E-0001	
 5.32500000000000E+0002	 1.11700511378380E-0001	
 5.34500000000000E+0002	 1.11706433121462E-0001	
 5.36500000000000E+0002	 1.11662354864543E-0001	
 5.38500000000000E+0002	 1.11566276607624E-0001	
 5.40500000000000E+0002	 1.11486698350706E-0001	
 5.42500000000000E+0002	 1.11392120093787E-0001	
 5.44500000000000E+0002	 1.11340041836869E-0001	
 5.46500000000000E+0002	 1.11348463579950E-0001	
 5.48500000000000E+0002	 1.11338885323031E-0001	
 5.50500000000000E+0002	 1.11347307066113E-0001	
 5.52500000000000E+0002	 1.11411228809194E-0001	
 5.54500000000000E+0002	 1.11550650552275E-0001	
 5.56500000000000E+0002	 1.11727572295357E-0001	
 5.58500000000000E+0002	 1.11846994038438E-0001	
 5.60500000000000E+0002	 1.11859915781520E-0001	
 5.62500000000000E+0002	 1.11697837524601E-0001	
 5.64500000000000E+0002	 1.11385759267682E-0001	
 5.66500000000000E+0002	 1.11081681010764E-0001	
 5.68500000000000E+0002	 1.10885102753845E-0001	
 5.70500000000000E+0002	 1.10653524496926E-0001	
 5.72500000000000E+0002	 1.10464946240008E-0001	
 5.74500000000000E+0002	 1.10364367983089E-0001	
 5.76500000000000E+0002	 1.10328789726171E-0001	
 5.78500000000000E+0002	 1.10283711469252E-0001	
 5.80500000000000E+0002	 1.10199633212333E-0001	
 5.82500000000000E+0002	 1.10068054955415E-0001	
 5.84500000000000E+0002	 1.09888976698496E-0001	
 5.86500000000000E+0002	 1.09657398441577E-0001	
 5.88500000000000E+0002	 1.09549820184659E-0001	
 5.90500000000000E+0002	 1.09529741927740E-0001	
 5.92500000000000E+0002	 1.09523663670821E-0001	
 5.94500000000000E+0002	 1.09490085413903E-0001	
 5.96500000000000E+0002	 1.09438007156984E-0001	
 5.98500000000000E+0002	 1.09383428900066E-0001	
 6.00500000000000E+0002	 1.09347850643147E-0001	
 6.02500000000000E+0002	 1.09299272386228E-0001	
 6.04500000000000E+0002	 1.09261694129310E-0001	
 6.06500000000000E+0002	 1.09182615872391E-0001	
 6.08500000000000E+0002	 1.09115537615472E-0001	
 6.10500000000000E+0002	 1.09038959358554E-0001	
 6.12500000000000E+0002	 1.08847381101635E-0001	
 6.14500000000000E+0002	 1.08703302844717E-0001	
 6.16500000000000E+0002	 1.08695224587798E-0001	
 6.18500000000000E+0002	 1.08539146330879E-0001	
 6.20500000000000E+0002	 1.08099568073961E-0001	
 6.22500000000000E+0002	 1.07640989817042E-0001	
 6.24500000000000E+0002	 1.07210411560123E-0001	
 6.26500000000000E+0002	 1.06769833303205E-0001	
 6.28500000000000E+0002	 1.06364755046286E-0001	
 6.30500000000000E+0002	 1.05967176789368E-0001	
 6.32500000000000E+0002	 1.05593098532449E-0001	
 6.34500000000000E+0002	 1.05244020275530E-0001	
 6.36500000000000E+0002	 1.04917442018612E-0001	
 6.38500000000000E+0002	 1.04575363761693E-0001	
 6.40500000000000E+0002	 1.04292285504774E-0001	
 6.42500000000000E+0002	 1.04034707247856E-0001	
 6.44500000000000E+0002	 1.03781628990937E-0001	
 6.46500000000000E+0002	 1.03531050734019E-0001	
 6.48500000000000E+0002	 1.03292472477100E-0001	
 6.50500000000000E+0002	 1.03044894220181E-0001	
 6.52500000000000E+0002	 1.02904315963263E-0001	
 6.54500000000000E+0002	 1.02795737706344E-0001	
 6.56500000000000E+0002	 1.02738659449425E-0001	
 6.58500000000000E+0002	 1.02644581192507E-0001	
 6.60500000000000E+0002	 1.02509502935588E-0001	
 6.62500000000000E+0002	 1.02280424678669E-0001	
 6.64500000000000E+0002	 1.01906346421751E-0001	
 6.66500000000000E+0002	 1.01233768164832E-0001	
 6.68500000000000E+0002	 1.01035689907914E-0001	
 6.70500000000000E+0002	 1.01256111650995E-0001	
 6.72500000000000E+0002	 1.00971533394076E-0001	
 6.74500000000000E+0002	 1.00504955137158E-0001	
 6.76500000000000E+0002	 1.00020376880239E-0001	
 6.78500000000000E+0002	 9.95167986233205E-0002	
 6.80500000000000E+0002	 9.90772203664018E-0002	
 6.82500000000000E+0002	 9.87116421094832E-0002	
 6.84500000000000E+0002	 9.83970638525646E-0002	
 6.86500000000000E+0002	 9.81364855956459E-0002	
 6.88500000000000E+0002	 9.79084073387273E-0002	
 6.90500000000000E+0002	 9.76788290818087E-0002	
 6.92500000000000E+0002	 9.75077508248901E-0002	
 6.94500000000000E+0002	 9.74276725679714E-0002	
 6.96500000000000E+0002	 9.73930943110528E-0002	
 6.98500000000000E+0002	 9.72915160541342E-0002	
 7.00500000000000E+0002	 9.71124377972155E-0002	
 7.02500000000000E+0002	 9.67868595402969E-0002	
 7.04500000000000E+0002	 9.63787812833783E-0002	
 7.06500000000000E+0002	 9.58852030264597E-0002	
 7.08500000000000E+0002	 9.53786247695410E-0002	
 7.10500000000000E+0002	 9.49360465126224E-0002	
 7.12500000000000E+0002	 9.45414682557038E-0002	
 7.14500000000000E+0002	 9.41433899987851E-0002	
 7.16500000000000E+0002	 9.38253117418665E-0002	
 7.18500000000000E+0002	 9.36052334849479E-0002	
 7.20500000000000E+0002	 9.33646552280293E-0002	
 7.22500000000000E+0002	 9.28650769711106E-0002	
 7.24500000000000E+0002	 9.22219987141920E-0002	
 7.26500000000000E+0002	 9.15639204572734E-0002	
 7.28500000000000E+0002	 9.08863422003547E-0002	
 7.30500000000000E+0002	 9.02397639434361E-0002	
 7.32500000000000E+0002	 8.97161856865175E-0002	
 7.34500000000000E+0002	 8.92891074295989E-0002	
 7.36500000000000E+0002	 8.89165291726802E-0002	
 7.38500000000000E+0002	 8.86079509157616E-0002	
 7.40500000000000E+0002	 8.83698726588430E-0002	
 7.42500000000000E+0002	 8.81987944019243E-0002	
 7.44500000000000E+0002	 8.80037161450057E-0002	
 7.46500000000000E+0002	 8.77951378880871E-0002	
 7.48500000000000E+0002	 8.75730596311685E-0002	
 7.50500000000000E+0002	 8.73094813742498E-0002	
 7.52500000000000E+0002	 8.70074031173312E-0002	
 7.54500000000000E+0002	 8.66958248604126E-0002	
 7.56500000000000E+0002	 8.63452466034939E-0002	
 7.58500000000000E+0002	 8.59571683465753E-0002	
 7.60500000000000E+0002	 8.55950900896567E-0002	
 7.62500000000000E+0002	 8.52920118327381E-0002	
 7.64500000000000E+0002	 8.50339335758194E-0002	
 7.66500000000000E+0002	 8.47483553189008E-0002	
 7.68500000000000E+0002	 8.44452770619822E-0002	
 7.70500000000000E+0002	 8.41361988050635E-0002	
 7.72500000000000E+0002	 8.39176205481449E-0002	
 7.74500000000000E+0002	 8.38345422912263E-0002	
 7.76500000000000E+0002	 8.39159640343077E-0002	
 7.78500000000000E+0002	 8.40593857773890E-0002	
 7.80500000000000E+0002	 8.41473075204704E-0002	
 7.82500000000000E+0002	 8.40307292635518E-0002	
 7.84500000000000E+0002	 8.38246510066331E-0002	
 7.86500000000000E+0002	 8.36190727497145E-0002	
 7.88500000000000E+0002	 8.34279944927959E-0002	
 7.90500000000000E+0002	 8.32579162358773E-0002	
 7.92500000000000E+0002	 8.31963379789586E-0002	
 7.94500000000000E+0002	 8.32357597220400E-0002	
 7.96500000000000E+0002	 8.33171814651214E-0002	
 7.98500000000000E+0002	 8.33051032082027E-0002	
 8.00500000000000E+0002	 8.31770249512841E-0002	
 8.02500000000000E+0002	 8.30314466943655E-0002	
 8.04500000000000E+0002	 8.29308684374468E-0002	
 8.06500000000000E+0002	 8.28342901805282E-0002	
 8.08500000000000E+0002	 8.27472119236096E-0002	
 8.10500000000000E+0002	 8.26181336666910E-0002	
 8.12500000000000E+0002	 8.24775554097723E-0002	
 8.14500000000000E+0002	 8.23674771528537E-0002	
 8.16500000000000E+0002	 8.22838988959351E-0002	
 8.18500000000000E+0002	 8.21938206390164E-0002	
 8.20500000000000E+0002	 8.21137423820978E-0002	
 8.22500000000000E+0002	 8.20361641251792E-0002	
 8.24500000000000E+0002	 8.19950858682606E-0002	
 8.26500000000000E+0002	 8.19160076113419E-0002	
 8.28500000000000E+0002	 8.18259293544233E-0002	
 8.30500000000000E+0002	 8.16978510975047E-0002	
 8.32500000000000E+0002	 8.15812728405860E-0002	
 8.34500000000000E+0002	 8.14351945836674E-0002	
 8.36500000000000E+0002	 8.13681163267488E-0002	
 8.38500000000000E+0002	 8.12850380698302E-0002	
 8.40500000000000E+0002	 8.12339598129115E-0002	
 8.42500000000000E+0002	 8.11528815559929E-0002	
 8.44500000000000E+0002	 8.11433032990743E-0002	
 8.46500000000000E+0002	 8.11592250421556E-0002	
 8.48500000000000E+0002	 8.12261467852370E-0002	
 8.50500000000000E+0002	 8.12260685283184E-0002	
 8.52500000000000E+0002	 8.12744902713998E-0002	
 8.54500000000000E+0002	 8.13759120144811E-0002	
 8.56500000000000E+0002	 8.15308337575625E-0002	
 8.58500000000000E+0002	 8.16077555006439E-0002	
 8.60500000000000E+0002	 8.16666772437252E-0002	
 8.62500000000000E+0002	 8.16925989868066E-0002	
 8.64500000000000E+0002	 8.17090207298880E-0002	
 8.66500000000000E+0002	 8.16504424729694E-0002	
 8.68500000000000E+0002	 8.16453642160507E-0002	
 8.70500000000000E+0002	 8.17087859591321E-0002	
 8.72500000000000E+0002	 8.17582077022135E-0002	
 8.74500000000000E+0002	 8.16521294452948E-0002	
 8.76500000000000E+0002	 8.14605511883762E-0002	
 8.78500000000000E+0002	 8.12554729314576E-0002	
 8.80500000000000E+0002	 8.10938946745390E-0002	
 8.82500000000000E+0002	 8.09688164176203E-0002	
 8.84500000000000E+0002	 8.08842381607017E-0002	
 8.86500000000000E+0002	 8.08366599037831E-0002	
 8.88500000000000E+0002	 8.08790816468644E-0002	
 8.90500000000000E+0002	 8.09730033899458E-0002	
 8.92500000000000E+0002	 8.10624251330272E-0002	
 8.94500000000000E+0002	 8.10573468761086E-0002	
 8.96500000000000E+0002	 8.09847686191899E-0002	
 8.98500000000000E+0002	 8.07956903622713E-0002	
 9.00500000000000E+0002	 8.05366121053527E-0002	
 9.02500000000000E+0002	 8.02315338484340E-0002	
 9.04500000000000E+0002	 7.99989555915154E-0002	
 9.06500000000000E+0002	 7.98698773345968E-0002	
 9.08500000000000E+0002	 7.98577990776782E-0002	
 9.10500000000000E+0002	 7.98942208207595E-0002	
 9.12500000000000E+0002	 8.00196425638409E-0002	
 9.14500000000000E+0002	 8.01775643069223E-0002	
 9.16500000000000E+0002	 8.03404860500036E-0002	
 9.18500000000000E+0002	 8.04694077930850E-0002	
 9.20500000000000E+0002	 8.06388295361664E-0002	
 9.22500000000000E+0002	 8.08477512792478E-0002	
 9.24500000000000E+0002	 8.11181730223291E-0002	
 9.26500000000000E+0002	 8.14180947654105E-0002	
 9.28500000000000E+0002	 8.17700165084919E-0002	
 9.30500000000000E+0002	 8.21014382515732E-0002	
 9.32500000000000E+0002	 8.24718599946546E-0002	
 9.34500000000000E+0002	 8.29107817377360E-0002	
 9.36500000000000E+0002	 8.34057034808174E-0002	
 9.38500000000000E+0002	 8.39416252238987E-0002	
 9.40500000000000E+0002	 8.45345469669801E-0002	
 9.42500000000000E+0002	 8.51779687100615E-0002	
 9.44500000000000E+0002	 8.58848904531428E-0002	
 9.46500000000000E+0002	 8.66388121962242E-0002	
 9.48500000000000E+0002	 8.74267339393056E-0002	
 9.50500000000000E+0002	 8.82751556823870E-0002	
 9.52500000000000E+0002	 8.92025774254683E-0002	
 9.54500000000000E+0002	 9.01914991685497E-0002	
 9.56500000000000E+0002	 9.12164209116311E-0002	
 9.58500000000000E+0002	 9.22433426547124E-0002	
 9.60500000000000E+0002	 9.32217643977938E-0002	
 9.62500000000000E+0002	 9.41066861408752E-0002	
 9.64500000000000E+0002	 9.48691078839566E-0002	
 9.66500000000000E+0002	 9.55345296270379E-0002	
 9.68500000000000E+0002	 9.60874513701193E-0002	
 9.70500000000000E+0002	 9.66118731132007E-0002	
 9.72500000000000E+0002	 9.71547948562820E-0002	
 9.74500000000000E+0002	 9.77907165993634E-0002	
 9.76500000000000E+0002	 9.86051383424448E-0002	
 9.78500000000000E+0002	 9.96605600855262E-0002	
 9.80500000000000E+0002	 1.00949481828608E-0001	
 9.82500000000000E+0002	 1.02450403571689E-0001	
 9.84500000000000E+0002	 1.04006825314770E-0001	
 9.86500000000000E+0002	 1.05527747057852E-0001	
 9.88500000000000E+0002	 1.06969168800933E-0001	
 9.90500000000000E+0002	 1.08374590544014E-0001	
 9.92500000000000E+0002	 1.09752512287096E-0001	
 9.94500000000000E+0002	 1.11127434030177E-0001	
 9.96500000000000E+0002	 1.12522855773258E-0001	
 9.98500000000000E+0002	 1.13970277516340E-0001	
 1.00050000000000E+0003	 1.15473199259421E-0001	
 1.00250000000000E+0003	 1.17007121002503E-0001	
 1.00450000000000E+0003	 1.18582042745584E-0001	
 1.00650000000000E+0003	 1.20252964488665E-0001	
 1.00850000000000E+0003	 1.21958886231747E-0001	
 1.01050000000000E+0003	 1.23633307974828E-0001	
 1.01250000000000E+0003	 1.25232729717909E-0001	
 1.01450000000000E+0003	 1.26733651460991E-0001	
 1.01650000000000E+0003	 1.28133573204072E-0001	
 1.01850000000000E+0003	 1.29437994947154E-0001	
 1.02050000000000E+0003	 1.30652416690235E-0001	
 1.02250000000000E+0003	 1.31788338433316E-0001	
 1.02450000000000E+0003	 1.32843260176398E-0001	
 1.02650000000000E+0003	 1.33817681919479E-0001	
 1.02850000000000E+0003	 1.34707603662560E-0001	
 1.03050000000000E+0003	 1.35499025405642E-0001	
 1.03250000000000E+0003	 1.36069947148723E-0001	
 1.03450000000000E+0003	 1.36412368891805E-0001	
 1.03650000000000E+0003	 1.36559290634886E-0001	
 1.03850000000000E+0003	 1.36568212377967E-0001	
 1.04050000000000E+0003	 1.36535134121049E-0001	
 1.04250000000000E+0003	 1.36607055864130E-0001	
 1.04450000000000E+0003	 1.36870477607211E-0001	
 1.04650000000000E+0003	 1.37334899350293E-0001	
 1.04850000000000E+0003	 1.37951321093374E-0001	
 1.05050000000000E+0003	 1.38618242836456E-0001	
 1.05250000000000E+0003	 1.39191164579537E-0001	
 1.05450000000000E+0003	 1.39659086322618E-0001	
 1.05650000000000E+0003	 1.39981008065700E-0001	
 1.05850000000000E+0003	 1.40155929808781E-0001	
 1.06050000000000E+0003	 1.40155851551862E-0001	
 1.06250000000000E+0003	 1.39958773294944E-0001	
 1.06450000000000E+0003	 1.39584195038025E-0001	
 1.06650000000000E+0003	 1.39108616781106E-0001	
 1.06850000000000E+0003	 1.38594538524188E-0001	
 1.07050000000000E+0003	 1.38069960267269E-0001	
 1.07250000000000E+0003	 1.37539882010351E-0001	
 1.07450000000000E+0003	 1.37025803753432E-0001	
 1.07650000000000E+0003	 1.36483225496513E-0001	
 1.07850000000000E+0003	 1.35850647239595E-0001	
 1.08050000000000E+0003	 1.35143568982676E-0001	
 1.08250000000000E+0003	 1.34409990725757E-0001	
 1.08450000000000E+0003	 1.33696412468839E-0001	
 1.08650000000000E+0003	 1.33017834211920E-0001	
 1.08850000000000E+0003	 1.32327255955002E-0001	
 1.09050000000000E+0003	 1.31616677698083E-0001	
 1.09250000000000E+0003	 1.30883099441164E-0001	
 1.09450000000000E+0003	 1.30155521184246E-0001	
 1.09650000000000E+0003	 1.29501442927327E-0001	
 1.09850000000000E+0003	 1.28951364670408E-0001	
 1.10050000000000E+0003	 1.28549786413490E-0001	
 1.10250000000000E+0003	 1.28321708156571E-0001	
 1.10450000000000E+0003	 1.28187129899653E-0001	
 1.10650000000000E+0003	 1.28082051642734E-0001	
 1.10850000000000E+0003	 1.27975973385815E-0001	
 1.11050000000000E+0003	 1.27851395128897E-0001	
 1.11250000000000E+0003	 1.27631316871978E-0001	
 1.11450000000000E+0003	 1.27155738615059E-0001	
 1.11650000000000E+0003	 1.26371660358141E-0001	
 1.11850000000000E+0003	 1.25330582101222E-0001	
 1.12050000000000E+0003	 1.24108003844304E-0001	
 1.12250000000000E+0003	 1.22750925587385E-0001	
 1.12450000000000E+0003	 1.21297347330466E-0001	
 1.12650000000000E+0003	 1.19686269073548E-0001	
 1.12850000000000E+0003	 1.17939190816629E-0001	
 1.13050000000000E+0003	 1.16124112559710E-0001	
 1.13250000000000E+0003	 1.14424534302792E-0001	
 1.13450000000000E+0003	 1.12937456045873E-0001	
 1.13650000000000E+0003	 1.11709377788954E-0001	
 1.13850000000000E+0003	 1.10756799532036E-0001	
 1.14050000000000E+0003	 1.10167221275117E-0001	
 1.14250000000000E+0003	 1.09903143018199E-0001	
 1.14450000000000E+0003	 1.09862064761280E-0001	
 1.14650000000000E+0003	 1.09912486504361E-0001	
 1.14850000000000E+0003	 1.10008908247443E-0001	
 1.15050000000000E+0003	 1.10076329990524E-0001	
 1.15250000000000E+0003	 1.10141751733605E-0001	
 1.15450000000000E+0003	 1.10162173476687E-0001	
 1.15650000000000E+0003	 1.10145095219768E-0001	
 1.15850000000000E+0003	 1.10078516962850E-0001	
 1.16050000000000E+0003	 1.09962938705931E-0001	
 1.16250000000000E+0003	 1.09779360449012E-0001	
 1.16450000000000E+0003	 1.09519782192094E-0001	
 1.16650000000000E+0003	 1.09138203935175E-0001	
 1.16850000000000E+0003	 1.08668125678256E-0001	
 1.17050000000000E+0003	 1.08110047421338E-0001	
 1.17250000000000E+0003	 1.07482469164419E-0001	
 1.17450000000000E+0003	 1.06779390907501E-0001	
 1.17650000000000E+0003	 1.06065312650582E-0001	
 1.17850000000000E+0003	 1.05409234393663E-0001	
 1.18050000000000E+0003	 1.04934656136745E-0001	
 1.18250000000000E+0003	 1.04666577879826E-0001	
 1.18450000000000E+0003	 1.04619499622907E-0001	
 1.18650000000000E+0003	 1.04812421365989E-0001	
 1.18850000000000E+0003	 1.05265843109070E-0001	
 1.19050000000000E+0003	 1.05973264852152E-0001	
 1.19250000000000E+0003	 1.06901686595233E-0001	
 1.19450000000000E+0003	 1.08016108338314E-0001	
 1.19650000000000E+0003	 1.09245530081396E-0001	
 1.19850000000000E+0003	 1.10512951824477E-0001	
 1.20050000000000E+0003	 1.11744873567558E-0001	
 1.20250000000000E+0003	 1.12896295310640E-0001	
 1.20450000000000E+0003	 1.13901717053721E-0001	
 1.20650000000000E+0003	 1.14770138796802E-0001	
 1.20850000000000E+0003	 1.15448560539884E-0001	
 1.21050000000000E+0003	 1.15971982282965E-0001	
 1.21250000000000E+0003	 1.16442904026047E-0001	
 1.21450000000000E+0003	 1.16961325769128E-0001	
 1.21650000000000E+0003	 1.17526247512209E-0001	
 1.21850000000000E+0003	 1.18108669255291E-0001	
 1.22050000000000E+0003	 1.18594090998372E-0001	
 1.22250000000000E+0003	 1.18898012741453E-0001	
 1.22450000000000E+0003	 1.19019434484535E-0001	
 1.22650000000000E+0003	 1.19050856227616E-0001	
 1.22850000000000E+0003	 1.19015777970698E-0001	
 1.23050000000000E+0003	 1.18952199713779E-0001	
 1.23250000000000E+0003	 1.18833621456860E-0001	
 1.23450000000000E+0003	 1.18623543199942E-0001	
 1.23650000000000E+0003	 1.18295964943023E-0001	
 1.23850000000000E+0003	 1.17846886686104E-0001	
 1.24050000000000E+0003	 1.17301808429186E-0001	
 1.24250000000000E+0003	 1.16717230172267E-0001	
 1.24450000000000E+0003	 1.16098151915349E-0001	
 1.24650000000000E+0003	 1.15459573658430E-0001	
 1.24850000000000E+0003	 1.14809495401511E-0001	
 1.25050000000000E+0003	 1.14152917144593E-0001	
 1.25250000000000E+0003	 1.13503838887674E-0001	
 1.25450000000000E+0003	 1.12899760630755E-0001	
 1.25650000000000E+0003	 1.12354682373837E-0001	
 1.25850000000000E+0003	 1.11789604116918E-0001	
 1.26050000000000E+0003	 1.11094025860000E-0001	
 1.26250000000000E+0003	 1.10190947603081E-0001	
 1.26450000000000E+0003	 1.09132869346162E-0001	
 1.26650000000000E+0003	 1.08045791089244E-0001	
 1.26850000000000E+0003	 1.07049712832325E-0001	
 1.27050000000000E+0003	 1.06195134575406E-0001	
 1.27250000000000E+0003	 1.05500556318488E-0001	
 1.27450000000000E+0003	 1.04889478061569E-0001	
 1.27650000000000E+0003	 1.04373899804650E-0001	
 1.27850000000000E+0003	 1.03959821547732E-0001	
 1.28050000000000E+0003	 1.03621243290813E-0001	
 1.28250000000000E+0003	 1.03208165033895E-0001	
 1.28450000000000E+0003	 1.02683586776976E-0001	
 1.28650000000000E+0003	 1.02111008520057E-0001	
 1.28850000000000E+0003	 1.01573430263139E-0001	
 1.29050000000000E+0003	 1.01081852006220E-0001	
 1.29250000000000E+0003	 1.00668273749301E-0001	
 1.29450000000000E+0003	 1.00346195492383E-0001	
 1.29650000000000E+0003	 1.00146117235464E-0001	
 1.29850000000000E+0003	 1.00051038978546E-0001	
 1.30050000000000E+0003	 1.00076460721627E-0001	
 1.30250000000000E+0003	 1.00216382464708E-0001	
 1.30450000000000E+0003	 1.00436804207790E-0001	
 1.30650000000000E+0003	 1.00712725950871E-0001	
 1.30850000000000E+0003	 1.00999647693952E-0001	
 1.31050000000000E+0003	 1.01279069437034E-0001	
 1.31250000000000E+0003	 1.01548991180115E-0001	
 1.31450000000000E+0003	 1.01745912923197E-0001	
 1.31650000000000E+0003	 1.01788834666278E-0001	
 1.31850000000000E+0003	 1.01705256409359E-0001	
 1.32050000000000E+0003	 1.01509678152441E-0001	
 1.32250000000000E+0003	 1.01233599895522E-0001	
 1.32450000000000E+0003	 1.00930021638603E-0001	
 1.32650000000000E+0003	 1.00666943381685E-0001	
 1.32850000000000E+0003	 1.00511865124766E-0001	
 1.33050000000000E+0003	 1.00456286867848E-0001	
 1.33250000000000E+0003	 1.00447708610929E-0001	
 1.33450000000000E+0003	 1.00384630354010E-0001	
 1.33650000000000E+0003	 1.00266552097092E-0001	
 1.33850000000000E+0003	 1.00136473840173E-0001	
 1.34050000000000E+0003	 9.99788955832544E-0002	
 1.34250000000000E+0003	 9.96948173263357E-0002	
 1.34450000000000E+0003	 9.94202390694171E-0002	
 1.34650000000000E+0003	 9.91936608124985E-0002	
 1.34850000000000E+0003	 9.90950825555799E-0002	
 1.35050000000000E+0003	 9.91970042986612E-0002	
 1.35250000000000E+0003	 9.94954260417426E-0002	
 1.35450000000000E+0003	 9.99433477848240E-0002	
 1.35650000000000E+0003	 1.00479269527905E-0001	
 1.35850000000000E+0003	 1.01048191270987E-0001	
 1.36050000000000E+0003	 1.01729113014068E-0001	
 1.36250000000000E+0003	 1.02710534757149E-0001	
 1.36450000000000E+0003	 1.03883956500231E-0001	
 1.36650000000000E+0003	 1.05010878243312E-0001	
 1.36850000000000E+0003	 1.06106299986394E-0001	
 1.37050000000000E+0003	 1.06911221729475E-0001	
 1.37250000000000E+0003	 1.07367143472556E-0001	
 1.37450000000000E+0003	 1.07777065215638E-0001	
 1.37650000000000E+0003	 1.08077486958719E-0001	
 1.37850000000000E+0003	 1.08167908701800E-0001	
 1.38050000000000E+0003	 1.08001330444882E-0001	
 1.38250000000000E+0003	 1.07690752187963E-0001	
 1.38450000000000E+0003	 1.07258173931045E-0001	
 1.38650000000000E+0003	 1.06759595674126E-0001	
 1.38850000000000E+0003	 1.06288517417207E-0001	
 1.39050000000000E+0003	 1.05840939160289E-0001	
 1.39250000000000E+0003	 1.05441360903370E-0001	
 1.39450000000000E+0003	 1.05103282646451E-0001	
 1.39650000000000E+0003	 1.04836704389533E-0001	
 1.39850000000000E+0003	 1.04684626132614E-0001	
 1.40050000000000E+0003	 1.04604547875696E-0001	
 1.40250000000000E+0003	 1.04403469618777E-0001	
 1.40450000000000E+0003	 1.04169391361858E-0001	
 1.40650000000000E+0003	 1.03901313104940E-0001	
 1.40850000000000E+0003	 1.03660234848021E-0001	
 1.41050000000000E+0003	 1.03502156591102E-0001	
 1.41250000000000E+0003	 1.03360578334184E-0001	
 1.41450000000000E+0003	 1.03187000077265E-0001	
 1.41650000000000E+0003	 1.02897921820346E-0001	
 1.41850000000000E+0003	 1.02730843563428E-0001	
 1.42050000000000E+0003	 1.02645265306509E-0001	
 1.42250000000000E+0003	 1.02530187049591E-0001	
 1.42450000000000E+0003	 1.02614108792672E-0001	
 1.42650000000000E+0003	 1.02580030535753E-0001	
 1.42850000000000E+0003	 1.02548452278835E-0001	
 1.43050000000000E+0003	 1.02723374021916E-0001	
 1.43250000000000E+0003	 1.02980295764997E-0001	
 1.43450000000000E+0003	 1.03123217508079E-0001	
 1.43650000000000E+0003	 1.03490139251160E-0001	
 1.43850000000000E+0003	 1.04068560994242E-0001	
 1.44050000000000E+0003	 1.04651482737323E-0001	
 1.44250000000000E+0003	 1.05268904480404E-0001	
 1.44450000000000E+0003	 1.05666326223486E-0001	
 1.44650000000000E+0003	 1.05960747966567E-0001	
 1.44850000000000E+0003	 1.06370169709648E-0001	
 1.45050000000000E+0003	 1.06820091452730E-0001	
 1.45250000000000E+0003	 1.07182513195811E-0001	
 1.45450000000000E+0003	 1.07147934938893E-0001	
 1.45650000000000E+0003	 1.06870356681974E-0001	
 1.45850000000000E+0003	 1.06484278425055E-0001	
 1.46050000000000E+0003	 1.06105200168137E-0001	
 1.46250000000000E+0003	 1.05709621911218E-0001	
 1.46450000000000E+0003	 1.04981543654299E-0001	
 1.46650000000000E+0003	 1.04113965397381E-0001	
 1.46850000000000E+0003	 1.02933887140462E-0001	
 1.47050000000000E+0003	 1.01179808883544E-0001	
 1.47250000000000E+0003	 9.90292306266249E-0002	
 1.47450000000000E+0003	 9.72756523697062E-0002	
 1.47650000000000E+0003	 9.63855741127876E-0002	
 1.47850000000000E+0003	 9.60544958558690E-0002	
 1.48050000000000E+0003	 9.60369175989504E-0002	
 1.48250000000000E+0003	 9.63278393420317E-0002	
 1.48450000000000E+0003	 9.66842610851131E-0002	
 1.48650000000000E+0003	 9.71856828281945E-0002	
 1.48850000000000E+0003	 9.79486045712758E-0002	
 1.49050000000000E+0003	 9.93760263143572E-0002	
 1.49250000000000E+0003	 1.00917448057439E-0001	
 1.49450000000000E+0003	 1.02374869800520E-0001	
 1.49650000000000E+0003	 1.03966291543601E-0001	
 1.49850000000000E+0003	 1.05525713286683E-0001	
 1.50050000000000E+0003	 1.07111635029764E-0001	
 1.50250000000000E+0003	 1.08510056772845E-0001	
 1.50450000000000E+0003	 1.09364978515927E-0001	
 1.50650000000000E+0003	 1.10707900259008E-0001	
 1.50850000000000E+0003	 1.12842822002090E-0001	
 1.51050000000000E+0003	 1.14567243745171E-0001	
 1.51250000000000E+0003	 1.16254165488252E-0001	
 1.51450000000000E+0003	 1.17393087231334E-0001	
 1.51650000000000E+0003	 1.18293008974415E-0001	
 1.51850000000000E+0003	 1.18883430717496E-0001	
 1.52050000000000E+0003	 1.19432852460578E-0001	
 1.52250000000000E+0003	 1.20244274203659E-0001	
 1.52450000000000E+0003	 1.20888195946741E-0001	
 1.52650000000000E+0003	 1.21871617689822E-0001	
 1.52850000000000E+0003	 1.22747039432903E-0001	
 1.53050000000000E+0003	 1.23291461175985E-0001	
 1.53250000000000E+0003	 1.23637382919066E-0001	
 1.53450000000000E+0003	 1.24092304662147E-0001	
 1.53650000000000E+0003	 1.24177726405229E-0001	
 1.53850000000000E+0003	 1.24047648148310E-0001	
 1.54050000000000E+0003	 1.23896569891392E-0001	
 1.54250000000000E+0003	 1.23834491634473E-0001	
 1.54450000000000E+0003	 1.24191413377554E-0001	
 1.54650000000000E+0003	 1.24288835120636E-0001	
 1.54850000000000E+0003	 1.23975756863717E-0001	
 1.55050000000000E+0003	 1.23415678606798E-0001	
 1.55250000000000E+0003	 1.22518100349880E-0001	
 1.55450000000000E+0003	 1.21367022092961E-0001	
 1.55650000000000E+0003	 1.19717943836042E-0001	
 1.55850000000000E+0003	 1.18109365579124E-0001	
 1.56050000000000E+0003	 1.17297287322205E-0001	
 1.56250000000000E+0003	 1.16716209065287E-0001	
 1.56450000000000E+0003	 1.16227630808368E-0001	
 1.56650000000000E+0003	 1.15254552551449E-0001	
 1.56850000000000E+0003	 1.14170974294531E-0001	
 1.57050000000000E+0003	 1.13280396037612E-0001	
 1.57250000000000E+0003	 1.12476817780693E-0001	
 1.57450000000000E+0003	 1.11803239523775E-0001	
 1.57650000000000E+0003	 1.11263161266856E-0001	
 1.57850000000000E+0003	 1.10533583009938E-0001	
 1.58050000000000E+0003	 1.10151004753019E-0001	
 1.58250000000000E+0003	 1.09927426496100E-0001	
 1.58450000000000E+0003	 1.09761848239182E-0001	
 1.58650000000000E+0003	 1.09745769982263E-0001	
 1.58850000000000E+0003	 1.09974191725344E-0001	
 1.59050000000000E+0003	 1.10407613468426E-0001	
 1.59250000000000E+0003	 1.11055035211507E-0001	
 1.59450000000000E+0003	 1.11865956954589E-0001	
 1.59650000000000E+0003	 1.12874378697670E-0001	
 1.59850000000000E+0003	 1.13925300440751E-0001	
 1.60050000000000E+0003	 1.15117722183833E-0001	
 1.60250000000000E+0003	 1.16455643926914E-0001	
 1.60450000000000E+0003	 1.17963565669995E-0001	
 1.60650000000000E+0003	 1.19570987413077E-0001	
 1.60850000000000E+0003	 1.21482409156158E-0001	
 1.61050000000000E+0003	 1.23664330899239E-0001	
 1.61250000000000E+0003	 1.25988252642321E-0001	
 1.61450000000000E+0003	 1.28174674385402E-0001	
 1.61650000000000E+0003	 1.31090096128484E-0001	
 1.61850000000000E+0003	 1.33998017871565E-0001	
 1.62050000000000E+0003	 1.36115939614646E-0001	
 1.62250000000000E+0003	 1.38509861357728E-0001	
 1.62450000000000E+0003	 1.41140283100809E-0001	
 1.62650000000000E+0003	 1.43399204843890E-0001	
 1.62850000000000E+0003	 1.45689626586972E-0001	
 1.63050000000000E+0003	 1.47685048330053E-0001	
 1.63250000000000E+0003	 1.48968970073135E-0001	
 1.63450000000000E+0003	 1.49915891816216E-0001	
 1.63650000000000E+0003	 1.51253313559297E-0001	
 1.63850000000000E+0003	 1.52375235302379E-0001	
 1.64050000000000E+0003	 1.53310657045460E-0001	
 1.64250000000000E+0003	 1.53752078788541E-0001	
 1.64450000000000E+0003	 1.53622500531623E-0001	
 1.64650000000000E+0003	 1.53359922274704E-0001	
 1.64850000000000E+0003	 1.53084844017786E-0001	
 1.65050000000000E+0003	 1.52734265760867E-0001	
 1.65250000000000E+0003	 1.52446187503948E-0001	
 1.65450000000000E+0003	 1.51979109247030E-0001	
 1.65650000000000E+0003	 1.51546530990111E-0001	
 1.65850000000000E+0003	 1.51444952733192E-0001	
 1.66050000000000E+0003	 1.50709374476274E-0001	
 1.66250000000000E+0003	 1.49739296219355E-0001	
 1.66450000000000E+0003	 1.48751217962437E-0001	
 1.66650000000000E+0003	 1.47744139705518E-0001	
 1.66850000000000E+0003	 1.46621561448599E-0001	
 1.67050000000000E+0003	 1.45461983191681E-0001	
 1.67250000000000E+0003	 1.44450404934762E-0001	
 1.67450000000000E+0003	 1.43697826677843E-0001	
 1.67650000000000E+0003	 1.42884248420925E-0001	
 1.67850000000000E+0003	 1.42132670164006E-0001	
 1.68050000000000E+0003	 1.41405591907087E-0001	
 1.68250000000000E+0003	 1.40286013650169E-0001	
 1.68450000000000E+0003	 1.39586435393250E-0001	
 1.68650000000000E+0003	 1.38875857136332E-0001	
 1.68850000000000E+0003	 1.38318778879413E-0001	
 1.69050000000000E+0003	 1.37797700622494E-0001	
 1.69250000000000E+0003	 1.36780122365576E-0001	
 1.69450000000000E+0003	 1.35738044108657E-0001	
 1.69650000000000E+0003	 1.34445965851738E-0001	
 1.69850000000000E+0003	 1.32820887594820E-0001	
 1.70050000000000E+0003	 1.31681309337901E-0001	
 1.70250000000000E+0003	 1.30525231080983E-0001	
 1.70450000000000E+0003	 1.29815152824064E-0001	
 1.70650000000000E+0003	 1.29142574567145E-0001	
 1.70850000000000E+0003	 1.28273996310227E-0001	
 1.71050000000000E+0003	 1.27498918053308E-0001	
 1.71250000000000E+0003	 1.26417339796389E-0001	
 1.71450000000000E+0003	 1.25095761539471E-0001	
 1.71650000000000E+0003	 1.23669683282552E-0001	
 1.71850000000000E+0003	 1.22104105025634E-0001	
 1.72050000000000E+0003	 1.20404026768715E-0001	
 1.72250000000000E+0003	 1.19143448511796E-0001	
 1.72450000000000E+0003	 1.17899870254878E-0001	
 1.72650000000000E+0003	 1.16693791997959E-0001	
 1.72850000000000E+0003	 1.15727713741040E-0001	
 1.73050000000000E+0003	 1.14971635484122E-0001	
 1.73250000000000E+0003	 1.14480557227203E-0001	
 1.73450000000000E+0003	 1.14643978970285E-0001	
 1.73650000000000E+0003	 1.14571900713366E-0001	
 1.73850000000000E+0003	 1.14781822456447E-0001	
 1.74050000000000E+0003	 1.15202744199529E-0001	
 1.74250000000000E+0003	 1.15283165942610E-0001	
 1.74450000000000E+0003	 1.15206087685691E-0001	
 1.74650000000000E+0003	 1.14611009428773E-0001	
 1.74850000000000E+0003	 1.13618431171854E-0001	
 1.75050000000000E+0003	 1.12451852914935E-0001	
 1.75250000000000E+0003	 1.11008774658017E-0001	
 1.75450000000000E+0003	 1.09333696401098E-0001	
 1.75650000000000E+0003	 1.07690618144180E-0001	
 1.75850000000000E+0003	 1.05859039887261E-0001	
 1.76050000000000E+0003	 1.04087461630342E-0001	
 1.76250000000000E+0003	 1.02479883373424E-0001	
 1.76450000000000E+0003	 1.00854805116505E-0001	
 1.76650000000000E+0003	 9.94462268595865E-0002	
 1.76850000000000E+0003	 9.79326486026678E-0002	
 1.77050000000000E+0003	 9.63110703457492E-0002	
 1.77250000000000E+0003	 9.51534920888306E-0002	
 1.77450000000000E+0003	 9.41474138319119E-0002	
 1.77650000000000E+0003	 9.33213355749933E-0002	
 1.77850000000000E+0003	 9.25672573180747E-0002	
 1.78050000000000E+0003	 9.17706790611561E-0002	
 1.78250000000000E+0003	 9.09931008042374E-0002	
 1.78450000000000E+0003	 9.03145225473188E-0002	
 1.78650000000000E+0003	 8.96894442904002E-0002	
 1.78850000000000E+0003	 8.89303660334815E-0002	
 1.79050000000000E+0003	 8.82007877765629E-0002	
 1.79250000000000E+0003	 8.76342095196443E-0002	
 1.79450000000000E+0003	 8.71381312627257E-0002	
 1.79650000000000E+0003	 8.67325530058070E-0002	
 1.79850000000000E+0003	 8.62839747488884E-0002	
 1.80050000000000E+0003	 8.58113964919698E-0002	
 1.80250000000000E+0003	 8.54818182350511E-0002	
 1.80450000000000E+0003	 8.51017399781325E-0002	
 1.80650000000000E+0003	 8.47231617212139E-0002	
 1.80850000000000E+0003	 8.42755834642953E-0002	
 1.81050000000000E+0003	 8.38690052073766E-0002	
 1.81250000000000E+0003	 8.35429269504580E-0002	
 1.81450000000000E+0003	 8.32158486935394E-0002	
 1.81650000000000E+0003	 8.29072704366207E-0002	
 1.81850000000000E+0003	 8.25966921797021E-0002	
 1.82050000000000E+0003	 8.22346139227835E-0002	
 1.82250000000000E+0003	 8.18200356658649E-0002	
 1.82450000000000E+0003	 8.14464574089462E-0002	
 1.82650000000000E+0003	 8.10523791520276E-0002	
 1.82850000000000E+0003	 8.06208008951090E-0002	
 1.83050000000000E+0003	 8.05012226381903E-0002	
 1.83250000000000E+0003	 8.02986443812717E-0002	
 1.83450000000000E+0003	 8.01480661243531E-0002	
 1.83650000000000E+0003	 7.99829878674345E-0002	
 1.83850000000000E+0003	 7.97569096105158E-0002	
 1.84050000000000E+0003	 7.93918313535972E-0002	
 1.84250000000000E+0003	 7.89867530966786E-0002	
 1.84450000000000E+0003	 7.87951748397599E-0002	
 1.84650000000000E+0003	 7.85765965828413E-0002	
 1.84850000000000E+0003	 7.85015183259227E-0002	
 1.85050000000000E+0003	 7.84314400690041E-0002	
 1.85250000000000E+0003	 7.82438618120854E-0002	
 1.85450000000000E+0003	 7.80667835551668E-0002	
 1.85650000000000E+0003	 7.78702052982482E-0002	
 1.85850000000000E+0003	 7.77001270413295E-0002	
 1.86050000000000E+0003	 7.75335487844109E-0002	
 1.86250000000000E+0003	 7.73519705274923E-0002	
 1.86450000000000E+0003	 7.70928922705737E-0002	
 1.86650000000000E+0003	 7.67698140136550E-0002	
 1.86850000000000E+0003	 7.66082357567364E-0002	
 1.87050000000000E+0003	 7.65536574998178E-0002	
 1.87250000000000E+0003	 7.64535792428991E-0002	
 1.87450000000000E+0003	 7.64280009859805E-0002	
 1.87650000000000E+0003	 7.63424227290619E-0002	
 1.87850000000000E+0003	 7.62263444721433E-0002	
 1.88050000000000E+0003	 7.61017662152246E-0002	
 1.88250000000000E+0003	 7.59656879583060E-0002	
 1.88450000000000E+0003	 7.58541097013874E-0002	
 1.88650000000000E+0003	 7.56730314444687E-0002	
 1.88850000000000E+0003	 7.55034531875501E-0002	
 1.89050000000000E+0003	 7.54453749306315E-0002	
 1.89250000000000E+0003	 7.53212966737129E-0002	
 1.89450000000000E+0003	 7.52632184167942E-0002	
 1.89650000000000E+0003	 7.52201401598756E-0002	
 1.89850000000000E+0003	 7.51140619029570E-0002	
 1.90050000000000E+0003	 7.50349836460383E-0002	
 1.90250000000000E+0003	 7.49454053891197E-0002	
 1.90450000000000E+0003	 7.48453271322011E-0002	
 1.90650000000000E+0003	 7.47292488752825E-0002	
 1.90850000000000E+0003	 7.46466706183638E-0002	
 1.91050000000000E+0003	 7.45925923614452E-0002	
 1.91250000000000E+0003	 7.45060141045266E-0002	
 1.91450000000000E+0003	 7.43744358476079E-0002	
 1.91650000000000E+0003	 7.42163575906893E-0002	
 1.91850000000000E+0003	 7.41782793337707E-0002	
 1.92050000000000E+0003	 7.40682010768521E-0002	
 1.92250000000000E+0003	 7.40891228199334E-0002	
 1.92450000000000E+0003	 7.41220445630148E-0002	
 1.92650000000000E+0003	 7.40374663060962E-0002	
 1.92850000000000E+0003	 7.39993880491775E-0002	
 1.93050000000000E+0003	 7.39508097922589E-0002	
 1.93250000000000E+0003	 7.38982315353403E-0002	
 1.93450000000000E+0003	 7.38516532784217E-0002	
 1.93650000000000E+0003	 7.38020750215030E-0002	
 1.93850000000000E+0003	 7.37334967645844E-0002	
 1.94050000000000E+0003	 7.36034185076658E-0002	
 1.94250000000000E+0003	 7.35808402507471E-0002	
 1.94450000000000E+0003	 7.35652619938285E-0002	
 1.94650000000000E+0003	 7.35456837369099E-0002	
 1.94850000000000E+0003	 7.35546054799913E-0002	
 1.95050000000000E+0003	 7.35245272230726E-0002	
 1.95250000000000E+0003	 7.34964489661540E-0002	
 1.95450000000000E+0003	 7.34773707092354E-0002	
 1.95650000000000E+0003	 7.34522924523167E-0002	
 1.95850000000000E+0003	 7.34132141953981E-0002	
 1.96050000000000E+0003	 7.33726359384795E-0002	
 1.96250000000000E+0003	 7.33325576815609E-0002	
 1.96450000000000E+0003	 7.32694794246422E-0002	
 1.96650000000000E+0003	 7.32534011677236E-0002	
 1.96850000000000E+0003	 7.32528229108050E-0002	
 1.97050000000000E+0003	 7.32112446538863E-0002	
 1.97250000000000E+0003	 7.31986663969677E-0002	
 1.97450000000000E+0003	 7.31800881400491E-0002	
 1.97650000000000E+0003	 7.31520098831305E-0002	
 1.97850000000000E+0003	 7.31369316262118E-0002	
 1.98050000000000E+0003	 7.31168533692932E-0002	
 1.98250000000000E+0003	 7.30932751123746E-0002	
 1.98450000000000E+0003	 7.30631968554559E-0002	
 1.98650000000000E+0003	 7.30371185985373E-0002	
 1.98850000000000E+0003	 7.30075403416187E-0002	
 1.99050000000000E+0003	 7.29639620847001E-0002	
 1.99250000000000E+0003	 7.29818838277814E-0002	
 1.99450000000000E+0003	 7.29763055708628E-0002	
 1.99650000000000E+0003	 7.29577273139442E-0002	
 1.99850000000000E+0003	 7.29651490570255E-0002	
 2.00050000000000E+0003	 7.29510708001069E-0002	
 2.00250000000000E+0003	 7.29464925431883E-0002	
 2.00450000000000E+0003	 7.29424142862697E-0002	
 2.00650000000000E+0003	 7.29398360293510E-0002	
 2.00850000000000E+0003	 7.29362577724324E-0002	
 2.01050000000000E+0003	 7.29411795155138E-0002	
 2.01250000000000E+0003	 7.29396012585951E-0002	
 2.01450000000000E+0003	 7.29275230016765E-0002	
 2.01650000000000E+0003	 7.29364447447579E-0002	
 2.01850000000000E+0003	 7.29658664878392E-0002	
 2.02050000000000E+0003	 7.29627882309206E-0002	
 2.02250000000000E+0003	 7.29777099740020E-0002	
 2.02450000000000E+0003	 7.29916317170834E-0002	
 2.02650000000000E+0003	 7.30015534601647E-0002	
 2.02850000000000E+0003	 7.30139752032461E-0002	
 2.03050000000000E+0003	 7.30213969463275E-0002	
 2.03250000000000E+0003	 7.30198186894088E-0002	
 2.03450000000000E+0003	 7.30177404324902E-0002	
 2.03650000000000E+0003	 7.30166621755716E-0002	
 2.03850000000000E+0003	 7.30145839186530E-0002	
 2.04050000000000E+0003	 7.30230056617343E-0002	
 2.04250000000000E+0003	 7.30364274048157E-0002	
 2.04450000000000E+0003	 7.30318491478971E-0002	
 2.04650000000000E+0003	 7.30287708909784E-0002	
 2.04850000000000E+0003	 7.30256926340598E-0002	
 2.05050000000000E+0003	 7.30286143771412E-0002	
 2.05250000000000E+0003	 7.30310361202226E-0002	
 2.05450000000000E+0003	 7.30259578633039E-0002	
 2.05650000000000E+0003	 7.30198796063853E-0002	
 2.05850000000000E+0003	 7.30178013494667E-0002	
 2.06050000000000E+0003	 7.30147230925480E-0002	
 2.06250000000000E+0003	 7.30041448356294E-0002	
 2.06450000000000E+0003	 7.30115665787108E-0002	
 2.06650000000000E+0003	 7.30114883217922E-0002	
 2.06850000000000E+0003	 7.29909100648735E-0002	
 2.07050000000000E+0003	 7.30003318079549E-0002	
 2.07250000000000E+0003	 7.30047535510363E-0002	
 2.07450000000000E+0003	 7.29916752941176E-0002	
 2.07650000000000E+0003	 7.29780970371990E-0002	
 2.07850000000000E+0003	 7.29760187802804E-0002	
 2.08050000000000E+0003	 7.29654405233618E-0002	
 2.08250000000000E+0003	 7.29443622664431E-0002	
 2.08450000000000E+0003	 7.29262840095245E-0002	
 2.08650000000000E+0003	 7.29147057526059E-0002	
 2.08850000000000E+0003	 7.29016274956872E-0002	
 2.09050000000000E+0003	 7.28870492387686E-0002	
 2.09250000000000E+0003	 7.28654709818500E-0002	
 2.09450000000000E+0003	 7.28518927249314E-0002	
 2.09650000000000E+0003	 7.28503144680127E-0002	
 2.09850000000000E+0003	 7.28422362110941E-0002	
 2.10050000000000E+0003	 7.28276579541755E-0002	
 2.10250000000000E+0003	 7.28050796972568E-0002	
 2.10450000000000E+0003	 7.27900014403382E-0002	
 2.10650000000000E+0003	 7.27829231834196E-0002	
 2.10850000000000E+0003	 7.27738449265010E-0002	
 2.11050000000000E+0003	 7.27627666695823E-0002	
 2.11250000000000E+0003	 7.27546884126637E-0002	
 2.11450000000000E+0003	 7.27446101557451E-0002	
 2.11650000000000E+0003	 7.27315318988264E-0002	
 2.11850000000000E+0003	 7.27214536419078E-0002	
 2.12050000000000E+0003	 7.27043753849892E-0002	
 2.12250000000000E+0003	 7.26777971280706E-0002	
 2.12450000000000E+0003	 7.26577188711519E-0002	
 2.12650000000000E+0003	 7.26496406142333E-0002	
 2.12850000000000E+0003	 7.26355623573147E-0002	
 2.13050000000000E+0003	 7.26164841003960E-0002	
 2.13250000000000E+0003	 7.25874058434774E-0002	
 2.13450000000000E+0003	 7.25538275865588E-0002	
 2.13650000000000E+0003	 7.25287493296402E-0002	
 2.13850000000000E+0003	 7.25071710727215E-0002	
 2.14050000000000E+0003	 7.24850928158029E-0002	
 2.14250000000000E+0003	 7.24605145588843E-0002	
 2.14450000000000E+0003	 7.24264363019656E-0002	
 2.14650000000000E+0003	 7.23973580450470E-0002	
 2.14850000000000E+0003	 7.23627797881284E-0002	
 2.15050000000000E+0003	 7.23262015312098E-0002	
 2.15250000000000E+0003	 7.22911232742911E-0002	
 2.15450000000000E+0003	 7.22620450173725E-0002	
 2.15650000000000E+0003	 7.22314667604539E-0002	
 2.15850000000000E+0003	 7.21993885035352E-0002	
 2.16050000000000E+0003	 7.21618102466166E-0002	
 2.16250000000000E+0003	 7.21267319896980E-0002	
 2.16450000000000E+0003	 7.20911537327794E-0002	
 2.16650000000000E+0003	 7.20610754758607E-0002	
 2.16850000000000E+0003	 7.20309972189421E-0002	
 2.17050000000000E+0003	 7.19919189620235E-0002	
 2.17250000000000E+0003	 7.19473407051048E-0002	
 2.17450000000000E+0003	 7.19057624481862E-0002	
 2.17650000000000E+0003	 7.18646841912676E-0002	
 2.17850000000000E+0003	 7.18261059343490E-0002	
 2.18050000000000E+0003	 7.17815276774303E-0002	
 2.18250000000000E+0003	 7.17469494205117E-0002	
 2.18450000000000E+0003	 7.17123711635931E-0002	
 2.18650000000000E+0003	 7.16727929066744E-0002	
 2.18850000000000E+0003	 7.16337146497558E-0002	
 2.19050000000000E+0003	 7.15966363928372E-0002	
 2.19250000000000E+0003	 7.15685581359186E-0002	
 2.19450000000000E+0003	 7.15494798789999E-0002	
 2.19650000000000E+0003	 7.15184016220813E-0002	
 2.19850000000000E+0003	 7.14848233651627E-0002	
 2.20050000000000E+0003	 7.14532451082440E-0002	
 2.20250000000000E+0003	 7.14306668513254E-0002	
 2.20450000000000E+0003	 7.14170885944068E-0002	
 2.20650000000000E+0003	 7.13935103374882E-0002	
 2.20850000000000E+0003	 7.13634320805695E-0002	
 2.21050000000000E+0003	 7.13378538236509E-0002	
 2.21250000000000E+0003	 7.13307755667323E-0002	
 2.21450000000000E+0003	 7.13221973098136E-0002	
 2.21650000000000E+0003	 7.13086190528950E-0002	
 2.21850000000000E+0003	 7.13005407959764E-0002	
 2.22050000000000E+0003	 7.12849625390578E-0002	
 2.22250000000000E+0003	 7.12608842821391E-0002	
 2.22450000000000E+0003	 7.12468060252205E-0002	
 2.22650000000000E+0003	 7.12382277683019E-0002	
 2.22850000000000E+0003	 7.12246495113832E-0002	
 2.23050000000000E+0003	 7.12095712544646E-0002	
 2.23250000000000E+0003	 7.11909929975460E-0002	
 2.23450000000000E+0003	 7.11734147406274E-0002	
 2.23650000000000E+0003	 7.11603364837087E-0002	
 2.23850000000000E+0003	 7.11582582267901E-0002	
 2.24050000000000E+0003	 7.11546799698715E-0002	
 2.24250000000000E+0003	 7.11526017129528E-0002	
 2.24450000000000E+0003	 7.11530234560342E-0002	
 2.24650000000000E+0003	 7.11509451991156E-0002	
 2.24850000000000E+0003	 7.11433669421970E-0002	
 2.25050000000000E+0003	 7.11407886852783E-0002	
 2.25250000000000E+0003	 7.11442104283597E-0002	
 2.25450000000000E+0003	 7.11496321714411E-0002	
 2.25650000000000E+0003	 7.11480539145224E-0002	
 2.25850000000000E+0003	 7.11499756576038E-0002	
 2.26050000000000E+0003	 7.11488974006852E-0002	
 2.26250000000000E+0003	 7.11493191437666E-0002	
 2.26450000000000E+0003	 7.11572408868479E-0002	
 2.26650000000000E+0003	 7.11646626299293E-0002	
 2.26850000000000E+0003	 7.11630843730107E-0002	
 2.27050000000000E+0003	 7.11610061160920E-0002	
 2.27250000000000E+0003	 7.11664278591734E-0002	
 2.27450000000000E+0003	 7.11738496022548E-0002	
 2.27650000000000E+0003	 7.11862713453362E-0002	
 2.27850000000000E+0003	 7.12036930884175E-0002	
 2.28050000000000E+0003	 7.12236148314989E-0002	
 2.28250000000000E+0003	 7.12445365745803E-0002	
 2.28450000000000E+0003	 7.12704583176616E-0002	
 2.28650000000000E+0003	 7.13053800607430E-0002	
 2.28850000000000E+0003	 7.13513018038244E-0002	
 2.29050000000000E+0003	 7.14002235469058E-0002	
 2.29250000000000E+0003	 7.14541452899871E-0002	
 2.29450000000000E+0003	 7.15135670330685E-0002	
 2.29650000000000E+0003	 7.15774887761499E-0002	
 2.29850000000000E+0003	 7.16409105192312E-0002	
 2.30050000000000E+0003	 7.16843322623126E-0002	
 2.30250000000000E+0003	 7.17002540053940E-0002	
 2.30450000000000E+0003	 7.17281757484754E-0002	
 2.30650000000000E+0003	 7.17815974915567E-0002	
 2.30850000000000E+0003	 7.18185192346381E-0002	
 2.31050000000000E+0003	 7.18329409777195E-0002	
 2.31250000000000E+0003	 7.18208627208008E-0002	
 2.31450000000000E+0003	 7.17967844638822E-0002	
 2.31650000000000E+0003	 7.18247062069636E-0002	
 2.31850000000000E+0003	 7.19011279500449E-0002	
 2.32050000000000E+0003	 7.19945496931263E-0002	
 2.32250000000000E+0003	 7.20704714362077E-0002	
 2.32450000000000E+0003	 7.20868931792891E-0002	
 2.32650000000000E+0003	 7.20713149223704E-0002	
 2.32850000000000E+0003	 7.20552366654518E-0002	
 2.33050000000000E+0003	 7.20631584085332E-0002	
 2.33250000000000E+0003	 7.20410801516145E-0002	
 2.33450000000000E+0003	 7.19875018946959E-0002	
 2.33650000000000E+0003	 7.19869236377773E-0002	
 2.33850000000000E+0003	 7.20473453808587E-0002	
 2.34050000000000E+0003	 7.21247671239400E-0002	
 2.34250000000000E+0003	 7.22061888670214E-0002	
 2.34450000000000E+0003	 7.22281106101028E-0002	
 2.34650000000000E+0003	 7.21875323531841E-0002	
 2.34850000000000E+0003	 7.22214540962655E-0002	
 2.35050000000000E+0003	 7.22193758393469E-0002	
 2.35250000000000E+0003	 7.21332975824283E-0002	
 2.35450000000000E+0003	 7.21887193255096E-0002	
 2.35650000000000E+0003	 7.23286410685910E-0002	
 2.35850000000000E+0003	 7.24075628116724E-0002	
 2.36050000000000E+0003	 7.24129845547537E-0002	
 2.36250000000000E+0003	 7.24229062978351E-0002	
 2.36450000000000E+0003	 7.24458280409165E-0002	
 2.36650000000000E+0003	 7.24992497839979E-0002	
 2.36850000000000E+0003	 7.25706715270792E-0002	
 2.37050000000000E+0003	 7.26035932701606E-0002	
 2.37250000000000E+0003	 7.25625150132420E-0002	
 2.37450000000000E+0003	 7.25079367563233E-0002	
 2.37650000000000E+0003	 7.25663584994047E-0002	
 2.37850000000000E+0003	 7.27632802424861E-0002	
 2.38050000000000E+0003	 7.29647019855675E-0002	
 2.38250000000000E+0003	 7.30556237286488E-0002	
 2.38450000000000E+0003	 7.30420454717302E-0002	
 2.38650000000000E+0003	 7.30039672148116E-0002	
 2.38850000000000E+0003	 7.29918889578929E-0002	
 2.39050000000000E+0003	 7.30208107009743E-0002	
 2.39250000000000E+0003	 7.30662324440557E-0002	
 2.39450000000000E+0003	 7.31291541871371E-0002	
 2.39650000000000E+0003	 7.31995759302184E-0002	
 2.39850000000000E+0003	 7.32699976732998E-0002	
 2.40050000000000E+0003	 7.33419194163812E-0002	
 2.40250000000000E+0003	 7.34118411594625E-0002	
 2.40450000000000E+0003	 7.34787629025439E-0002	
 2.40650000000000E+0003	 7.35526846456253E-0002	
 2.40850000000000E+0003	 7.36281063887067E-0002	
 2.41050000000000E+0003	 7.36985281317880E-0002	
 2.41250000000000E+0003	 7.37754498748694E-0002	
 2.41450000000000E+0003	 7.38658716179508E-0002	
 2.41650000000000E+0003	 7.39622933610321E-0002	
 2.41850000000000E+0003	 7.40457151041135E-0002	
 2.42050000000000E+0003	 7.41201368471949E-0002	
 2.42250000000000E+0003	 7.42025585902763E-0002	
 2.42450000000000E+0003	 7.42954803333576E-0002	
 2.42650000000000E+0003	 7.43844020764390E-0002	
 2.42850000000000E+0003	 7.44708238195204E-0002	
 2.43050000000000E+0003	 7.45617455626017E-0002	
 2.43250000000000E+0003	 7.46626673056831E-0002	
 2.43450000000000E+0003	 7.47640890487645E-0002	
 2.43650000000000E+0003	 7.48540107918459E-0002	
 2.43850000000000E+0003	 7.49399325349272E-0002	
 2.44050000000000E+0003	 7.50378542780086E-0002	
 2.44250000000000E+0003	 7.51412760210900E-0002	
 2.44450000000000E+0003	 7.52391977641713E-0002	
 2.44650000000000E+0003	 7.53331195072527E-0002	
 2.44850000000000E+0003	 7.54320412503341E-0002	
 2.45050000000000E+0003	 7.55434629934155E-0002	
 2.45250000000000E+0003	 7.56543847364968E-0002	
 2.45450000000000E+0003	 7.57588064795782E-0002	
 2.45650000000000E+0003	 7.58572282226596E-0002	
 2.45850000000000E+0003	 7.59606499657409E-0002	
 2.46050000000000E+0003	 7.60660717088223E-0002	
 2.46250000000000E+0003	 7.61754934519037E-0002	
 2.46450000000000E+0003	 7.62779151949851E-0002	
 2.46650000000000E+0003	 7.63823369380664E-0002	
 2.46850000000000E+0003	 7.64927586811478E-0002	
 2.47050000000000E+0003	 7.66096804242292E-0002	
 2.47250000000000E+0003	 7.67266021673105E-0002	
 2.47450000000000E+0003	 7.68490239103919E-0002	
 2.47650000000000E+0003	 7.69664456534733E-0002	
 2.47850000000000E+0003	 7.70763673965547E-0002	
 2.48050000000000E+0003	 7.71952891396360E-0002	
 2.48250000000000E+0003	 7.73227108827174E-0002	
 2.48450000000000E+0003	 7.74471326257988E-0002	
 2.48650000000000E+0003	 7.75740543688801E-0002	
 2.48850000000000E+0003	 7.77059761119615E-0002	
 2.49050000000000E+0003	 7.78273978550429E-0002	
 2.49250000000000E+0003	 7.79448195981243E-0002	
 2.49450000000000E+0003	 7.80607413412056E-0002	
 2.49650000000000E+0003	 7.81941630842870E-0002	
 2.49850000000000E+0003	 7.83325848273684E-0002	
 2.50050000000000E+0003	 7.84615065704497E-0002	
 2.50250000000000E+0003	 7.85859283135311E-0002	
 2.50450000000000E+0003	 7.87093500566125E-0002	
 2.50650000000000E+0003	 7.88377717996939E-0002	
 2.50850000000000E+0003	 7.89701935427752E-0002	
 2.51050000000000E+0003	 7.90971152858566E-0002	
 2.51250000000000E+0003	 7.92275370289380E-0002	
 2.51450000000000E+0003	 7.93594587720193E-0002	
 2.51650000000000E+0003	 7.94863805151007E-0002	
 2.51850000000000E+0003	 7.96098022581821E-0002	
 2.52050000000000E+0003	 7.97282240012635E-0002	
 2.52250000000000E+0003	 7.98471457443448E-0002	
 2.52450000000000E+0003	 7.99635674874262E-0002	
 2.52650000000000E+0003	 8.00824892305076E-0002	
 2.52850000000000E+0003	 8.01984109735889E-0002	
 2.53050000000000E+0003	 8.03123327166703E-0002	
 2.53250000000000E+0003	 8.04162544597517E-0002	
 2.53450000000000E+0003	 8.05186762028331E-0002	
 2.53650000000000E+0003	 8.06215979459144E-0002	
 2.53850000000000E+0003	 8.07200196889958E-0002	
 2.54050000000000E+0003	 8.08099414320772E-0002	
 2.54250000000000E+0003	 8.09043631751585E-0002	
 2.54450000000000E+0003	 8.10057849182399E-0002	
 2.54650000000000E+0003	 8.10977066613213E-0002	
 2.54850000000000E+0003	 8.11766284044027E-0002	
 2.55050000000000E+0003	 8.12545501474840E-0002	
 2.55250000000000E+0003	 8.13334718905654E-0002	
 2.55450000000000E+0003	 8.14098936336468E-0002	
 2.55650000000000E+0003	 8.14898153767281E-0002	
 2.55850000000000E+0003	 8.15737371198095E-0002	
 2.56050000000000E+0003	 8.16481588628909E-0002	
 2.56250000000000E+0003	 8.17175806059723E-0002	
 2.56450000000000E+0003	 8.17930023490536E-0002	
 2.56650000000000E+0003	 8.18679240921350E-0002	
 2.56850000000000E+0003	 8.19408458352164E-0002	
 2.57050000000000E+0003	 8.20102675782977E-0002	
 2.57250000000000E+0003	 8.20856893213791E-0002	
 2.57450000000000E+0003	 8.21711110644605E-0002	
 2.57650000000000E+0003	 8.22475328075419E-0002	
 2.57850000000000E+0003	 8.23229545506232E-0002	
 2.58050000000000E+0003	 8.24168762937046E-0002	
 2.58250000000000E+0003	 8.25207980367860E-0002	
 2.58450000000000E+0003	 8.26132197798673E-0002	
 2.58650000000000E+0003	 8.27111415229487E-0002	
 2.58850000000000E+0003	 8.28130632660301E-0002	
 2.59050000000000E+0003	 8.29199850091115E-0002	
 2.59250000000000E+0003	 8.30354067521928E-0002	
 2.59450000000000E+0003	 8.31613284952742E-0002	
 2.59650000000000E+0003	 8.32837502383556E-0002	
 2.59850000000000E+0003	 8.34056719814369E-0002	
 2.60050000000000E+0003	 8.35275937245183E-0002	
 2.60250000000000E+0003	 8.36530154675997E-0002	
 2.60450000000000E+0003	 8.37744372106811E-0002	
 2.60650000000000E+0003	 8.38978589537624E-0002	
 2.60850000000000E+0003	 8.40287806968438E-0002	
 2.61050000000000E+0003	 8.41552024399252E-0002	
 2.61250000000000E+0003	 8.42746241830065E-0002	
 2.61450000000000E+0003	 8.43965459260879E-0002	
 2.61650000000000E+0003	 8.45294676691693E-0002	
 2.61850000000000E+0003	 8.46553894122506E-0002	
 2.62050000000000E+0003	 8.47678111553320E-0002	
 2.62250000000000E+0003	 8.48872328984134E-0002	
 2.62450000000000E+0003	 8.50166546414948E-0002	
 2.62650000000000E+0003	 8.51435763845761E-0002	
 2.62850000000000E+0003	 8.52654981276575E-0002	
 2.63050000000000E+0003	 8.53799198707389E-0002	
 2.63250000000000E+0003	 8.54893416138202E-0002	
 2.63450000000000E+0003	 8.56022633569016E-0002	
 2.63650000000000E+0003	 8.57196850999830E-0002	
 2.63850000000000E+0003	 8.58361068430644E-0002	
 2.64050000000000E+0003	 8.59395285861457E-0002	
 2.64250000000000E+0003	 8.60464503292271E-0002	
 2.64450000000000E+0003	 8.61543720723085E-0002	
 2.64650000000000E+0003	 8.62677938153898E-0002	
 2.64850000000000E+0003	 8.63842155584712E-0002	
 2.65050000000000E+0003	 8.65031373015526E-0002	
 2.65250000000000E+0003	 8.66160590446340E-0002	
 2.65450000000000E+0003	 8.67209807877153E-0002	
 2.65650000000000E+0003	 8.68234025307967E-0002	
 2.65850000000000E+0003	 8.69363242738781E-0002	
 2.66050000000000E+0003	 8.70507460169594E-0002	
 2.66250000000000E+0003	 8.71706677600408E-0002	
 2.66450000000000E+0003	 8.72910895031222E-0002	
 2.66650000000000E+0003	 8.74110112462036E-0002	
 2.66850000000000E+0003	 8.75289329892849E-0002	
 2.67050000000000E+0003	 8.76578547323663E-0002	
 2.67250000000000E+0003	 8.78027764754477E-0002	
 2.67450000000000E+0003	 8.79466982185290E-0002	
 2.67650000000000E+0003	 8.80911199616104E-0002	
 2.67850000000000E+0003	 8.82420417046918E-0002	
 2.68050000000000E+0003	 8.83744634477732E-0002	
 2.68250000000000E+0003	 8.84828851908545E-0002	
 2.68450000000000E+0003	 8.85908069339359E-0002	
 2.68650000000000E+0003	 8.87137286770173E-0002	
 2.68850000000000E+0003	 8.88526504200986E-0002	
 2.69050000000000E+0003	 8.89935721631800E-0002	
 2.69250000000000E+0003	 8.91264939062614E-0002	
 2.69450000000000E+0003	 8.92559156493428E-0002	
 2.69650000000000E+0003	 8.93913373924241E-0002	
 2.69850000000000E+0003	 8.95362591355055E-0002	
 2.70050000000000E+0003	 8.96946808785869E-0002	
 2.70250000000000E+0003	 8.98491026216682E-0002	
 2.70450000000000E+0003	 9.00055243647496E-0002	
 2.70650000000000E+0003	 9.01654461078310E-0002	
 2.70850000000000E+0003	 9.03408678509124E-0002	
 2.71050000000000E+0003	 9.05197895939937E-0002	
 2.71250000000000E+0003	 9.06897113370751E-0002	
 2.71450000000000E+0003	 9.08686330801565E-0002	
 2.71650000000000E+0003	 9.10510548232378E-0002	
 2.71850000000000E+0003	 9.12304765663192E-0002	
 2.72050000000000E+0003	 9.14273983094006E-0002	
 2.72250000000000E+0003	 9.16413200524820E-0002	
 2.72450000000000E+0003	 9.18547417955633E-0002	
 2.72650000000000E+0003	 9.20616635386447E-0002	
 2.72850000000000E+0003	 9.22120852817261E-0002	
 2.73050000000000E+0003	 9.23450070248074E-0002	
 2.73250000000000E+0003	 9.24994287678888E-0002	
 2.73450000000000E+0003	 9.26683505109702E-0002	
 2.73650000000000E+0003	 9.28402722540516E-0002	
 2.73850000000000E+0003	 9.29881939971329E-0002	
 2.74050000000000E+0003	 9.31146157402143E-0002	
 2.74250000000000E+0003	 9.32570374832957E-0002	
 2.74450000000000E+0003	 9.33989592263770E-0002	
 2.74650000000000E+0003	 9.35613809694584E-0002	
 2.74850000000000E+0003	 9.37228027125398E-0002	
 2.75050000000000E+0003	 9.38512244556212E-0002	
 2.75250000000000E+0003	 9.39586461987025E-0002	
 2.75450000000000E+0003	 9.40855679417839E-0002	
 2.75650000000000E+0003	 9.42324896848653E-0002	
 2.75850000000000E+0003	 9.43744114279466E-0002	
 2.76050000000000E+0003	 9.45118331710280E-0002	
 2.76250000000000E+0003	 9.46687549141094E-0002	
 2.76450000000000E+0003	 9.48351766571908E-0002	
 2.76650000000000E+0003	 9.49990984002721E-0002	
 2.76850000000000E+0003	 9.51530201433535E-0002	
 2.77050000000000E+0003	 9.53119418864349E-0002	
 2.77250000000000E+0003	 9.55043636295162E-0002	
 2.77450000000000E+0003	 9.57252853725976E-0002	
 2.77650000000000E+0003	 9.58937071156790E-0002	
 2.77850000000000E+0003	 9.60241288587604E-0002	
 2.78050000000000E+0003	 9.61890506018417E-0002	
 2.78250000000000E+0003	 9.63794723449231E-0002	
 2.78450000000000E+0003	 9.65743940880045E-0002	
 2.78650000000000E+0003	 9.68008158310858E-0002	
 2.78850000000000E+0003	 9.70652375741672E-0002	
 2.79050000000000E+0003	 9.73001593172486E-0002	
 2.79250000000000E+0003	 9.74905810603300E-0002	
 2.79450000000000E+0003	 9.77015028034113E-0002	
 2.79650000000000E+0003	 9.79589245464927E-0002	
 2.79850000000000E+0003	 9.82273462895741E-0002	
 2.80050000000000E+0003	 9.84527680326554E-0002	
 2.80250000000000E+0003	 9.86756897757368E-0002	
 2.80450000000000E+0003	 9.89331115188182E-0002	
 2.80650000000000E+0003	 9.92090332618996E-0002	
 2.80850000000000E+0003	 9.95114550049809E-0002	
 2.81050000000000E+0003	 9.98293767480623E-0002	
 2.81250000000000E+0003	 1.00115798491144E-0001	
 2.81450000000000E+0003	 1.00397220234225E-0001	
 2.81650000000000E+0003	 1.00705641977306E-0001	
 2.81850000000000E+0003	 1.01043563720388E-0001	
 2.82050000000000E+0003	 1.01408985463469E-0001	
 2.82250000000000E+0003	 1.01796407206551E-0001	
 2.82450000000000E+0003	 1.02200328949632E-0001	
 2.82650000000000E+0003	 1.02620750692713E-0001	
 2.82850000000000E+0003	 1.03078672435795E-0001	
 2.83050000000000E+0003	 1.03590594178876E-0001	
 2.83250000000000E+0003	 1.04174015921957E-0001	
 2.83450000000000E+0003	 1.04845937665039E-0001	
 2.83650000000000E+0003	 1.05644859408120E-0001	
 2.83850000000000E+0003	 1.06621281151201E-0001	
 2.84050000000000E+0003	 1.07722202894283E-0001	
 2.84250000000000E+0003	 1.09074124637364E-0001	
 2.84450000000000E+0003	 1.10921046380446E-0001	
 2.84650000000000E+0003	 1.13283468123527E-0001	
 2.84850000000000E+0003	 1.15914389866608E-0001	
 2.85050000000000E+0003	 1.18337311609690E-0001	
 2.85250000000000E+0003	 1.20123233352771E-0001	
 2.85450000000000E+0003	 1.20973155095852E-0001	
 2.85650000000000E+0003	 1.20884576838934E-0001	
 2.85850000000000E+0003	 1.20184498582015E-0001	
 2.86050000000000E+0003	 1.19258920325097E-0001	
 2.86250000000000E+0003	 1.18407342068178E-0001	
 2.86450000000000E+0003	 1.17888763811259E-0001	
 2.86650000000000E+0003	 1.17770185554341E-0001	
 2.86850000000000E+0003	 1.17960107297422E-0001	
 2.87050000000000E+0003	 1.18336029040503E-0001	
 2.87250000000000E+0003	 1.18729950783585E-0001	
 2.87450000000000E+0003	 1.18858872526666E-0001	
 2.87650000000000E+0003	 1.18703294269748E-0001	
 2.87850000000000E+0003	 1.18557716012829E-0001	
 2.88050000000000E+0003	 1.18534637755910E-0001	
 2.88250000000000E+0003	 1.18627059498992E-0001	
 2.88450000000000E+0003	 1.18848481242073E-0001	
 2.88650000000000E+0003	 1.19213402985154E-0001	
 2.88850000000000E+0003	 1.19703824728236E-0001	
 2.89050000000000E+0003	 1.20301246471317E-0001	
 2.89250000000000E+0003	 1.20992668214399E-0001	
 2.89450000000000E+0003	 1.21777089957480E-0001	
 2.89650000000000E+0003	 1.22590511700561E-0001	
 2.89850000000000E+0003	 1.23359433443643E-0001	
 2.90050000000000E+0003	 1.24138355186724E-0001	
 2.90250000000000E+0003	 1.24990276929805E-0001	
 2.90450000000000E+0003	 1.25921198672887E-0001	
 2.90650000000000E+0003	 1.26946620415968E-0001	
 2.90850000000000E+0003	 1.28154542159049E-0001	
 2.91050000000000E+0003	 1.29664963902131E-0001	
 2.91250000000000E+0003	 1.31552885645212E-0001	
 2.91450000000000E+0003	 1.33723807388294E-0001	
 2.91650000000000E+0003	 1.36001729131375E-0001	
 2.91850000000000E+0003	 1.38256650874456E-0001	
 2.92050000000000E+0003	 1.40254072617538E-0001	
 2.92250000000000E+0003	 1.41763994360619E-0001	
 2.92450000000000E+0003	 1.42602916103700E-0001	
 2.92650000000000E+0003	 1.42703337846782E-0001	
 2.92850000000000E+0003	 1.42182759589863E-0001	
 2.93050000000000E+0003	 1.41115181332945E-0001	
 2.93250000000000E+0003	 1.39585103076026E-0001	
 2.93450000000000E+0003	 1.37876024819107E-0001	
 2.93650000000000E+0003	 1.36137946562189E-0001	
 2.93850000000000E+0003	 1.34426868305270E-0001	
 2.94050000000000E+0003	 1.32840790048351E-0001	
 2.94250000000000E+0003	 1.31523711791433E-0001	
 2.94450000000000E+0003	 1.30484633534514E-0001	
 2.94650000000000E+0003	 1.29642555277596E-0001	
 2.94850000000000E+0003	 1.29023477020677E-0001	
 2.95050000000000E+0003	 1.28775898763758E-0001	
 2.95250000000000E+0003	 1.28873820506840E-0001	
 2.95450000000000E+0003	 1.28990742249921E-0001	
 2.95650000000000E+0003	 1.29025663993002E-0001	
 2.95850000000000E+0003	 1.28981085736084E-0001	
 2.96050000000000E+0003	 1.28748007479165E-0001	
 2.96250000000000E+0003	 1.28270929222247E-0001	
 2.96450000000000E+0003	 1.27527850965328E-0001	
 2.96650000000000E+0003	 1.26570772708409E-0001	
 2.96850000000000E+0003	 1.25475194451491E-0001	
 2.97050000000000E+0003	 1.24336116194572E-0001	
 2.97250000000000E+0003	 1.23272037937653E-0001	
 2.97450000000000E+0003	 1.22309459680735E-0001	
 2.97650000000000E+0003	 1.21398881423816E-0001	
 2.97850000000000E+0003	 1.20607803166897E-0001	
 2.98050000000000E+0003	 1.19919224909979E-0001	
 2.98250000000000E+0003	 1.19213146653060E-0001	
 2.98450000000000E+0003	 1.18520068396142E-0001	
 2.98650000000000E+0003	 1.17934990139223E-0001	
 2.98850000000000E+0003	 1.17449411882304E-0001	
 2.99050000000000E+0003	 1.17075333625386E-0001	
 2.99250000000000E+0003	 1.16779755368467E-0001	
 2.99450000000000E+0003	 1.16466177111548E-0001	
 2.99650000000000E+0003	 1.16231598854630E-0001	
 2.99850000000000E+0003	 1.16092520597711E-0001	
 3.00050000000000E+0003	 1.15955942340793E-0001	
 3.00250000000000E+0003	 1.15895364083874E-0001	
 3.00450000000000E+0003	 1.15892785826955E-0001	
 3.00650000000000E+0003	 1.15888207570037E-0001	
 3.00850000000000E+0003	 1.15929629313118E-0001	
 3.01050000000000E+0003	 1.16081551056199E-0001	
 3.01250000000000E+0003	 1.16247472799281E-0001	
 3.01450000000000E+0003	 1.16315894542362E-0001	
 3.01650000000000E+0003	 1.16296816285444E-0001	
 3.01850000000000E+0003	 1.16289738028525E-0001	
 3.02050000000000E+0003	 1.16343159771606E-0001	
 3.02250000000000E+0003	 1.16483581514688E-0001	
 3.02450000000000E+0003	 1.16720503257769E-0001	
 3.02650000000000E+0003	 1.16937425000850E-0001	
 3.02850000000000E+0003	 1.17154346743932E-0001	
 3.03050000000000E+0003	 1.17447268487013E-0001	
 3.03250000000000E+0003	 1.17780690230095E-0001	
 3.03450000000000E+0003	 1.18105111973176E-0001	
 3.03650000000000E+0003	 1.18322533716257E-0001	
 3.03850000000000E+0003	 1.18556955459339E-0001	
 3.04050000000000E+0003	 1.18948877202420E-0001	
 3.04250000000000E+0003	 1.19359298945501E-0001	
 3.04450000000000E+0003	 1.19655220688583E-0001	
 3.04650000000000E+0003	 1.19876642431664E-0001	
 3.04850000000000E+0003	 1.20130064174745E-0001	
 3.05050000000000E+0003	 1.20484985917827E-0001	
 3.05250000000000E+0003	 1.20813407660908E-0001	
 3.05450000000000E+0003	 1.21111829403990E-0001	
 3.05650000000000E+0003	 1.21423751147071E-0001	
 3.05850000000000E+0003	 1.21683672890152E-0001	
 3.06050000000000E+0003	 1.21923594633234E-0001	
 3.06250000000000E+0003	 1.22211016376315E-0001	
 3.06450000000000E+0003	 1.22539438119396E-0001	
 3.06650000000000E+0003	 1.22891359862478E-0001	
 3.06850000000000E+0003	 1.23140281605559E-0001	
 3.07050000000000E+0003	 1.23251703348641E-0001	
 3.07250000000000E+0003	 1.23386125091722E-0001	
 3.07450000000000E+0003	 1.23595546834803E-0001	
 3.07650000000000E+0003	 1.23913968577885E-0001	
 3.07850000000000E+0003	 1.24261890320966E-0001	
 3.08050000000000E+0003	 1.24473812064047E-0001	
 3.08250000000000E+0003	 1.24603233807129E-0001	
 3.08450000000000E+0003	 1.24753655550210E-0001	
 3.08650000000000E+0003	 1.24861577293292E-0001	
 3.08850000000000E+0003	 1.24980999036373E-0001	
 3.09050000000000E+0003	 1.25150420779454E-0001	
 3.09250000000000E+0003	 1.25236342522536E-0001	
 3.09450000000000E+0003	 1.25296264265617E-0001	
 3.09650000000000E+0003	 1.25436686008698E-0001	
 3.09850000000000E+0003	 1.25664107751780E-0001	
 3.10050000000000E+0003	 1.25887529494861E-0001	
 3.10250000000000E+0003	 1.26022951237943E-0001	
 3.10450000000000E+0003	 1.26161372981024E-0001	
 3.10650000000000E+0003	 1.26413294724105E-0001	
 3.10850000000000E+0003	 1.26726716467187E-0001	
 3.11050000000000E+0003	 1.26931638210268E-0001	
 3.11250000000000E+0003	 1.27114559953349E-0001	
 3.11450000000000E+0003	 1.27480981696431E-0001	
 3.11650000000000E+0003	 1.27896903439512E-0001	
 3.11850000000000E+0003	 1.28214325182593E-0001	
 3.12050000000000E+0003	 1.28434746925675E-0001	
 3.12250000000000E+0003	 1.28521168668756E-0001	
 3.12450000000000E+0003	 1.28618090411838E-0001	
 3.12650000000000E+0003	 1.28868012154919E-0001	
 3.12850000000000E+0003	 1.29226933898000E-0001	
 3.13050000000000E+0003	 1.29590355641082E-0001	
 3.13250000000000E+0003	 1.29885277384163E-0001	
 3.13450000000000E+0003	 1.30199699127244E-0001	
 3.13650000000000E+0003	 1.30617120870326E-0001	
 3.13850000000000E+0003	 1.31123542613407E-0001	
 3.14050000000000E+0003	 1.31528464356489E-0001	
 3.14250000000000E+0003	 1.31789386099570E-0001	
 3.14450000000000E+0003	 1.32107807842651E-0001	
 3.14650000000000E+0003	 1.32515729585733E-0001	
 3.14850000000000E+0003	 1.32975651328814E-0001	
 3.15050000000000E+0003	 1.33554073071895E-0001	
 3.15250000000000E+0003	 1.34151994814977E-0001	
 3.15450000000000E+0003	 1.34528916558058E-0001	
 3.15650000000000E+0003	 1.34823838301140E-0001	
 3.15850000000000E+0003	 1.35215260044221E-0001	
 3.16050000000000E+0003	 1.35674181787302E-0001	
 3.16250000000000E+0003	 1.36156603530384E-0001	
 3.16450000000000E+0003	 1.36655525273465E-0001	
 3.16650000000000E+0003	 1.37163447016546E-0001	
 3.16850000000000E+0003	 1.37674868759628E-0001	
 3.17050000000000E+0003	 1.38191290502709E-0001	
 3.17250000000000E+0003	 1.38709212245791E-0001	
 3.17450000000000E+0003	 1.39230133988872E-0001	
 3.17650000000000E+0003	 1.39762055731953E-0001	
 3.17850000000000E+0003	 1.40301477475035E-0001	
 3.18050000000000E+0003	 1.40850899218116E-0001	
 3.18250000000000E+0003	 1.41404820961197E-0001	
 3.18450000000000E+0003	 1.41958242704279E-0001	
 3.18650000000000E+0003	 1.42511664447360E-0001	
 3.18850000000000E+0003	 1.43074586190441E-0001	
 3.19050000000000E+0003	 1.43627507933523E-0001	
 3.19250000000000E+0003	 1.44161429676604E-0001	
 3.19450000000000E+0003	 1.44699851419686E-0001	
 3.19650000000000E+0003	 1.45232773162767E-0001	
 3.19850000000000E+0003	 1.45769194905848E-0001	
 3.20050000000000E+0003	 1.46314116648930E-0001	
 3.20250000000000E+0003	 1.46850538392011E-0001	
 3.20450000000000E+0003	 1.47374460135092E-0001	
 3.20650000000000E+0003	 1.47896381878174E-0001	
 3.20850000000000E+0003	 1.48389803621255E-0001	
 3.21050000000000E+0003	 1.48865225364337E-0001	
 3.21250000000000E+0003	 1.49353647107418E-0001	
 3.21450000000000E+0003	 1.49851068850499E-0001	
 3.21650000000000E+0003	 1.50346990593581E-0001	
 3.21850000000000E+0003	 1.50847912336662E-0001	
 3.22050000000000E+0003	 1.51326334079743E-0001	
 3.22250000000000E+0003	 1.51795755822825E-0001	
 3.22450000000000E+0003	 1.52285677565906E-0001	
 3.22650000000000E+0003	 1.52789099308988E-0001	
 3.22850000000000E+0003	 1.53305521052069E-0001	
 3.23050000000000E+0003	 1.53899442795150E-0001	
 3.23250000000000E+0003	 1.54602864538232E-0001	
 3.23450000000000E+0003	 1.55197786281313E-0001	
 3.23650000000000E+0003	 1.55604208024394E-0001	
 3.23850000000000E+0003	 1.56059629767476E-0001	
 3.24050000000000E+0003	 1.56608551510557E-0001	
 3.24250000000000E+0003	 1.57193973253639E-0001	
 3.24450000000000E+0003	 1.57852394996720E-0001	
 3.24650000000000E+0003	 1.58579816739801E-0001	
 3.24850000000000E+0003	 1.59195738482883E-0001	
 3.25050000000000E+0003	 1.59712160225964E-0001	
 3.25250000000000E+0003	 1.60294581969045E-0001	
 3.25450000000000E+0003	 1.60970503712127E-0001	
 3.25650000000000E+0003	 1.61628925455208E-0001	
 3.25850000000000E+0003	 1.62199347198289E-0001	
 3.26050000000000E+0003	 1.62776268941371E-0001	
 3.26250000000000E+0003	 1.63397690684452E-0001	
 3.26450000000000E+0003	 1.64019112427534E-0001	
 3.26650000000000E+0003	 1.64643534170615E-0001	
 3.26850000000000E+0003	 1.65351455913696E-0001	
 3.27050000000000E+0003	 1.66115877656778E-0001	
 3.27250000000000E+0003	 1.66678299399859E-0001	
 3.27450000000000E+0003	 1.67079221142940E-0001	
 3.27650000000000E+0003	 1.67497142886022E-0001	
 3.27850000000000E+0003	 1.67931064629103E-0001	
 3.28050000000000E+0003	 1.68383486372185E-0001	
 3.28250000000000E+0003	 1.68845908115266E-0001	
 3.28450000000000E+0003	 1.69310829858347E-0001	
 3.28650000000000E+0003	 1.69757251601429E-0001	
 3.28850000000000E+0003	 1.70205673344510E-0001	
 3.29050000000000E+0003	 1.70755095087591E-0001	
 3.29250000000000E+0003	 1.71320016830673E-0001	
 3.29450000000000E+0003	 1.71757438573754E-0001	
 3.29650000000000E+0003	 1.72109360316836E-0001	
 3.29850000000000E+0003	 1.72402282059917E-0001	
 3.30050000000000E+0003	 1.72728703802998E-0001	
 3.30250000000000E+0003	 1.73221625546080E-0001	
 3.30450000000000E+0003	 1.73887047289161E-0001	
 3.30650000000000E+0003	 1.74475469032242E-0001	
 3.30850000000000E+0003	 1.74811390775324E-0001	
 3.31050000000000E+0003	 1.75024312518405E-0001	
 3.31250000000000E+0003	 1.75298734261487E-0001	
 3.31450000000000E+0003	 1.75695156004568E-0001	
 3.31650000000000E+0003	 1.76149577747649E-0001	
 3.31850000000000E+0003	 1.76626999490731E-0001	
 3.32050000000000E+0003	 1.77124421233812E-0001	
 3.32250000000000E+0003	 1.77670842976893E-0001	
 3.32450000000000E+0003	 1.78310264719975E-0001	
 3.32650000000000E+0003	 1.78919186463056E-0001	
 3.32850000000000E+0003	 1.79400608206137E-0001	
 3.33050000000000E+0003	 1.79897529949219E-0001	
 3.33250000000000E+0003	 1.80465451692300E-0001	
 3.33450000000000E+0003	 1.81100873435382E-0001	
 3.33650000000000E+0003	 1.81846295178463E-0001	
 3.33850000000000E+0003	 1.82608716921544E-0001	
 3.34050000000000E+0003	 1.83219638664626E-0001	
 3.34250000000000E+0003	 1.83791560407707E-0001	
 3.34450000000000E+0003	 1.84389982150788E-0001	
 3.34650000000000E+0003	 1.85001903893870E-0001	
 3.34850000000000E+0003	 1.85779325636951E-0001	
 3.35050000000000E+0003	 1.86663247380033E-0001	
 3.35250000000000E+0003	 1.87347669123114E-0001	
 3.35450000000000E+0003	 1.87903090866195E-0001	
 3.35650000000000E+0003	 1.88577012609277E-0001	
 3.35850000000000E+0003	 1.89406934352358E-0001	
 3.36050000000000E+0003	 1.90286856095439E-0001	
 3.36250000000000E+0003	 1.91093777838521E-0001	
 3.36450000000000E+0003	 1.91965199581602E-0001	
 3.36650000000000E+0003	 1.93022621324684E-0001	
 3.36850000000000E+0003	 1.94074043067765E-0001	
 3.37050000000000E+0003	 1.94853964810846E-0001	
 3.37250000000000E+0003	 1.95400886553928E-0001	
 3.37450000000000E+0003	 1.96024308297009E-0001	
 3.37650000000000E+0003	 1.96781230040090E-0001	
 3.37850000000000E+0003	 1.97512151783172E-0001	
 3.38050000000000E+0003	 1.98166073526253E-0001	
 3.38250000000000E+0003	 1.98745495269335E-0001	
 3.38450000000000E+0003	 1.99293417012416E-0001	
 3.38650000000000E+0003	 1.99854338755497E-0001	
 3.38850000000000E+0003	 2.00488760498579E-0001	
 3.39050000000000E+0003	 2.01250682241660E-0001	
 3.39250000000000E+0003	 2.01856603984741E-0001	
 3.39450000000000E+0003	 2.02164025727823E-0001	
 3.39650000000000E+0003	 2.02494447470904E-0001	
 3.39850000000000E+0003	 2.03108369213985E-0001	
 3.40050000000000E+0003	 2.03788790957067E-0001	
 3.40250000000000E+0003	 2.04087212700148E-0001	
 3.40450000000000E+0003	 2.04148634443230E-0001	
 3.40650000000000E+0003	 2.04396056186311E-0001	
 3.40850000000000E+0003	 2.04824477929392E-0001	
 3.41050000000000E+0003	 2.05228399672474E-0001	
 3.41250000000000E+0003	 2.05557321415555E-0001	
 3.41450000000000E+0003	 2.05766743158636E-0001	
 3.41650000000000E+0003	 2.05888664901718E-0001	
 3.41850000000000E+0003	 2.06077086644799E-0001	
 3.42050000000000E+0003	 2.06285508387881E-0001	
 3.42250000000000E+0003	 2.06420430130962E-0001	
 3.42450000000000E+0003	 2.06536351874043E-0001	
 3.42650000000000E+0003	 2.06702773617125E-0001	
 3.42850000000000E+0003	 2.06893195360206E-0001	
 3.43050000000000E+0003	 2.06967617103287E-0001	
 3.43250000000000E+0003	 2.06938038846369E-0001	
 3.43450000000000E+0003	 2.06992460589450E-0001	
 3.43650000000000E+0003	 2.06938382332532E-0001	
 3.43850000000000E+0003	 2.06565304075613E-0001	
 3.44050000000000E+0003	 2.06085225818694E-0001	
 3.44250000000000E+0003	 2.05692647561776E-0001	
 3.44450000000000E+0003	 2.05373069304857E-0001	
 3.44650000000000E+0003	 2.05051991047938E-0001	
 3.44850000000000E+0003	 2.04669912791020E-0001	
 3.45050000000000E+0003	 2.04233834534101E-0001	
 3.45250000000000E+0003	 2.03775256277182E-0001	
 3.45450000000000E+0003	 2.03298178020264E-0001	
 3.45650000000000E+0003	 2.02817099763345E-0001	
 3.45850000000000E+0003	 2.02388521506427E-0001	
 3.46050000000000E+0003	 2.01919443249508E-0001	
 3.46250000000000E+0003	 2.01306864992589E-0001	
 3.46450000000000E+0003	 2.00774786735671E-0001	
 3.46650000000000E+0003	 2.00431708478752E-0001	
 3.46850000000000E+0003	 1.99999630221833E-0001	
 3.47050000000000E+0003	 1.99220051964915E-0001	
 3.47250000000000E+0003	 1.98294473707996E-0001	
 3.47450000000000E+0003	 1.97518395451078E-0001	
 3.47650000000000E+0003	 1.96889317194159E-0001	
 3.47850000000000E+0003	 1.96372238937240E-0001	
 3.48050000000000E+0003	 1.95749160680322E-0001	
 3.48250000000000E+0003	 1.94918082423403E-0001	
 3.48450000000000E+0003	 1.94186004166484E-0001	
 3.48650000000000E+0003	 1.93572425909566E-0001	
 3.48850000000000E+0003	 1.92864847652647E-0001	
 3.49050000000000E+0003	 1.92114269395729E-0001	
 3.49250000000000E+0003	 1.91419191138810E-0001	
 3.49450000000000E+0003	 1.90752612881891E-0001	
 3.49650000000000E+0003	 1.90075534624973E-0001	
 3.49850000000000E+0003	 1.89342956368054E-0001	
 3.50050000000000E+0003	 1.88611378111135E-0001	
 3.50250000000000E+0003	 1.87895799854217E-0001	
 3.50450000000000E+0003	 1.87012221597298E-0001	
 3.50650000000000E+0003	 1.86084143340380E-0001	
 3.50850000000000E+0003	 1.85238065083461E-0001	
 3.51050000000000E+0003	 1.84462986826542E-0001	
 3.51250000000000E+0003	 1.83794408569624E-0001	
 3.51450000000000E+0003	 1.83058330312705E-0001	
 3.51650000000000E+0003	 1.82174252055786E-0001	
 3.51850000000000E+0003	 1.81280673798868E-0001	
 3.52050000000000E+0003	 1.80489095541949E-0001	
 3.52250000000000E+0003	 1.79787517285030E-0001	
 3.52450000000000E+0003	 1.78977439028112E-0001	
 3.52650000000000E+0003	 1.78009860771193E-0001	
 3.52850000000000E+0003	 1.77091782514275E-0001	
 3.53050000000000E+0003	 1.76282704257356E-0001	
 3.53250000000000E+0003	 1.75519626000437E-0001	
 3.53450000000000E+0003	 1.74835547743519E-0001	
 3.53650000000000E+0003	 1.74113469486600E-0001	
 3.53850000000000E+0003	 1.73237391229681E-0001	
 3.54050000000000E+0003	 1.72402812972763E-0001	
 3.54250000000000E+0003	 1.71727234715844E-0001	
 3.54450000000000E+0003	 1.71019656458926E-0001	
 3.54650000000000E+0003	 1.70059078202007E-0001	
 3.54850000000000E+0003	 1.69009499945088E-0001	
 3.55050000000000E+0003	 1.68137921688170E-0001	
 3.55250000000000E+0003	 1.67276343431251E-0001	
 3.55450000000000E+0003	 1.66365265174332E-0001	
 3.55650000000000E+0003	 1.65504686917414E-0001	
 3.55850000000000E+0003	 1.64682108660495E-0001	
 3.56050000000000E+0003	 1.63839030403577E-0001	
 3.56250000000000E+0003	 1.62894952146658E-0001	
 3.56450000000000E+0003	 1.61889373889739E-0001	
 3.56650000000000E+0003	 1.60849795632821E-0001	
 3.56850000000000E+0003	 1.59918217375902E-0001	
 3.57050000000000E+0003	 1.59116139118983E-0001	
 3.57250000000000E+0003	 1.58186060862065E-0001	
 3.57450000000000E+0003	 1.57157482605146E-0001	
 3.57650000000000E+0003	 1.56140404348228E-0001	
 3.57850000000000E+0003	 1.55149326091309E-0001	
 3.58050000000000E+0003	 1.54180247834390E-0001	
 3.58250000000000E+0003	 1.53226169577472E-0001	
 3.58450000000000E+0003	 1.52305591320553E-0001	
 3.58650000000000E+0003	 1.51172513063634E-0001	
 3.58850000000000E+0003	 1.49754434806716E-0001	
 3.59050000000000E+0003	 1.48596856549797E-0001	
 3.59250000000000E+0003	 1.47587278292878E-0001	
 3.59450000000000E+0003	 1.46408700035960E-0001	
 3.59650000000000E+0003	 1.45235621779041E-0001	
 3.59850000000000E+0003	 1.44231543522123E-0001	
 3.60050000000000E+0003	 1.43167965265204E-0001	
 3.60250000000000E+0003	 1.42007887008285E-0001	
 3.60450000000000E+0003	 1.40892308751367E-0001	
 3.60650000000000E+0003	 1.39749230494448E-0001	
 3.60850000000000E+0003	 1.38470652237529E-0001	
 3.61050000000000E+0003	 1.37300073980611E-0001	
 3.61250000000000E+0003	 1.36167495723692E-0001	
 3.61450000000000E+0003	 1.35003417466774E-0001	
 3.61650000000000E+0003	 1.33995339209855E-0001	
 3.61850000000000E+0003	 1.32965760952936E-0001	
 3.62050000000000E+0003	 1.31917682696018E-0001	
 3.62250000000000E+0003	 1.30914604439099E-0001	
 3.62450000000000E+0003	 1.29853526182180E-0001	
 3.62650000000000E+0003	 1.28961447925262E-0001	
 3.62850000000000E+0003	 1.27916369668343E-0001	
 3.63050000000000E+0003	 1.26821791411425E-0001	
 3.63250000000000E+0003	 1.25991713154506E-0001	
 3.63450000000000E+0003	 1.25143134897587E-0001	
 3.63650000000000E+0003	 1.24293056640669E-0001	
 3.63850000000000E+0003	 1.23437478383750E-0001	
 3.64050000000000E+0003	 1.22603900126831E-0001	
 3.64250000000000E+0003	 1.21725821869913E-0001	
 3.64450000000000E+0003	 1.20915743612994E-0001	
 3.64650000000000E+0003	 1.20146165356076E-0001	
 3.64850000000000E+0003	 1.19441087099157E-0001	
 3.65050000000000E+0003	 1.18780008842238E-0001	
 3.65250000000000E+0003	 1.18101430585320E-0001	
 3.65450000000000E+0003	 1.17470352328401E-0001	
 3.65650000000000E+0003	 1.16850274071482E-0001	
 3.65850000000000E+0003	 1.16368195814564E-0001	
 3.66050000000000E+0003	 1.15830617557645E-0001	
 3.66250000000000E+0003	 1.15135539300726E-0001	
 3.66450000000000E+0003	 1.14420961043808E-0001	
 3.66650000000000E+0003	 1.13886382786889E-0001	
 3.66850000000000E+0003	 1.13429304529971E-0001	
 3.67050000000000E+0003	 1.12783726273052E-0001	
 3.67250000000000E+0003	 1.12475148016133E-0001	
 3.67450000000000E+0003	 1.12214569759215E-0001	
 3.67650000000000E+0003	 1.11816991502296E-0001	
 3.67850000000000E+0003	 1.11503413245377E-0001	
 3.68050000000000E+0003	 1.11086334988459E-0001	
 3.68250000000000E+0003	 1.10646756731540E-0001	
 3.68450000000000E+0003	 1.10208178474622E-0001	
 3.68650000000000E+0003	 1.09936100217703E-0001	
 3.68850000000000E+0003	 1.09666021960784E-0001	
 3.69050000000000E+0003	 1.09173943703866E-0001	
 3.69250000000000E+0003	 1.08557365446947E-0001	
 3.69450000000000E+0003	 1.08111287190028E-0001	
 3.69650000000000E+0003	 1.07700208933110E-0001	
 3.69850000000000E+0003	 1.07347130676191E-0001	
 3.70050000000000E+0003	 1.07053552419273E-0001	
 3.70250000000000E+0003	 1.06757974162354E-0001	
 3.70450000000000E+0003	 1.06479895905435E-0001	
 3.70650000000000E+0003	 1.06208317648517E-0001	
 3.70850000000000E+0003	 1.05997239391598E-0001	
 3.71050000000000E+0003	 1.05812661134679E-0001	
 3.71250000000000E+0003	 1.05619082877761E-0001	
 3.71450000000000E+0003	 1.05506004620842E-0001	
 3.71650000000000E+0003	 1.05360426363924E-0001	
 3.71850000000000E+0003	 1.05170348107005E-0001	
 3.72050000000000E+0003	 1.05001269850086E-0001	
 3.72250000000000E+0003	 1.04825191593168E-0001	
 3.72450000000000E+0003	 1.04709613336249E-0001	
 3.72650000000000E+0003	 1.04536035079330E-0001	
 3.72850000000000E+0003	 1.04410956822412E-0001	
 3.73050000000000E+0003	 1.04294378565493E-0001	
 3.73250000000000E+0003	 1.04196300308574E-0001	
 3.73450000000000E+0003	 1.04177722051656E-0001	
 3.73650000000000E+0003	 1.04151643794737E-0001	
 3.73850000000000E+0003	 1.04102565537819E-0001	
 3.74050000000000E+0003	 1.03894987280900E-0001	
 3.74250000000000E+0003	 1.03841909023981E-0001	
 3.74450000000000E+0003	 1.03629830767063E-0001	
 3.74650000000000E+0003	 1.03551252510144E-0001	
 3.74850000000000E+0003	 1.03459174253225E-0001	
 3.75050000000000E+0003	 1.03384595996307E-0001	
 3.75250000000000E+0003	 1.03354517739388E-0001	
 3.75450000000000E+0003	 1.03350439482470E-0001	
 3.75650000000000E+0003	 1.03298361225551E-0001	
 3.75850000000000E+0003	 1.03254282968632E-0001	
 3.76050000000000E+0003	 1.03189704711714E-0001	
 3.76250000000000E+0003	 1.03179126454795E-0001	
 3.76450000000000E+0003	 1.03091548197876E-0001	
 3.76650000000000E+0003	 1.03029969940958E-0001	
 3.76850000000000E+0003	 1.03054391684039E-0001	
 3.77050000000000E+0003	 1.03018313427121E-0001	
 3.77250000000000E+0003	 1.02991235170202E-0001	
 3.77450000000000E+0003	 1.02888156913283E-0001	
 3.77650000000000E+0003	 1.02883078656365E-0001	
 3.77850000000000E+0003	 1.02925000399446E-0001	
 3.78050000000000E+0003	 1.02873422142527E-0001	
 3.78250000000000E+0003	 1.02776343885609E-0001	
 3.78450000000000E+0003	 1.02676265628690E-0001	
 3.78650000000000E+0003	 1.02654687371772E-0001	
 3.78850000000000E+0003	 1.02671609114853E-0001	
 3.79050000000000E+0003	 1.02648530857934E-0001	
 3.79250000000000E+0003	 1.02574452601016E-0001	
 3.79450000000000E+0003	 1.02524874344097E-0001	
 3.79650000000000E+0003	 1.02351796087178E-0001	
 3.79850000000000E+0003	 1.02327217830260E-0001	
 3.80050000000000E+0003	 1.02312139573341E-0001	
 3.80250000000000E+0003	 1.02238061316422E-0001	
 3.80450000000000E+0003	 1.02363483059504E-0001	
 3.80650000000000E+0003	 1.02348404802585E-0001	
 3.80850000000000E+0003	 1.02364826545667E-0001	
 3.81050000000000E+0003	 1.02280748288748E-0001	
 3.81250000000000E+0003	 1.02211670031829E-0001	
 3.81450000000000E+0003	 1.02221091774911E-0001	
 3.81650000000000E+0003	 1.02092013517992E-0001	
 3.81850000000000E+0003	 1.02226435261073E-0001	
 3.82050000000000E+0003	 1.02237857004155E-0001	
 3.82250000000000E+0003	 1.02190778747236E-0001	
 3.82450000000000E+0003	 1.02188700490318E-0001	
 3.82650000000000E+0003	 1.02081622233399E-0001	
 3.82850000000000E+0003	 1.02085043976480E-0001	
 3.83050000000000E+0003	 1.02113465719562E-0001	
 3.83250000000000E+0003	 1.02106887462643E-0001	
 3.83450000000000E+0003	 1.02186309205724E-0001	
 3.83650000000000E+0003	 1.02223730948806E-0001	
 3.83850000000000E+0003	 1.02090652691887E-0001	
 3.84050000000000E+0003	 1.02020574434969E-0001	
 3.84250000000000E+0003	 1.02065496178050E-0001	
 3.84450000000000E+0003	 1.02131417921131E-0001	
 3.84650000000000E+0003	 1.02122339664213E-0001	
 3.84850000000000E+0003	 1.01949261407294E-0001	
 3.85050000000000E+0003	 1.01900683150375E-0001	
 3.85250000000000E+0003	 1.01986604893457E-0001	
 3.85450000000000E+0003	 1.02124026636538E-0001	
 3.85650000000000E+0003	 1.02174448379620E-0001	
 3.85850000000000E+0003	 1.02050870122701E-0001	
 3.86050000000000E+0003	 1.01975791865782E-0001	
 3.86250000000000E+0003	 1.02015213608864E-0001	
 3.86450000000000E+0003	 1.01959135351945E-0001	
 3.86650000000000E+0003	 1.02013557095026E-0001	
 3.86850000000000E+0003	 1.02060978838108E-0001	
 3.87050000000000E+0003	 1.01987400581189E-0001	
 3.87250000000000E+0003	 1.02098822324270E-0001	
 3.87450000000000E+0003	 1.02053244067352E-0001	
 3.87650000000000E+0003	 1.02076665810433E-0001	
 3.87850000000000E+0003	 1.02152587553515E-0001	
 3.88050000000000E+0003	 1.02060009296596E-0001	
 3.88250000000000E+0003	 1.02125431039677E-0001	
 3.88450000000000E+0003	 1.02263852782759E-0001	
 3.88650000000000E+0003	 1.02227774525840E-0001	
 3.88850000000000E+0003	 1.02261696268921E-0001	
 3.89050000000000E+0003	 1.02270618012003E-0001	
 3.89250000000000E+0003	 1.02262539755084E-0001	
 3.89450000000000E+0003	 1.02214961498166E-0001	
 3.89650000000000E+0003	 1.02200383241247E-0001	
 3.89850000000000E+0003	 1.02183804984328E-0001	
 3.90050000000000E+0003	 1.02170226727410E-0001	
 3.90250000000000E+0003	 1.02220648470491E-0001	
 3.90450000000000E+0003	 1.02269570213572E-0001	
 3.90650000000000E+0003	 1.02345491956654E-0001	
 3.90850000000000E+0003	 1.02400413699735E-0001	
 3.91050000000000E+0003	 1.02414835442817E-0001	
 3.91250000000000E+0003	 1.02400257185898E-0001	
 3.91450000000000E+0003	 1.02414678928979E-0001	
 3.91650000000000E+0003	 1.02425600672061E-0001	
 3.91850000000000E+0003	 1.02435022415142E-0001	
 3.92050000000000E+0003	 1.02427444158223E-0001	
 3.92250000000000E+0003	 1.02453365901305E-0001	
 3.92450000000000E+0003	 1.02453787644386E-0001	
 3.92650000000000E+0003	 1.02467709387468E-0001	
 3.92850000000000E+0003	 1.02490631130549E-0001	
 3.93050000000000E+0003	 1.02525552873630E-0001	
 3.93250000000000E+0003	 1.02562974616712E-0001	
 3.93450000000000E+0003	 1.02637396359793E-0001	
 3.93650000000000E+0003	 1.02673818102874E-0001	
 3.93850000000000E+0003	 1.02656739845956E-0001	
 3.94050000000000E+0003	 1.02665161589037E-0001	
 3.94250000000000E+0003	 1.02639583332118E-0001	
 3.94450000000000E+0003	 1.02643505075200E-0001	
 3.94650000000000E+0003	 1.02681426818281E-0001	
 3.94850000000000E+0003	 1.02684348561363E-0001	
 3.95050000000000E+0003	 1.02705270304444E-0001	
 3.95250000000000E+0003	 1.02748692047525E-0001	
 3.95450000000000E+0003	 1.02777613790607E-0001	
 3.95650000000000E+0003	 1.02802535533688E-0001	
 3.95850000000000E+0003	 1.02839457276769E-0001	
 3.96050000000000E+0003	 1.02856879019851E-0001	
 3.96250000000000E+0003	 1.02858300762932E-0001	
 3.96450000000000E+0003	 1.02885722506014E-0001	
 3.96650000000000E+0003	 1.02927644249095E-0001	
 3.96850000000000E+0003	 1.02953565992176E-0001	
 3.97050000000000E+0003	 1.02957487735258E-0001	
 3.97250000000000E+0003	 1.02964409478339E-0001	
 3.97450000000000E+0003	 1.02993331221420E-0001	
 3.97650000000000E+0003	 1.03025752964502E-0001	
 3.97850000000000E+0003	 1.03044174707583E-0001	
 3.98050000000000E+0003	 1.03060096450665E-0001	
 3.98250000000000E+0003	 1.03118518193746E-0001	
 3.98450000000000E+0003	 1.03175939936827E-0001	
 3.98650000000000E+0003	 1.03175861679909E-0001	
 3.98850000000000E+0003	 1.03153283422990E-0001	
 3.99050000000000E+0003	 1.03147205166071E-0001	
 3.99250000000000E+0003	 1.03166126909153E-0001	
 3.99450000000000E+0003	 1.03191548652234E-0001	
 3.99650000000000E+0003	 1.03211970395315E-0001	
 3.99850000000000E+0003	 1.03233294117647E-0001	

>1	DATALINE
