*CPCWIN*

>1	DATALINE
DATALINE
1
Operator:

Description:

Remarks:





15.9.2008
11:35


_x	_y
	
	
UNIT	UNIT
 4.50500000000000E+0002	 1.81282073345360E-0001	
 4.52500000000000E+0002	 1.81717307793935E-0001	
 4.54500000000000E+0002	 1.82617042242510E-0001	
 4.56500000000000E+0002	 1.83164776691085E-0001	
 4.58500000000000E+0002	 1.83854011139660E-0001	
 4.60500000000000E+0002	 1.85287745588235E-0001	
 4.62500000000000E+0002	 1.86614980036810E-0001	
 4.64500000000000E+0002	 1.88068214485385E-0001	
 4.66500000000000E+0002	 1.88749948933960E-0001	
 4.68500000000000E+0002	 1.89323683382535E-0001	
 4.70500000000000E+0002	 1.90511417831110E-0001	
 4.72500000000000E+0002	 1.91536152279685E-0001	
 4.74500000000000E+0002	 1.92526886728260E-0001	
 4.76500000000000E+0002	 1.93355621176835E-0001	
 4.78500000000000E+0002	 1.94498855625410E-0001	
 4.80500000000000E+0002	 1.95464090073985E-0001	
 4.82500000000000E+0002	 1.96512324522560E-0001	
 4.84500000000000E+0002	 1.97291058971135E-0001	
 4.86500000000000E+0002	 1.98219793419710E-0001	
 4.88500000000000E+0002	 1.99301527868285E-0001	
 4.90500000000000E+0002	 2.00256262316860E-0001	
 4.92500000000000E+0002	 2.01153996765435E-0001	
 4.94500000000000E+0002	 2.02501731214010E-0001	
 4.96500000000000E+0002	 2.03713965662585E-0001	
 4.98500000000000E+0002	 2.04882700111160E-0001	
 5.00500000000000E+0002	 2.05493934559735E-0001	
 5.02500000000000E+0002	 2.06219669008310E-0001	
 5.04500000000000E+0002	 2.07619403456885E-0001	
 5.06500000000000E+0002	 2.08925637905460E-0001	
 5.08500000000000E+0002	 2.09750372354035E-0001	
 5.10500000000000E+0002	 2.10513106802610E-0001	
 5.12500000000000E+0002	 2.11565341251184E-0001	
 5.14500000000000E+0002	 2.12382575699759E-0001	
 5.16500000000000E+0002	 2.13222810148334E-0001	
 5.18500000000000E+0002	 2.14316544596909E-0001	
 5.20500000000000E+0002	 2.15724279045484E-0001	
 5.22500000000000E+0002	 2.16847513494059E-0001	
 5.24500000000000E+0002	 2.17465747942634E-0001	
 5.26500000000000E+0002	 2.18001982391209E-0001	
 5.28500000000000E+0002	 2.19138716839784E-0001	
 5.30500000000000E+0002	 2.19906451288359E-0001	
 5.32500000000000E+0002	 2.20304685736934E-0001	
 5.34500000000000E+0002	 2.20252920185509E-0001	
 5.36500000000000E+0002	 2.20044654634084E-0001	
 5.38500000000000E+0002	 2.19631389082659E-0001	
 5.40500000000000E+0002	 2.19123623531234E-0001	
 5.42500000000000E+0002	 2.18476357979809E-0001	
 5.44500000000000E+0002	 2.17723092428384E-0001	
 5.46500000000000E+0002	 2.17020326876959E-0001	
 5.48500000000000E+0002	 2.16345061325534E-0001	
 5.50500000000000E+0002	 2.15905295774109E-0001	
 5.52500000000000E+0002	 2.15507530222684E-0001	
 5.54500000000000E+0002	 2.15171764671259E-0001	
 5.56500000000000E+0002	 2.14761499119834E-0001	
 5.58500000000000E+0002	 2.14580733568409E-0001	
 5.60500000000000E+0002	 2.14336468016984E-0001	
 5.62500000000000E+0002	 2.14204202465559E-0001	
 5.64500000000000E+0002	 2.13908436914134E-0001	
 5.66500000000000E+0002	 2.13758171362709E-0001	
 5.68500000000000E+0002	 2.13474905811284E-0001	
 5.70500000000000E+0002	 2.13257140259859E-0001	
 5.72500000000000E+0002	 2.13014874708434E-0001	
 5.74500000000000E+0002	 2.12700109157009E-0001	
 5.76500000000000E+0002	 2.12241843605583E-0001	
 5.78500000000000E+0002	 2.11787578054158E-0001	
 5.80500000000000E+0002	 2.10928312502733E-0001	
 5.82500000000000E+0002	 2.09914046951308E-0001	
 5.84500000000000E+0002	 2.09013781399883E-0001	
 5.86500000000000E+0002	 2.08319515848458E-0001	
 5.88500000000000E+0002	 2.07928750297033E-0001	
 5.90500000000000E+0002	 2.07556484745608E-0001	
 5.92500000000000E+0002	 2.07504719194183E-0001	
 5.94500000000000E+0002	 2.07629953642758E-0001	
 5.96500000000000E+0002	 2.07777688091333E-0001	
 5.98500000000000E+0002	 2.07719922539908E-0001	
 6.00500000000000E+0002	 2.07727656988483E-0001	
 6.02500000000000E+0002	 2.07859891437058E-0001	
 6.04500000000000E+0002	 2.08040125885633E-0001	
 6.06500000000000E+0002	 2.08155360334208E-0001	
 6.08500000000000E+0002	 2.08325594782783E-0001	
 6.10500000000000E+0002	 2.08435329231358E-0001	
 6.12500000000000E+0002	 2.08495063679933E-0001	
 6.14500000000000E+0002	 2.08309798128508E-0001	
 6.16500000000000E+0002	 2.07714532577083E-0001	
 6.18500000000000E+0002	 2.06967267025658E-0001	
 6.20500000000000E+0002	 2.06196501474233E-0001	
 6.22500000000000E+0002	 2.05408235922808E-0001	
 6.24500000000000E+0002	 2.04501470371383E-0001	
 6.26500000000000E+0002	 2.03765204819958E-0001	
 6.28500000000000E+0002	 2.03080439268533E-0001	
 6.30500000000000E+0002	 2.02516173717108E-0001	
 6.32500000000000E+0002	 2.01830908165683E-0001	
 6.34500000000000E+0002	 2.01278142614258E-0001	
 6.36500000000000E+0002	 2.00832877062833E-0001	
 6.38500000000000E+0002	 2.00574111511408E-0001	
 6.40500000000000E+0002	 2.00166345959983E-0001	
 6.42500000000000E+0002	 1.99773580408557E-0001	
 6.44500000000000E+0002	 1.99265314857132E-0001	
 6.46500000000000E+0002	 1.98689549305707E-0001	
 6.48500000000000E+0002	 1.98089783754282E-0001	
 6.50500000000000E+0002	 1.97485018202857E-0001	
 6.52500000000000E+0002	 1.97004752651432E-0001	
 6.54500000000000E+0002	 1.96512487100007E-0001	
 6.56500000000000E+0002	 1.96167221548582E-0001	
 6.58500000000000E+0002	 1.95792455997157E-0001	
 6.60500000000000E+0002	 1.95480690445732E-0001	
 6.62500000000000E+0002	 1.95156424894307E-0001	
 6.64500000000000E+0002	 1.95649159342882E-0001	
 6.66500000000000E+0002	 1.98031393791457E-0001	
 6.68500000000000E+0002	 1.97960128240032E-0001	
 6.70500000000000E+0002	 1.93850362688607E-0001	
 6.72500000000000E+0002	 1.92426097137182E-0001	
 6.74500000000000E+0002	 1.91636331585757E-0001	
 6.76500000000000E+0002	 1.90912066034332E-0001	
 6.78500000000000E+0002	 1.90175300482907E-0001	
 6.80500000000000E+0002	 1.89445534931482E-0001	
 6.82500000000000E+0002	 1.88731269380057E-0001	
 6.84500000000000E+0002	 1.88063503828632E-0001	
 6.86500000000000E+0002	 1.87430738277207E-0001	
 6.88500000000000E+0002	 1.86813972725782E-0001	
 6.90500000000000E+0002	 1.86389707174357E-0001	
 6.92500000000000E+0002	 1.86094441622932E-0001	
 6.94500000000000E+0002	 1.85943176071507E-0001	
 6.96500000000000E+0002	 1.85873910520082E-0001	
 6.98500000000000E+0002	 1.85886144968657E-0001	
 7.00500000000000E+0002	 1.85715879417232E-0001	
 7.02500000000000E+0002	 1.85334613865807E-0001	
 7.04500000000000E+0002	 1.84680348314382E-0001	
 7.06500000000000E+0002	 1.83874082762956E-0001	
 7.08500000000000E+0002	 1.82868317211531E-0001	
 7.10500000000000E+0002	 1.81713551660106E-0001	
 7.12500000000000E+0002	 1.80480786108681E-0001	
 7.14500000000000E+0002	 1.79163020557256E-0001	
 7.16500000000000E+0002	 1.77945755005831E-0001	
 7.18500000000000E+0002	 1.76718989454406E-0001	
 7.20500000000000E+0002	 1.75651723902981E-0001	
 7.22500000000000E+0002	 1.74702958351556E-0001	
 7.24500000000000E+0002	 1.73655192800131E-0001	
 7.26500000000000E+0002	 1.72320427248706E-0001	
 7.28500000000000E+0002	 1.71022661697281E-0001	
 7.30500000000000E+0002	 1.69700896145856E-0001	
 7.32500000000000E+0002	 1.68530130594431E-0001	
 7.34500000000000E+0002	 1.67445865043006E-0001	
 7.36500000000000E+0002	 1.66512599491581E-0001	
 7.38500000000000E+0002	 1.65616833940156E-0001	
 7.40500000000000E+0002	 1.64787068388731E-0001	
 7.42500000000000E+0002	 1.64027802837306E-0001	
 7.44500000000000E+0002	 1.63349037285881E-0001	
 7.46500000000000E+0002	 1.62736271734456E-0001	
 7.48500000000000E+0002	 1.62086006183031E-0001	
 7.50500000000000E+0002	 1.61407240631606E-0001	
 7.52500000000000E+0002	 1.60634975080181E-0001	
 7.54500000000000E+0002	 1.59819209528756E-0001	
 7.56500000000000E+0002	 1.58881943977331E-0001	
 7.58500000000000E+0002	 1.57923178425906E-0001	
 7.60500000000000E+0002	 1.56983912874481E-0001	
 7.62500000000000E+0002	 1.56193147323056E-0001	
 7.64500000000000E+0002	 1.55450381771631E-0001	
 7.66500000000000E+0002	 1.54625116220206E-0001	
 7.68500000000000E+0002	 1.53632850668781E-0001	
 7.70500000000000E+0002	 1.52598585117355E-0001	
 7.72500000000000E+0002	 1.51775819565930E-0001	
 7.74500000000000E+0002	 1.51277054014505E-0001	
 7.76500000000000E+0002	 1.51287288463080E-0001	
 7.78500000000000E+0002	 1.51526022911655E-0001	
 7.80500000000000E+0002	 1.51316257360230E-0001	
 7.82500000000000E+0002	 1.50284991808805E-0001	
 7.84500000000000E+0002	 1.49090226257380E-0001	
 7.86500000000000E+0002	 1.48098960705955E-0001	
 7.88500000000000E+0002	 1.47331695154530E-0001	
 7.90500000000000E+0002	 1.46716929603105E-0001	
 7.92500000000000E+0002	 1.46512164051680E-0001	
 7.94500000000000E+0002	 1.46728398500255E-0001	
 7.96500000000000E+0002	 1.47161632948830E-0001	
 7.98500000000000E+0002	 1.47546867397405E-0001	
 8.00500000000000E+0002	 1.47934601845980E-0001	
 8.02500000000000E+0002	 1.48140336294555E-0001	
 8.04500000000000E+0002	 1.47901570743130E-0001	
 8.06500000000000E+0002	 1.47033805191705E-0001	
 8.08500000000000E+0002	 1.45719039640280E-0001	
 8.10500000000000E+0002	 1.44295274088855E-0001	
 8.12500000000000E+0002	 1.43005508537430E-0001	
 8.14500000000000E+0002	 1.41919242986005E-0001	
 8.16500000000000E+0002	 1.41031977434580E-0001	
 8.18500000000000E+0002	 1.40340211883155E-0001	
 8.20500000000000E+0002	 1.39809446331730E-0001	
 8.22500000000000E+0002	 1.39447180780305E-0001	
 8.24500000000000E+0002	 1.39193915228880E-0001	
 8.26500000000000E+0002	 1.39023149677455E-0001	
 8.28500000000000E+0002	 1.38963884126030E-0001	
 8.30500000000000E+0002	 1.39031618574605E-0001	
 8.32500000000000E+0002	 1.39217853023180E-0001	
 8.34500000000000E+0002	 1.39477087471755E-0001	
 8.36500000000000E+0002	 1.39776821920329E-0001	
 8.38500000000000E+0002	 1.40038556368904E-0001	
 8.40500000000000E+0002	 1.40298790817479E-0001	
 8.42500000000000E+0002	 1.40503525266054E-0001	
 8.44500000000000E+0002	 1.40759259714629E-0001	
 8.46500000000000E+0002	 1.41087994163204E-0001	
 8.48500000000000E+0002	 1.41580228611779E-0001	
 8.50500000000000E+0002	 1.42163963060354E-0001	
 8.52500000000000E+0002	 1.42866197508929E-0001	
 8.54500000000000E+0002	 1.43637431957504E-0001	
 8.56500000000000E+0002	 1.44438666406079E-0001	
 8.58500000000000E+0002	 1.45100400854654E-0001	
 8.60500000000000E+0002	 1.45566635303229E-0001	
 8.62500000000000E+0002	 1.45713369751804E-0001	
 8.64500000000000E+0002	 1.45581604200379E-0001	
 8.66500000000000E+0002	 1.45195338648954E-0001	
 8.68500000000000E+0002	 1.44807573097529E-0001	
 8.70500000000000E+0002	 1.44689807546104E-0001	
 8.72500000000000E+0002	 1.44600041994679E-0001	
 8.74500000000000E+0002	 1.43878776443254E-0001	
 8.76500000000000E+0002	 1.42819510891829E-0001	
 8.78500000000000E+0002	 1.41864745340404E-0001	
 8.80500000000000E+0002	 1.41036979788979E-0001	
 8.82500000000000E+0002	 1.40292214237554E-0001	
 8.84500000000000E+0002	 1.39581448686129E-0001	
 8.86500000000000E+0002	 1.38933683134704E-0001	
 8.88500000000000E+0002	 1.38389917583279E-0001	
 8.90500000000000E+0002	 1.38022152031854E-0001	
 8.92500000000000E+0002	 1.37837886480429E-0001	
 8.94500000000000E+0002	 1.37815620929004E-0001	
 8.96500000000000E+0002	 1.37887855377579E-0001	
 8.98500000000000E+0002	 1.37984089826154E-0001	
 9.00500000000000E+0002	 1.38157324274728E-0001	
 9.02500000000000E+0002	 1.38448058723303E-0001	
 9.04500000000000E+0002	 1.38971293171878E-0001	
 9.06500000000000E+0002	 1.39721527620453E-0001	
 9.08500000000000E+0002	 1.40686762069028E-0001	
 9.10500000000000E+0002	 1.41667496517603E-0001	
 9.12500000000000E+0002	 1.42556230966178E-0001	
 9.14500000000000E+0002	 1.43144965414753E-0001	
 9.16500000000000E+0002	 1.43417199863328E-0001	
 9.18500000000000E+0002	 1.43334434311903E-0001	
 9.20500000000000E+0002	 1.43076668760478E-0001	
 9.22500000000000E+0002	 1.42803403209053E-0001	
 9.24500000000000E+0002	 1.42785137657628E-0001	
 9.26500000000000E+0002	 1.43066872106203E-0001	
 9.28500000000000E+0002	 1.43693606554778E-0001	
 9.30500000000000E+0002	 1.44534841003353E-0001	
 9.32500000000000E+0002	 1.45548075451928E-0001	
 9.34500000000000E+0002	 1.46594309900503E-0001	
 9.36500000000000E+0002	 1.47609544349078E-0001	
 9.38500000000000E+0002	 1.48549278797653E-0001	
 9.40500000000000E+0002	 1.49369513246228E-0001	
 9.42500000000000E+0002	 1.50045247694803E-0001	
 9.44500000000000E+0002	 1.50447482143378E-0001	
 9.46500000000000E+0002	 1.50553716591953E-0001	
 9.48500000000000E+0002	 1.50336451040528E-0001	
 9.50500000000000E+0002	 1.49972185489103E-0001	
 9.52500000000000E+0002	 1.49666419937678E-0001	
 9.54500000000000E+0002	 1.49742654386253E-0001	
 9.56500000000000E+0002	 1.50353888834828E-0001	
 9.58500000000000E+0002	 1.51565623283403E-0001	
 9.60500000000000E+0002	 1.53297357731978E-0001	
 9.62500000000000E+0002	 1.55379092180553E-0001	
 9.64500000000000E+0002	 1.57688826629127E-0001	
 9.66500000000000E+0002	 1.60083561077702E-0001	
 9.68500000000000E+0002	 1.62627295526277E-0001	
 9.70500000000000E+0002	 1.65385529974852E-0001	
 9.72500000000000E+0002	 1.68720764423427E-0001	
 9.74500000000000E+0002	 1.72919498872002E-0001	
 9.76500000000000E+0002	 1.78422233320577E-0001	
 9.78500000000000E+0002	 1.85303967769152E-0001	
 9.80500000000000E+0002	 1.93470702217727E-0001	
 9.82500000000000E+0002	 2.02280436666302E-0001	
 9.84500000000000E+0002	 2.10950671114877E-0001	
 9.86500000000000E+0002	 2.18516405563452E-0001	
 9.88500000000000E+0002	 2.24330140012027E-0001	
 9.90500000000000E+0002	 2.27988374460602E-0001	
 9.92500000000000E+0002	 2.29426108909177E-0001	
 9.94500000000000E+0002	 2.28907843357752E-0001	
 9.96500000000000E+0002	 2.26945077806327E-0001	
 9.98500000000000E+0002	 2.24385812254902E-0001	
 1.00050000000000E+0003	 2.22093046703477E-0001	
 1.00250000000000E+0003	 2.20963281152052E-0001	
 1.00450000000000E+0003	 2.21405515600627E-0001	
 1.00650000000000E+0003	 2.23547750049202E-0001	
 1.00850000000000E+0003	 2.26972984497777E-0001	
 1.01050000000000E+0003	 2.31150718946352E-0001	
 1.01250000000000E+0003	 2.35456453394927E-0001	
 1.01450000000000E+0003	 2.39515687843502E-0001	
 1.01650000000000E+0003	 2.43230422292077E-0001	
 1.01850000000000E+0003	 2.46741156740652E-0001	
 1.02050000000000E+0003	 2.50453391189227E-0001	
 1.02250000000000E+0003	 2.54579625637802E-0001	
 1.02450000000000E+0003	 2.59232860086377E-0001	
 1.02650000000000E+0003	 2.63977594534952E-0001	
 1.02850000000000E+0003	 2.68320828983526E-0001	
 1.03050000000000E+0003	 2.71689063432101E-0001	
 1.03250000000000E+0003	 2.74001797880676E-0001	
 1.03450000000000E+0003	 2.75399532329251E-0001	
 1.03650000000000E+0003	 2.76288766777826E-0001	
 1.03850000000000E+0003	 2.77003001226401E-0001	
 1.04050000000000E+0003	 2.77857235674976E-0001	
 1.04250000000000E+0003	 2.79011970123551E-0001	
 1.04450000000000E+0003	 2.80465204572126E-0001	
 1.04650000000000E+0003	 2.82012439020701E-0001	
 1.04850000000000E+0003	 2.83210673469276E-0001	
 1.05050000000000E+0003	 2.83732907917851E-0001	
 1.05250000000000E+0003	 2.83506142366426E-0001	
 1.05450000000000E+0003	 2.82884376815001E-0001	
 1.05650000000000E+0003	 2.82237611263576E-0001	
 1.05850000000000E+0003	 2.81743845712151E-0001	
 1.06050000000000E+0003	 2.81284080160726E-0001	
 1.06250000000000E+0003	 2.80899814609301E-0001	
 1.06450000000000E+0003	 2.80713549057876E-0001	
 1.06650000000000E+0003	 2.81034783506451E-0001	
 1.06850000000000E+0003	 2.82026017955026E-0001	
 1.07050000000000E+0003	 2.83660252403601E-0001	
 1.07250000000000E+0003	 2.85636986852176E-0001	
 1.07450000000000E+0003	 2.87509221300751E-0001	
 1.07650000000000E+0003	 2.88854955749326E-0001	
 1.07850000000000E+0003	 2.89269690197901E-0001	
 1.08050000000000E+0003	 2.88620424646476E-0001	
 1.08250000000000E+0003	 2.86907659095051E-0001	
 1.08450000000000E+0003	 2.84427393543626E-0001	
 1.08650000000000E+0003	 2.81370127992201E-0001	
 1.08850000000000E+0003	 2.78134362440776E-0001	
 1.09050000000000E+0003	 2.74940596889351E-0001	
 1.09250000000000E+0003	 2.72213331337926E-0001	
 1.09450000000000E+0003	 2.70105065786500E-0001	
 1.09650000000000E+0003	 2.68656300235075E-0001	
 1.09850000000000E+0003	 2.67643534683650E-0001	
 1.10050000000000E+0003	 2.66836769132225E-0001	
 1.10250000000000E+0003	 2.66096003580800E-0001	
 1.10450000000000E+0003	 2.65248738029375E-0001	
 1.10650000000000E+0003	 2.64283972477950E-0001	
 1.10850000000000E+0003	 2.63143706926525E-0001	
 1.11050000000000E+0003	 2.61939941375100E-0001	
 1.11250000000000E+0003	 2.60557175823675E-0001	
 1.11450000000000E+0003	 2.58903910272250E-0001	
 1.11650000000000E+0003	 2.56755144720825E-0001	
 1.11850000000000E+0003	 2.54077879169400E-0001	
 1.12050000000000E+0003	 2.50857113617975E-0001	
 1.12250000000000E+0003	 2.47172848066550E-0001	
 1.12450000000000E+0003	 2.43145082515125E-0001	
 1.12650000000000E+0003	 2.38854816963700E-0001	
 1.12850000000000E+0003	 2.34443051412275E-0001	
 1.13050000000000E+0003	 2.29937285860850E-0001	
 1.13250000000000E+0003	 2.25629020309425E-0001	
 1.13450000000000E+0003	 2.21713754758000E-0001	
 1.13650000000000E+0003	 2.18526489206575E-0001	
 1.13850000000000E+0003	 2.16240723655150E-0001	
 1.14050000000000E+0003	 2.15121958103725E-0001	
 1.14250000000000E+0003	 2.15091692552300E-0001	
 1.14450000000000E+0003	 2.15931427000875E-0001	
 1.14650000000000E+0003	 2.17014661449450E-0001	
 1.14850000000000E+0003	 2.17700895898025E-0001	
 1.15050000000000E+0003	 2.17373630346600E-0001	
 1.15250000000000E+0003	 2.15768364795175E-0001	
 1.15450000000000E+0003	 2.12893599243750E-0001	
 1.15650000000000E+0003	 2.09036333692325E-0001	
 1.15850000000000E+0003	 2.04611568140899E-0001	
 1.16050000000000E+0003	 2.00008802589474E-0001	
 1.16250000000000E+0003	 1.95579037038049E-0001	
 1.16450000000000E+0003	 1.91493771486624E-0001	
 1.16650000000000E+0003	 1.87907505935199E-0001	
 1.16850000000000E+0003	 1.84824240383774E-0001	
 1.17050000000000E+0003	 1.82266974832349E-0001	
 1.17250000000000E+0003	 1.80021209280924E-0001	
 1.17450000000000E+0003	 1.78014443729499E-0001	
 1.17650000000000E+0003	 1.76203178178074E-0001	
 1.17850000000000E+0003	 1.74703912626649E-0001	
 1.18050000000000E+0003	 1.73653647075224E-0001	
 1.18250000000000E+0003	 1.73192381523799E-0001	
 1.18450000000000E+0003	 1.73428115972374E-0001	
 1.18650000000000E+0003	 1.74337350420949E-0001	
 1.18850000000000E+0003	 1.76006084869524E-0001	
 1.19050000000000E+0003	 1.78295319318099E-0001	
 1.19250000000000E+0003	 1.81243553766674E-0001	
 1.19450000000000E+0003	 1.84642788215249E-0001	
 1.19650000000000E+0003	 1.88485522663824E-0001	
 1.19850000000000E+0003	 1.92481257112399E-0001	
 1.20050000000000E+0003	 1.96555991560974E-0001	
 1.20250000000000E+0003	 2.00426726009549E-0001	
 1.20450000000000E+0003	 2.04045960458124E-0001	
 1.20650000000000E+0003	 2.07295194906699E-0001	
 1.20850000000000E+0003	 2.10176929355274E-0001	
 1.21050000000000E+0003	 2.12733163803849E-0001	
 1.21250000000000E+0003	 2.15062398252424E-0001	
 1.21450000000000E+0003	 2.17272132700999E-0001	
 1.21650000000000E+0003	 2.19305367149574E-0001	
 1.21850000000000E+0003	 2.21256601598149E-0001	
 1.22050000000000E+0003	 2.22979336046724E-0001	
 1.22250000000000E+0003	 2.24405070495298E-0001	
 1.22450000000000E+0003	 2.25502804943873E-0001	
 1.22650000000000E+0003	 2.26521539392448E-0001	
 1.22850000000000E+0003	 2.27476773841023E-0001	
 1.23050000000000E+0003	 2.28373508289598E-0001	
 1.23250000000000E+0003	 2.29131242738173E-0001	
 1.23450000000000E+0003	 2.29700977186748E-0001	
 1.23650000000000E+0003	 2.30025211635323E-0001	
 1.23850000000000E+0003	 2.30001946083898E-0001	
 1.24050000000000E+0003	 2.29656680532473E-0001	
 1.24250000000000E+0003	 2.28891914981048E-0001	
 1.24450000000000E+0003	 2.27828649429623E-0001	
 1.24650000000000E+0003	 2.26417883878198E-0001	
 1.24850000000000E+0003	 2.24811618326773E-0001	
 1.25050000000000E+0003	 2.22969352775348E-0001	
 1.25250000000000E+0003	 2.21053587223923E-0001	
 1.25450000000000E+0003	 2.19003321672498E-0001	
 1.25650000000000E+0003	 2.16918556121073E-0001	
 1.25850000000000E+0003	 2.14736790569648E-0001	
 1.26050000000000E+0003	 2.12494025018223E-0001	
 1.26250000000000E+0003	 2.10214759466798E-0001	
 1.26450000000000E+0003	 2.07900493915373E-0001	
 1.26650000000000E+0003	 2.05657728363948E-0001	
 1.26850000000000E+0003	 2.03499962812523E-0001	
 1.27050000000000E+0003	 2.01559697261098E-0001	
 1.27250000000000E+0003	 1.99765931709673E-0001	
 1.27450000000000E+0003	 1.98169166158248E-0001	
 1.27650000000000E+0003	 1.96668400606823E-0001	
 1.27850000000000E+0003	 1.95326635055398E-0001	
 1.28050000000000E+0003	 1.94077869503973E-0001	
 1.28250000000000E+0003	 1.92894103952548E-0001	
 1.28450000000000E+0003	 1.91661338401123E-0001	
 1.28650000000000E+0003	 1.90368072849698E-0001	
 1.28850000000000E+0003	 1.89242807298272E-0001	
 1.29050000000000E+0003	 1.88393541746847E-0001	
 1.29250000000000E+0003	 1.87798276195422E-0001	
 1.29450000000000E+0003	 1.87293510643997E-0001	
 1.29650000000000E+0003	 1.86999245092572E-0001	
 1.29850000000000E+0003	 1.86909479541147E-0001	
 1.30050000000000E+0003	 1.87019213989722E-0001	
 1.30250000000000E+0003	 1.87089948438297E-0001	
 1.30450000000000E+0003	 1.87158182886872E-0001	
 1.30650000000000E+0003	 1.87113417335447E-0001	
 1.30850000000000E+0003	 1.87076151784022E-0001	
 1.31050000000000E+0003	 1.86947886232597E-0001	
 1.31250000000000E+0003	 1.86713120681172E-0001	
 1.31450000000000E+0003	 1.86533855129747E-0001	
 1.31650000000000E+0003	 1.86351089578322E-0001	
 1.31850000000000E+0003	 1.86097824026897E-0001	
 1.32050000000000E+0003	 1.85774058475472E-0001	
 1.32250000000000E+0003	 1.85397792924047E-0001	
 1.32450000000000E+0003	 1.84932027372622E-0001	
 1.32650000000000E+0003	 1.84496261821197E-0001	
 1.32850000000000E+0003	 1.84043996269772E-0001	
 1.33050000000000E+0003	 1.83674230718347E-0001	
 1.33250000000000E+0003	 1.83332965166922E-0001	
 1.33450000000000E+0003	 1.82828199615497E-0001	
 1.33650000000000E+0003	 1.81928434064072E-0001	
 1.33850000000000E+0003	 1.80942668512647E-0001	
 1.34050000000000E+0003	 1.80538902961222E-0001	
 1.34250000000000E+0003	 1.80479137409797E-0001	
 1.34450000000000E+0003	 1.79946371858372E-0001	
 1.34650000000000E+0003	 1.79023106306947E-0001	
 1.34850000000000E+0003	 1.78186840755522E-0001	
 1.35050000000000E+0003	 1.77392575204097E-0001	
 1.35250000000000E+0003	 1.76767309652671E-0001	
 1.35450000000000E+0003	 1.76283544101246E-0001	
 1.35650000000000E+0003	 1.76095278549821E-0001	
 1.35850000000000E+0003	 1.76006512998396E-0001	
 1.36050000000000E+0003	 1.75913747446971E-0001	
 1.36250000000000E+0003	 1.76552981895546E-0001	
 1.36450000000000E+0003	 1.78896216344121E-0001	
 1.36650000000000E+0003	 1.81987450792696E-0001	
 1.36850000000000E+0003	 1.84889685241271E-0001	
 1.37050000000000E+0003	 1.87538919689846E-0001	
 1.37250000000000E+0003	 1.89643154138421E-0001	
 1.37450000000000E+0003	 1.91652888586996E-0001	
 1.37650000000000E+0003	 1.93347123035571E-0001	
 1.37850000000000E+0003	 1.94243857484146E-0001	
 1.38050000000000E+0003	 1.94837091932721E-0001	
 1.38250000000000E+0003	 1.95381326381296E-0001	
 1.38450000000000E+0003	 1.95629060829871E-0001	
 1.38650000000000E+0003	 1.95417795278446E-0001	
 1.38850000000000E+0003	 1.95744029727021E-0001	
 1.39050000000000E+0003	 1.96765764175596E-0001	
 1.39250000000000E+0003	 1.97357998624171E-0001	
 1.39450000000000E+0003	 1.97781733072746E-0001	
 1.39650000000000E+0003	 1.98802467521321E-0001	
 1.39850000000000E+0003	 1.99881201969896E-0001	
 1.40050000000000E+0003	 2.01103936418471E-0001	
 1.40250000000000E+0003	 2.01893670867046E-0001	
 1.40450000000000E+0003	 2.01869905315621E-0001	
 1.40650000000000E+0003	 2.01876139764196E-0001	
 1.40850000000000E+0003	 2.01887874212771E-0001	
 1.41050000000000E+0003	 2.01481608661346E-0001	
 1.41250000000000E+0003	 2.01046843109921E-0001	
 1.41450000000000E+0003	 2.00307577558496E-0001	
 1.41650000000000E+0003	 1.98912812007070E-0001	
 1.41850000000000E+0003	 1.97362046455645E-0001	
 1.42050000000000E+0003	 1.96304780904220E-0001	
 1.42250000000000E+0003	 1.95278515352795E-0001	
 1.42450000000000E+0003	 1.93341249801370E-0001	
 1.42650000000000E+0003	 1.91529484249945E-0001	
 1.42850000000000E+0003	 1.89864218698520E-0001	
 1.43050000000000E+0003	 1.88489453147095E-0001	
 1.43250000000000E+0003	 1.87641687595670E-0001	
 1.43450000000000E+0003	 1.86962422044245E-0001	
 1.43650000000000E+0003	 1.86379656492820E-0001	
 1.43850000000000E+0003	 1.87924890941395E-0001	
 1.44050000000000E+0003	 1.89765125389970E-0001	
 1.44250000000000E+0003	 1.90977859838545E-0001	
 1.44450000000000E+0003	 1.92141094287120E-0001	
 1.44650000000000E+0003	 1.93158828735695E-0001	
 1.44850000000000E+0003	 1.94328063184270E-0001	
 1.45050000000000E+0003	 1.95799297632845E-0001	
 1.45250000000000E+0003	 1.96946032081420E-0001	
 1.45450000000000E+0003	 1.97474766529995E-0001	
 1.45650000000000E+0003	 1.97098000978570E-0001	
 1.45850000000000E+0003	 1.96050235427145E-0001	
 1.46050000000000E+0003	 1.94388469875720E-0001	
 1.46250000000000E+0003	 1.92459704324295E-0001	
 1.46450000000000E+0003	 1.89824438772870E-0001	
 1.46650000000000E+0003	 1.86825673221445E-0001	
 1.46850000000000E+0003	 1.83932907670020E-0001	
 1.47050000000000E+0003	 1.80524142118595E-0001	
 1.47250000000000E+0003	 1.76261876567170E-0001	
 1.47450000000000E+0003	 1.71757611015745E-0001	
 1.47650000000000E+0003	 1.68146845464320E-0001	
 1.47850000000000E+0003	 1.66153579912895E-0001	
 1.48050000000000E+0003	 1.64921814361469E-0001	
 1.48250000000000E+0003	 1.64100548810044E-0001	
 1.48450000000000E+0003	 1.63911283258619E-0001	
 1.48650000000000E+0003	 1.64318517707194E-0001	
 1.48850000000000E+0003	 1.65055252155769E-0001	
 1.49050000000000E+0003	 1.66571486604344E-0001	
 1.49250000000000E+0003	 1.69419721052919E-0001	
 1.49450000000000E+0003	 1.72734955501494E-0001	
 1.49650000000000E+0003	 1.76049189950069E-0001	
 1.49850000000000E+0003	 1.79103924398644E-0001	
 1.50050000000000E+0003	 1.81977158847219E-0001	
 1.50250000000000E+0003	 1.85839393295794E-0001	
 1.50450000000000E+0003	 1.90388627744369E-0001	
 1.50650000000000E+0003	 1.95745862192944E-0001	
 1.50850000000000E+0003	 1.99737596641519E-0001	
 1.51050000000000E+0003	 2.03957831090094E-0001	
 1.51250000000000E+0003	 2.09839565538669E-0001	
 1.51450000000000E+0003	 2.15875799987244E-0001	
 1.51650000000000E+0003	 2.21512034435819E-0001	
 1.51850000000000E+0003	 2.26448268884394E-0001	
 1.52050000000000E+0003	 2.30871003332969E-0001	
 1.52250000000000E+0003	 2.35606237781544E-0001	
 1.52450000000000E+0003	 2.38984472230119E-0001	
 1.52650000000000E+0003	 2.42528706678694E-0001	
 1.52850000000000E+0003	 2.47000441127269E-0001	
 1.53050000000000E+0003	 2.51271675575844E-0001	
 1.53250000000000E+0003	 2.55219410024419E-0001	
 1.53450000000000E+0003	 2.59552144472994E-0001	
 1.53650000000000E+0003	 2.64013878921569E-0001	
 1.53850000000000E+0003	 2.69325613370144E-0001	
 1.54050000000000E+0003	 2.73830347818719E-0001	
 1.54250000000000E+0003	 2.73854082267294E-0001	
 1.54450000000000E+0003	 2.73344816715869E-0001	
 1.54650000000000E+0003	 2.73833051164443E-0001	
 1.54850000000000E+0003	 2.73705285613018E-0001	
 1.55050000000000E+0003	 2.72111520061593E-0001	
 1.55250000000000E+0003	 2.70309254510168E-0001	
 1.55450000000000E+0003	 2.67511988958743E-0001	
 1.55650000000000E+0003	 2.64839223407318E-0001	
 1.55850000000000E+0003	 2.61366957855893E-0001	
 1.56050000000000E+0003	 2.54183692304468E-0001	
 1.56250000000000E+0003	 2.49478926753043E-0001	
 1.56450000000000E+0003	 2.45536161201618E-0001	
 1.56650000000000E+0003	 2.41579895650193E-0001	
 1.56850000000000E+0003	 2.38426130098768E-0001	
 1.57050000000000E+0003	 2.34898364547343E-0001	
 1.57250000000000E+0003	 2.32108098995918E-0001	
 1.57450000000000E+0003	 2.31039333444493E-0001	
 1.57650000000000E+0003	 2.29446567893068E-0001	
 1.57850000000000E+0003	 2.25756302341643E-0001	
 1.58050000000000E+0003	 2.23183536790218E-0001	
 1.58250000000000E+0003	 2.21712271238793E-0001	
 1.58450000000000E+0003	 2.20985505687368E-0001	
 1.58650000000000E+0003	 2.20757240135943E-0001	
 1.58850000000000E+0003	 2.21130474584518E-0001	
 1.59050000000000E+0003	 2.21954209033093E-0001	
 1.59250000000000E+0003	 2.23368943481668E-0001	
 1.59450000000000E+0003	 2.25106177930243E-0001	
 1.59650000000000E+0003	 2.27080412378818E-0001	
 1.59850000000000E+0003	 2.29228646827393E-0001	
 1.60050000000000E+0003	 2.31923881275968E-0001	
 1.60250000000000E+0003	 2.34984615724543E-0001	
 1.60450000000000E+0003	 2.38507850173118E-0001	
 1.60650000000000E+0003	 2.42491584621693E-0001	
 1.60850000000000E+0003	 2.47248819070268E-0001	
 1.61050000000000E+0003	 2.52445553518842E-0001	
 1.61250000000000E+0003	 2.58374287967417E-0001	
 1.61450000000000E+0003	 2.65361022415992E-0001	
 1.61650000000000E+0003	 2.73785256864567E-0001	
 1.61850000000000E+0003	 2.80724991313142E-0001	
 1.62050000000000E+0003	 2.86799725761717E-0001	
 1.62250000000000E+0003	 2.94546960210292E-0001	
 1.62450000000000E+0003	 3.03175194658867E-0001	
 1.62650000000000E+0003	 3.11285929107442E-0001	
 1.62850000000000E+0003	 3.19520663556017E-0001	
 1.63050000000000E+0003	 3.27493398004592E-0001	
 1.63250000000000E+0003	 3.35011632453167E-0001	
 1.63450000000000E+0003	 3.42638866901742E-0001	
 1.63650000000000E+0003	 3.49760601350317E-0001	
 1.63850000000000E+0003	 3.53759835798892E-0001	
 1.64050000000000E+0003	 3.56926570247467E-0001	
 1.64250000000000E+0003	 3.60243304696042E-0001	
 1.64450000000000E+0003	 3.63646539144617E-0001	
 1.64650000000000E+0003	 3.67308273593192E-0001	
 1.64850000000000E+0003	 3.70075508041767E-0001	
 1.65050000000000E+0003	 3.73449742490342E-0001	
 1.65250000000000E+0003	 3.77064476938917E-0001	
 1.65450000000000E+0003	 3.77633711387492E-0001	
 1.65650000000000E+0003	 3.77025945836067E-0001	
 1.65850000000000E+0003	 3.76768180284642E-0001	
 1.66050000000000E+0003	 3.75703414733217E-0001	
 1.66250000000000E+0003	 3.73522149181792E-0001	
 1.66450000000000E+0003	 3.70105883630367E-0001	
 1.66650000000000E+0003	 3.66840118078942E-0001	
 1.66850000000000E+0003	 3.63362352527517E-0001	
 1.67050000000000E+0003	 3.59125586976092E-0001	
 1.67250000000000E+0003	 3.54900321424667E-0001	
 1.67450000000000E+0003	 3.50382055873241E-0001	
 1.67650000000000E+0003	 3.45446790321816E-0001	
 1.67850000000000E+0003	 3.41546524770391E-0001	
 1.68050000000000E+0003	 3.37602259218966E-0001	
 1.68250000000000E+0003	 3.34382993667541E-0001	
 1.68450000000000E+0003	 3.30448728116116E-0001	
 1.68650000000000E+0003	 3.24383462564691E-0001	
 1.68850000000000E+0003	 3.18628197013266E-0001	
 1.69050000000000E+0003	 3.13111931461841E-0001	
 1.69250000000000E+0003	 3.07976165910416E-0001	
 1.69450000000000E+0003	 3.03127900358991E-0001	
 1.69650000000000E+0003	 2.97116134807566E-0001	
 1.69850000000000E+0003	 2.90664869256141E-0001	
 1.70050000000000E+0003	 2.82173603704716E-0001	
 1.70250000000000E+0003	 2.75485338153291E-0001	
 1.70450000000000E+0003	 2.70923072601866E-0001	
 1.70650000000000E+0003	 2.65519307050441E-0001	
 1.70850000000000E+0003	 2.60201041499016E-0001	
 1.71050000000000E+0003	 2.55452275947591E-0001	
 1.71250000000000E+0003	 2.50910010396166E-0001	
 1.71450000000000E+0003	 2.46860244844741E-0001	
 1.71650000000000E+0003	 2.43146979293316E-0001	
 1.71850000000000E+0003	 2.37654213741891E-0001	
 1.72050000000000E+0003	 2.32194948190466E-0001	
 1.72250000000000E+0003	 2.27953182639041E-0001	
 1.72450000000000E+0003	 2.23821917087616E-0001	
 1.72650000000000E+0003	 2.20231151536191E-0001	
 1.72850000000000E+0003	 2.16998385984766E-0001	
 1.73050000000000E+0003	 2.14597620433341E-0001	
 1.73250000000000E+0003	 2.13061354881916E-0001	
 1.73450000000000E+0003	 2.11159089330491E-0001	
 1.73650000000000E+0003	 2.09876323779066E-0001	
 1.73850000000000E+0003	 2.09252058227640E-0001	
 1.74050000000000E+0003	 2.08489292676215E-0001	
 1.74250000000000E+0003	 2.07438027124790E-0001	
 1.74450000000000E+0003	 2.06457761573365E-0001	
 1.74650000000000E+0003	 2.05619996021940E-0001	
 1.74850000000000E+0003	 2.03941230470515E-0001	
 1.75050000000000E+0003	 2.00979464919090E-0001	
 1.75250000000000E+0003	 1.97877699367665E-0001	
 1.75450000000000E+0003	 1.94933933816240E-0001	
 1.75650000000000E+0003	 1.90882168264815E-0001	
 1.75850000000000E+0003	 1.86806902713390E-0001	
 1.76050000000000E+0003	 1.82813137161965E-0001	
 1.76250000000000E+0003	 1.78474371610540E-0001	
 1.76450000000000E+0003	 1.74625106059115E-0001	
 1.76650000000000E+0003	 1.70650340507690E-0001	
 1.76850000000000E+0003	 1.66945574956265E-0001	
 1.77050000000000E+0003	 1.65173309404840E-0001	
 1.77250000000000E+0003	 1.63302543853415E-0001	
 1.77450000000000E+0003	 1.60036278301990E-0001	
 1.77650000000000E+0003	 1.57142012750565E-0001	
 1.77850000000000E+0003	 1.54998747199140E-0001	
 1.78050000000000E+0003	 1.53125981647715E-0001	
 1.78250000000000E+0003	 1.51250216096290E-0001	
 1.78450000000000E+0003	 1.49261950544865E-0001	
 1.78650000000000E+0003	 1.47974184993440E-0001	
 1.78850000000000E+0003	 1.46945419442015E-0001	
 1.79050000000000E+0003	 1.45569653890590E-0001	
 1.79250000000000E+0003	 1.44523888339165E-0001	
 1.79450000000000E+0003	 1.43596122787740E-0001	
 1.79650000000000E+0003	 1.42487857236315E-0001	
 1.79850000000000E+0003	 1.41424091684890E-0001	
 1.80050000000000E+0003	 1.39895826133465E-0001	
 1.80250000000000E+0003	 1.38598560582040E-0001	
 1.80450000000000E+0003	 1.38131295030614E-0001	
 1.80650000000000E+0003	 1.37525529479189E-0001	
 1.80850000000000E+0003	 1.36678263927764E-0001	
 1.81050000000000E+0003	 1.35928498376339E-0001	
 1.81250000000000E+0003	 1.35040732824914E-0001	
 1.81450000000000E+0003	 1.34244467273489E-0001	
 1.81650000000000E+0003	 1.33333201722064E-0001	
 1.81850000000000E+0003	 1.32623936170639E-0001	
 1.82050000000000E+0003	 1.32106170619214E-0001	
 1.82250000000000E+0003	 1.31337405067789E-0001	
 1.82450000000000E+0003	 1.30315639516364E-0001	
 1.82650000000000E+0003	 1.29898873964939E-0001	
 1.82850000000000E+0003	 1.29868108413514E-0001	
 1.83050000000000E+0003	 1.29258342862089E-0001	
 1.83250000000000E+0003	 1.28428577310664E-0001	
 1.83450000000000E+0003	 1.27897311759239E-0001	
 1.83650000000000E+0003	 1.27454546207814E-0001	
 1.83850000000000E+0003	 1.26953780656389E-0001	
 1.84050000000000E+0003	 1.26371015104964E-0001	
 1.84250000000000E+0003	 1.25658249553539E-0001	
 1.84450000000000E+0003	 1.25071984002114E-0001	
 1.84650000000000E+0003	 1.24730718450689E-0001	
 1.84850000000000E+0003	 1.24388452899264E-0001	
 1.85050000000000E+0003	 1.24146187347839E-0001	
 1.85250000000000E+0003	 1.23860421796414E-0001	
 1.85450000000000E+0003	 1.23483156244989E-0001	
 1.85650000000000E+0003	 1.23062890693564E-0001	
 1.85850000000000E+0003	 1.22634625142139E-0001	
 1.86050000000000E+0003	 1.22197859590714E-0001	
 1.86250000000000E+0003	 1.21886594039289E-0001	
 1.86450000000000E+0003	 1.21674328487864E-0001	
 1.86650000000000E+0003	 1.21465562936439E-0001	
 1.86850000000000E+0003	 1.20968297385013E-0001	
 1.87050000000000E+0003	 1.20445031833588E-0001	
 1.87250000000000E+0003	 1.20308766282163E-0001	
 1.87450000000000E+0003	 1.20142500730738E-0001	
 1.87650000000000E+0003	 1.19863235179313E-0001	
 1.87850000000000E+0003	 1.19555969627888E-0001	
 1.88050000000000E+0003	 1.19303204076463E-0001	
 1.88250000000000E+0003	 1.19102438525038E-0001	
 1.88450000000000E+0003	 1.18893172973613E-0001	
 1.88650000000000E+0003	 1.18607907422188E-0001	
 1.88850000000000E+0003	 1.18233141870763E-0001	
 1.89050000000000E+0003	 1.17975876319338E-0001	
 1.89250000000000E+0003	 1.17895110767913E-0001	
 1.89450000000000E+0003	 1.17733845216488E-0001	
 1.89650000000000E+0003	 1.17528079665063E-0001	
 1.89850000000000E+0003	 1.17339314113638E-0001	
 1.90050000000000E+0003	 1.17145548562213E-0001	
 1.90250000000000E+0003	 1.16976283010788E-0001	
 1.90450000000000E+0003	 1.16824017459363E-0001	
 1.90650000000000E+0003	 1.16640251907938E-0001	
 1.90850000000000E+0003	 1.16444986356513E-0001	
 1.91050000000000E+0003	 1.16277220805088E-0001	
 1.91250000000000E+0003	 1.16101455253663E-0001	
 1.91450000000000E+0003	 1.15899689702238E-0001	
 1.91650000000000E+0003	 1.15534924150813E-0001	
 1.91850000000000E+0003	 1.15264658599388E-0001	
 1.92050000000000E+0003	 1.15258393047963E-0001	
 1.92250000000000E+0003	 1.15147627496538E-0001	
 1.92450000000000E+0003	 1.15080361945113E-0001	
 1.92650000000000E+0003	 1.15075596393688E-0001	
 1.92850000000000E+0003	 1.14977830842263E-0001	
 1.93050000000000E+0003	 1.14851065290838E-0001	
 1.93250000000000E+0003	 1.14722299739412E-0001	
 1.93450000000000E+0003	 1.14613034187987E-0001	
 1.93650000000000E+0003	 1.14529268636562E-0001	
 1.93850000000000E+0003	 1.14418003085137E-0001	
 1.94050000000000E+0003	 1.14193237533712E-0001	
 1.94250000000000E+0003	 1.13975971982287E-0001	
 1.94450000000000E+0003	 1.14085706430862E-0001	
 1.94650000000000E+0003	 1.14179440879437E-0001	
 1.94850000000000E+0003	 1.14089675328012E-0001	
 1.95050000000000E+0003	 1.13990909776587E-0001	
 1.95250000000000E+0003	 1.13926144225162E-0001	
 1.95450000000000E+0003	 1.13856378673737E-0001	
 1.95650000000000E+0003	 1.13797113122312E-0001	
 1.95850000000000E+0003	 1.13756347570887E-0001	
 1.96050000000000E+0003	 1.13702082019462E-0001	
 1.96250000000000E+0003	 1.13654816468037E-0001	
 1.96450000000000E+0003	 1.13559050916612E-0001	
 1.96650000000000E+0003	 1.13427285365187E-0001	
 1.96850000000000E+0003	 1.13379519813762E-0001	
 1.97050000000000E+0003	 1.13434254262337E-0001	
 1.97250000000000E+0003	 1.13423488710912E-0001	
 1.97450000000000E+0003	 1.13389723159487E-0001	
 1.97650000000000E+0003	 1.13349457608062E-0001	
 1.97850000000000E+0003	 1.13312692056637E-0001	
 1.98050000000000E+0003	 1.13282426505212E-0001	
 1.98250000000000E+0003	 1.13252160953787E-0001	
 1.98450000000000E+0003	 1.13225395402362E-0001	
 1.98650000000000E+0003	 1.13162129850937E-0001	
 1.98850000000000E+0003	 1.13081864299512E-0001	
 1.99050000000000E+0003	 1.12942598748087E-0001	
 1.99250000000000E+0003	 1.12879833196662E-0001	
 1.99450000000000E+0003	 1.13028067645237E-0001	
 1.99650000000000E+0003	 1.13140802093812E-0001	
 1.99850000000000E+0003	 1.13155536542386E-0001	
 2.00050000000000E+0003	 1.13148770990961E-0001	
 2.00250000000000E+0003	 1.13141005439536E-0001	
 2.00450000000000E+0003	 1.13143239888111E-0001	
 2.00650000000000E+0003	 1.13149974336686E-0001	
 2.00850000000000E+0003	 1.13160708785261E-0001	
 2.01050000000000E+0003	 1.13193943233836E-0001	
 2.01250000000000E+0003	 1.13209677682411E-0001	
 2.01450000000000E+0003	 1.13187912130986E-0001	
 2.01650000000000E+0003	 1.13110646579561E-0001	
 2.01850000000000E+0003	 1.13154881028136E-0001	
 2.02050000000000E+0003	 1.13276615476711E-0001	
 2.02250000000000E+0003	 1.13349349925286E-0001	
 2.02450000000000E+0003	 1.13388584373861E-0001	
 2.02650000000000E+0003	 1.13446818822436E-0001	
 2.02850000000000E+0003	 1.13484053271011E-0001	
 2.03050000000000E+0003	 1.13523287719586E-0001	
 2.03250000000000E+0003	 1.13558522168161E-0001	
 2.03450000000000E+0003	 1.13589756616736E-0001	
 2.03650000000000E+0003	 1.13623991065311E-0001	
 2.03850000000000E+0003	 1.13635225513886E-0001	
 2.04050000000000E+0003	 1.13624459962461E-0001	
 2.04250000000000E+0003	 1.13654694411036E-0001	
 2.04450000000000E+0003	 1.13742428859611E-0001	
 2.04650000000000E+0003	 1.13778163308186E-0001	
 2.04850000000000E+0003	 1.13811897756761E-0001	
 2.05050000000000E+0003	 1.13840632205336E-0001	
 2.05250000000000E+0003	 1.13870366653911E-0001	
 2.05450000000000E+0003	 1.13893101102486E-0001	
 2.05650000000000E+0003	 1.13914335551061E-0001	
 2.05850000000000E+0003	 1.13933569999636E-0001	
 2.06050000000000E+0003	 1.13938304448211E-0001	
 2.06250000000000E+0003	 1.13919538896785E-0001	
 2.06450000000000E+0003	 1.13849773345360E-0001	
 2.06650000000000E+0003	 1.13875007793935E-0001	
 2.06850000000000E+0003	 1.13942242242510E-0001	
 2.07050000000000E+0003	 1.13974976691085E-0001	
 2.07250000000000E+0003	 1.13970711139660E-0001	
 2.07450000000000E+0003	 1.13970945588235E-0001	
 2.07650000000000E+0003	 1.13962180036810E-0001	
 2.07850000000000E+0003	 1.13958414485385E-0001	
 2.08050000000000E+0003	 1.13963648933960E-0001	
 2.08250000000000E+0003	 1.13964383382535E-0001	
 2.08450000000000E+0003	 1.13964117831110E-0001	
 2.08650000000000E+0003	 1.13945852279685E-0001	
 2.08850000000000E+0003	 1.13919586728260E-0001	
 2.09050000000000E+0003	 1.13903321176835E-0001	
 2.09250000000000E+0003	 1.13931555625410E-0001	
 2.09450000000000E+0003	 1.13941790073985E-0001	
 2.09650000000000E+0003	 1.13944524522560E-0001	
 2.09850000000000E+0003	 1.13936758971135E-0001	
 2.10050000000000E+0003	 1.13925493419710E-0001	
 2.10250000000000E+0003	 1.13910227868285E-0001	
 2.10450000000000E+0003	 1.13897462316860E-0001	
 2.10650000000000E+0003	 1.13884196765435E-0001	
 2.10850000000000E+0003	 1.13866931214010E-0001	
 2.11050000000000E+0003	 1.13847665662585E-0001	
 2.11250000000000E+0003	 1.13818900111160E-0001	
 2.11450000000000E+0003	 1.13783634559735E-0001	
 2.11650000000000E+0003	 1.13766369008310E-0001	
 2.11850000000000E+0003	 1.13759103456885E-0001	
 2.12050000000000E+0003	 1.13730837905460E-0001	
 2.12250000000000E+0003	 1.13702572354035E-0001	
 2.12450000000000E+0003	 1.13671306802610E-0001	
 2.12650000000000E+0003	 1.13645541251184E-0001	
 2.12850000000000E+0003	 1.13608275699759E-0001	
 2.13050000000000E+0003	 1.13571510148334E-0001	
 2.13250000000000E+0003	 1.13528744596909E-0001	
 2.13450000000000E+0003	 1.13476479045484E-0001	
 2.13650000000000E+0003	 1.13413213494059E-0001	
 2.13850000000000E+0003	 1.13367947942634E-0001	
 2.14050000000000E+0003	 1.13325182391209E-0001	
 2.14250000000000E+0003	 1.13277416839784E-0001	
 2.14450000000000E+0003	 1.13226651288359E-0001	
 2.14650000000000E+0003	 1.13169885736934E-0001	
 2.14850000000000E+0003	 1.13120620185509E-0001	
 2.15050000000000E+0003	 1.13058354634084E-0001	
 2.15250000000000E+0003	 1.12999589082659E-0001	
 2.15450000000000E+0003	 1.12931823531234E-0001	
 2.15650000000000E+0003	 1.12874057979809E-0001	
 2.15850000000000E+0003	 1.12803792428384E-0001	
 2.16050000000000E+0003	 1.12728026876959E-0001	
 2.16250000000000E+0003	 1.12651261325534E-0001	
 2.16450000000000E+0003	 1.12583995774109E-0001	
 2.16650000000000E+0003	 1.12525230222684E-0001	
 2.16850000000000E+0003	 1.12463464671259E-0001	
 2.17050000000000E+0003	 1.12394199119834E-0001	
 2.17250000000000E+0003	 1.12300933568409E-0001	
 2.17450000000000E+0003	 1.12216168016984E-0001	
 2.17650000000000E+0003	 1.12131402465559E-0001	
 2.17850000000000E+0003	 1.12057136914134E-0001	
 2.18050000000000E+0003	 1.11973371362709E-0001	
 2.18250000000000E+0003	 1.11895105811284E-0001	
 2.18450000000000E+0003	 1.11812340259859E-0001	
 2.18650000000000E+0003	 1.11728574708434E-0001	
 2.18850000000000E+0003	 1.11650309157009E-0001	
 2.19050000000000E+0003	 1.11571543605583E-0001	
 2.19250000000000E+0003	 1.11493778054158E-0001	
 2.19450000000000E+0003	 1.11411012502733E-0001	
 2.19650000000000E+0003	 1.11333246951308E-0001	
 2.19850000000000E+0003	 1.11251481399883E-0001	
 2.20050000000000E+0003	 1.11173215848458E-0001	
 2.20250000000000E+0003	 1.11090450297033E-0001	
 2.20450000000000E+0003	 1.11012184745608E-0001	
 2.20650000000000E+0003	 1.10930919194183E-0001	
 2.20850000000000E+0003	 1.10856153642758E-0001	
 2.21050000000000E+0003	 1.10779888091333E-0001	
 2.21250000000000E+0003	 1.10707622539908E-0001	
 2.21450000000000E+0003	 1.10631856988483E-0001	
 2.21650000000000E+0003	 1.10557091437058E-0001	
 2.21850000000000E+0003	 1.10482825885633E-0001	
 2.22050000000000E+0003	 1.10406560334208E-0001	
 2.22250000000000E+0003	 1.10335294782783E-0001	
 2.22450000000000E+0003	 1.10260029231358E-0001	
 2.22650000000000E+0003	 1.10190763679933E-0001	
 2.22850000000000E+0003	 1.10117998128508E-0001	
 2.23050000000000E+0003	 1.10058732577083E-0001	
 2.23250000000000E+0003	 1.09993967025658E-0001	
 2.23450000000000E+0003	 1.09936701474233E-0001	
 2.23650000000000E+0003	 1.09877435922808E-0001	
 2.23850000000000E+0003	 1.09822170371383E-0001	
 2.24050000000000E+0003	 1.09764404819958E-0001	
 2.24250000000000E+0003	 1.09705639268533E-0001	
 2.24450000000000E+0003	 1.09654373717108E-0001	
 2.24650000000000E+0003	 1.09599108165683E-0001	
 2.24850000000000E+0003	 1.09550842614258E-0001	
 2.25050000000000E+0003	 1.09496577062833E-0001	
 2.25250000000000E+0003	 1.09451311511408E-0001	
 2.25450000000000E+0003	 1.09398045959983E-0001	
 2.25650000000000E+0003	 1.09355780408557E-0001	
 2.25850000000000E+0003	 1.09311514857132E-0001	
 2.26050000000000E+0003	 1.09270249305707E-0001	
 2.26250000000000E+0003	 1.09234983754282E-0001	
 2.26450000000000E+0003	 1.09204718202857E-0001	
 2.26650000000000E+0003	 1.09180452651432E-0001	
 2.26850000000000E+0003	 1.09152687100007E-0001	
 2.27050000000000E+0003	 1.09129421548582E-0001	
 2.27250000000000E+0003	 1.09099155997157E-0001	
 2.27450000000000E+0003	 1.09065890445732E-0001	
 2.27650000000000E+0003	 1.09023624894307E-0001	
 2.27850000000000E+0003	 1.08982859342882E-0001	
 2.28050000000000E+0003	 1.08940593791457E-0001	
 2.28250000000000E+0003	 1.08895828240032E-0001	
 2.28450000000000E+0003	 1.08834562688607E-0001	
 2.28650000000000E+0003	 1.08744797137182E-0001	
 2.28850000000000E+0003	 1.08631531585757E-0001	
 2.29050000000000E+0003	 1.08502766034332E-0001	
 2.29250000000000E+0003	 1.08347500482907E-0001	
 2.29450000000000E+0003	 1.08173234931482E-0001	
 2.29650000000000E+0003	 1.08013969380057E-0001	
 2.29850000000000E+0003	 1.07895703828632E-0001	
 2.30050000000000E+0003	 1.07842938277207E-0001	
 2.30250000000000E+0003	 1.07885172725782E-0001	
 2.30450000000000E+0003	 1.07931407174357E-0001	
 2.30650000000000E+0003	 1.07885641622932E-0001	
 2.30850000000000E+0003	 1.07866876071507E-0001	
 2.31050000000000E+0003	 1.07964610520082E-0001	
 2.31250000000000E+0003	 1.08189844968657E-0001	
 2.31450000000000E+0003	 1.08342079417232E-0001	
 2.31650000000000E+0003	 1.08280313865807E-0001	
 2.31850000000000E+0003	 1.08124548314382E-0001	
 2.32050000000000E+0003	 1.07918282762956E-0001	
 2.32250000000000E+0003	 1.07721017211531E-0001	
 2.32450000000000E+0003	 1.07686251660106E-0001	
 2.32650000000000E+0003	 1.07834486108681E-0001	
 2.32850000000000E+0003	 1.08088220557256E-0001	
 2.33050000000000E+0003	 1.08307955005831E-0001	
 2.33250000000000E+0003	 1.08542189454406E-0001	
 2.33450000000000E+0003	 1.08842423902981E-0001	
 2.33650000000000E+0003	 1.09047658351556E-0001	
 2.33850000000000E+0003	 1.09056892800131E-0001	
 2.34050000000000E+0003	 1.08829127248706E-0001	
 2.34250000000000E+0003	 1.08584861697281E-0001	
 2.34450000000000E+0003	 1.08755596145856E-0001	
 2.34650000000000E+0003	 1.08966830594431E-0001	
 2.34850000000000E+0003	 1.08946065043006E-0001	
 2.35050000000000E+0003	 1.09212799491581E-0001	
 2.35250000000000E+0003	 1.09565533940156E-0001	
 2.35450000000000E+0003	 1.09448768388731E-0001	
 2.35650000000000E+0003	 1.09192002837306E-0001	
 2.35850000000000E+0003	 1.09243737285881E-0001	
 2.36050000000000E+0003	 1.09533471734456E-0001	
 2.36250000000000E+0003	 1.09713206183031E-0001	
 2.36450000000000E+0003	 1.09684940631606E-0001	
 2.36650000000000E+0003	 1.09613675080181E-0001	
 2.36850000000000E+0003	 1.09584909528756E-0001	
 2.37050000000000E+0003	 1.09742643977331E-0001	
 2.37250000000000E+0003	 1.10258378425906E-0001	
 2.37450000000000E+0003	 1.10897112874481E-0001	
 2.37650000000000E+0003	 1.11053347323056E-0001	
 2.37850000000000E+0003	 1.10518081771631E-0001	
 2.38050000000000E+0003	 1.09823816220206E-0001	
 2.38250000000000E+0003	 1.09572050668781E-0001	
 2.38450000000000E+0003	 1.09807785117355E-0001	
 2.38650000000000E+0003	 1.10226519565930E-0001	
 2.38850000000000E+0003	 1.10574754014505E-0001	
 2.39050000000000E+0003	 1.10802488463080E-0001	
 2.39250000000000E+0003	 1.10946722911655E-0001	
 2.39450000000000E+0003	 1.11056457360230E-0001	
 2.39650000000000E+0003	 1.11157191808805E-0001	
 2.39850000000000E+0003	 1.11257926257380E-0001	
 2.40050000000000E+0003	 1.11363660705955E-0001	
 2.40250000000000E+0003	 1.11473895154530E-0001	
 2.40450000000000E+0003	 1.11586629603105E-0001	
 2.40650000000000E+0003	 1.11697864051680E-0001	
 2.40850000000000E+0003	 1.11816598500255E-0001	
 2.41050000000000E+0003	 1.11936332948830E-0001	
 2.41250000000000E+0003	 1.12061067397405E-0001	
 2.41450000000000E+0003	 1.12184801845980E-0001	
 2.41650000000000E+0003	 1.12316536294555E-0001	
 2.41850000000000E+0003	 1.12449270743130E-0001	
 2.42050000000000E+0003	 1.12587005191705E-0001	
 2.42250000000000E+0003	 1.12724739640280E-0001	
 2.42450000000000E+0003	 1.12871974088855E-0001	
 2.42650000000000E+0003	 1.13019208537430E-0001	
 2.42850000000000E+0003	 1.13170442986005E-0001	
 2.43050000000000E+0003	 1.13323177434580E-0001	
 2.43250000000000E+0003	 1.13481911883155E-0001	
 2.43450000000000E+0003	 1.13643646331730E-0001	
 2.43650000000000E+0003	 1.13808880780305E-0001	
 2.43850000000000E+0003	 1.13978615228880E-0001	
 2.44050000000000E+0003	 1.14146349677455E-0001	
 2.44250000000000E+0003	 1.14314084126030E-0001	
 2.44450000000000E+0003	 1.14479818574605E-0001	
 2.44650000000000E+0003	 1.14656053023180E-0001	
 2.44850000000000E+0003	 1.14831787471755E-0001	
 2.45050000000000E+0003	 1.15010021920329E-0001	
 2.45250000000000E+0003	 1.15189756368904E-0001	
 2.45450000000000E+0003	 1.15373490817479E-0001	
 2.45650000000000E+0003	 1.15563725266054E-0001	
 2.45850000000000E+0003	 1.15751959714629E-0001	
 2.46050000000000E+0003	 1.15944694163204E-0001	
 2.46250000000000E+0003	 1.16141428611779E-0001	
 2.46450000000000E+0003	 1.16347663060354E-0001	
 2.46650000000000E+0003	 1.16548397508929E-0001	
 2.46850000000000E+0003	 1.16758131957504E-0001	
 2.47050000000000E+0003	 1.16968866406079E-0001	
 2.47250000000000E+0003	 1.17190100854654E-0001	
 2.47450000000000E+0003	 1.17411835303229E-0001	
 2.47650000000000E+0003	 1.17635069751804E-0001	
 2.47850000000000E+0003	 1.17855804200379E-0001	
 2.48050000000000E+0003	 1.18079538648954E-0001	
 2.48250000000000E+0003	 1.18305773097529E-0001	
 2.48450000000000E+0003	 1.18535007546104E-0001	
 2.48650000000000E+0003	 1.18763741994679E-0001	
 2.48850000000000E+0003	 1.18991976443254E-0001	
 2.49050000000000E+0003	 1.19225210891829E-0001	
 2.49250000000000E+0003	 1.19456445340404E-0001	
 2.49450000000000E+0003	 1.19689179788979E-0001	
 2.49650000000000E+0003	 1.19923414237554E-0001	
 2.49850000000000E+0003	 1.20163148686129E-0001	
 2.50050000000000E+0003	 1.20397383134704E-0001	
 2.50250000000000E+0003	 1.20634117583279E-0001	
 2.50450000000000E+0003	 1.20874852031854E-0001	
 2.50650000000000E+0003	 1.21110586480429E-0001	
 2.50850000000000E+0003	 1.21341820929004E-0001	
 2.51050000000000E+0003	 1.21570555377579E-0001	
 2.51250000000000E+0003	 1.21799789826154E-0001	
 2.51450000000000E+0003	 1.22020524274728E-0001	
 2.51650000000000E+0003	 1.22238758723303E-0001	
 2.51850000000000E+0003	 1.22451993171878E-0001	
 2.52050000000000E+0003	 1.22663227620453E-0001	
 2.52250000000000E+0003	 1.22864962069028E-0001	
 2.52450000000000E+0003	 1.23067696517603E-0001	
 2.52650000000000E+0003	 1.23264430966178E-0001	
 2.52850000000000E+0003	 1.23456665414753E-0001	
 2.53050000000000E+0003	 1.23645399863328E-0001	
 2.53250000000000E+0003	 1.23834134311903E-0001	
 2.53450000000000E+0003	 1.24013868760478E-0001	
 2.53650000000000E+0003	 1.24190103209053E-0001	
 2.53850000000000E+0003	 1.24364837657628E-0001	
 2.54050000000000E+0003	 1.24535572106203E-0001	
 2.54250000000000E+0003	 1.24703306554778E-0001	
 2.54450000000000E+0003	 1.24865041003353E-0001	
 2.54650000000000E+0003	 1.25024275451928E-0001	
 2.54850000000000E+0003	 1.25180509900503E-0001	
 2.55050000000000E+0003	 1.25340744349078E-0001	
 2.55250000000000E+0003	 1.25501978797653E-0001	
 2.55450000000000E+0003	 1.25664713246228E-0001	
 2.55650000000000E+0003	 1.25825447694803E-0001	
 2.55850000000000E+0003	 1.25984682143378E-0001	
 2.56050000000000E+0003	 1.26140416591953E-0001	
 2.56250000000000E+0003	 1.26292651040528E-0001	
 2.56450000000000E+0003	 1.26448885489103E-0001	
 2.56650000000000E+0003	 1.26606119937678E-0001	
 2.56850000000000E+0003	 1.26772354386253E-0001	
 2.57050000000000E+0003	 1.26942588834828E-0001	
 2.57250000000000E+0003	 1.27123323283403E-0001	
 2.57450000000000E+0003	 1.27306057731978E-0001	
 2.57650000000000E+0003	 1.27505292180553E-0001	
 2.57850000000000E+0003	 1.27713526629127E-0001	
 2.58050000000000E+0003	 1.27934761077702E-0001	
 2.58250000000000E+0003	 1.28163495526277E-0001	
 2.58450000000000E+0003	 1.28400229974852E-0001	
 2.58650000000000E+0003	 1.28645464423427E-0001	
 2.58850000000000E+0003	 1.28897198872002E-0001	
 2.59050000000000E+0003	 1.29155933320577E-0001	
 2.59250000000000E+0003	 1.29418667769152E-0001	
 2.59450000000000E+0003	 1.29685902217727E-0001	
 2.59650000000000E+0003	 1.29954636666302E-0001	
 2.59850000000000E+0003	 1.30226371114877E-0001	
 2.60050000000000E+0003	 1.30503105563452E-0001	
 2.60250000000000E+0003	 1.30783840012027E-0001	
 2.60450000000000E+0003	 1.31064074460602E-0001	
 2.60650000000000E+0003	 1.31337808909177E-0001	
 2.60850000000000E+0003	 1.31612043357752E-0001	
 2.61050000000000E+0003	 1.31887277806327E-0001	
 2.61250000000000E+0003	 1.32161512254902E-0001	
 2.61450000000000E+0003	 1.32431746703477E-0001	
 2.61650000000000E+0003	 1.32705481152052E-0001	
 2.61850000000000E+0003	 1.32975215600627E-0001	
 2.62050000000000E+0003	 1.33244950049202E-0001	
 2.62250000000000E+0003	 1.33514184497777E-0001	
 2.62450000000000E+0003	 1.33786418946352E-0001	
 2.62650000000000E+0003	 1.34059153394927E-0001	
 2.62850000000000E+0003	 1.34332387843502E-0001	
 2.63050000000000E+0003	 1.34600622292077E-0001	
 2.63250000000000E+0003	 1.34871356740652E-0001	
 2.63450000000000E+0003	 1.35140591189227E-0001	
 2.63650000000000E+0003	 1.35410325637802E-0001	
 2.63850000000000E+0003	 1.35681060086377E-0001	
 2.64050000000000E+0003	 1.35949794534952E-0001	
 2.64250000000000E+0003	 1.36212528983526E-0001	
 2.64450000000000E+0003	 1.36479263432101E-0001	
 2.64650000000000E+0003	 1.36749497880676E-0001	
 2.64850000000000E+0003	 1.37020232329251E-0001	
 2.65050000000000E+0003	 1.37290466777826E-0001	
 2.65250000000000E+0003	 1.37558701226401E-0001	
 2.65450000000000E+0003	 1.37828935674976E-0001	
 2.65650000000000E+0003	 1.38102670123551E-0001	
 2.65850000000000E+0003	 1.38379404572126E-0001	
 2.66050000000000E+0003	 1.38654639020701E-0001	
 2.66250000000000E+0003	 1.38931373469276E-0001	
 2.66450000000000E+0003	 1.39212107917851E-0001	
 2.66650000000000E+0003	 1.39497842366426E-0001	
 2.66850000000000E+0003	 1.39788076815001E-0001	
 2.67050000000000E+0003	 1.40080811263576E-0001	
 2.67250000000000E+0003	 1.40380045712151E-0001	
 2.67450000000000E+0003	 1.40682280160726E-0001	
 2.67650000000000E+0003	 1.40989014609301E-0001	
 2.67850000000000E+0003	 1.41295249057876E-0001	
 2.68050000000000E+0003	 1.41603483506451E-0001	
 2.68250000000000E+0003	 1.41904217955026E-0001	
 2.68450000000000E+0003	 1.42208452403601E-0001	
 2.68650000000000E+0003	 1.42515686852176E-0001	
 2.68850000000000E+0003	 1.42828921300751E-0001	
 2.69050000000000E+0003	 1.43144655749326E-0001	
 2.69250000000000E+0003	 1.43470390197901E-0001	
 2.69450000000000E+0003	 1.43797124646476E-0001	
 2.69650000000000E+0003	 1.44125859095051E-0001	
 2.69850000000000E+0003	 1.44466593543626E-0001	
 2.70050000000000E+0003	 1.44819327992201E-0001	
 2.70250000000000E+0003	 1.45179562440776E-0001	
 2.70450000000000E+0003	 1.45542796889351E-0001	
 2.70650000000000E+0003	 1.45919531337926E-0001	
 2.70850000000000E+0003	 1.46306265786500E-0001	
 2.71050000000000E+0003	 1.46704000235075E-0001	
 2.71250000000000E+0003	 1.47110234683650E-0001	
 2.71450000000000E+0003	 1.47524969132225E-0001	
 2.71650000000000E+0003	 1.47946203580800E-0001	
 2.71850000000000E+0003	 1.48370438029375E-0001	
 2.72050000000000E+0003	 1.48800672477950E-0001	
 2.72250000000000E+0003	 1.49229406926525E-0001	
 2.72450000000000E+0003	 1.49653141375100E-0001	
 2.72650000000000E+0003	 1.50071375823675E-0001	
 2.72850000000000E+0003	 1.50472110272250E-0001	
 2.73050000000000E+0003	 1.50858844720825E-0001	
 2.73250000000000E+0003	 1.51242579169400E-0001	
 2.73450000000000E+0003	 1.51619813617975E-0001	
 2.73650000000000E+0003	 1.51993048066550E-0001	
 2.73850000000000E+0003	 1.52353782515125E-0001	
 2.74050000000000E+0003	 1.52703016963700E-0001	
 2.74250000000000E+0003	 1.53046251412275E-0001	
 2.74450000000000E+0003	 1.53383485860850E-0001	
 2.74650000000000E+0003	 1.53722720309425E-0001	
 2.74850000000000E+0003	 1.54066454758000E-0001	
 2.75050000000000E+0003	 1.54398689206575E-0001	
 2.75250000000000E+0003	 1.54731423655150E-0001	
 2.75450000000000E+0003	 1.55076158103725E-0001	
 2.75650000000000E+0003	 1.55433892552300E-0001	
 2.75850000000000E+0003	 1.55800127000875E-0001	
 2.76050000000000E+0003	 1.56174361449450E-0001	
 2.76250000000000E+0003	 1.56559095898025E-0001	
 2.76450000000000E+0003	 1.56951330346600E-0001	
 2.76650000000000E+0003	 1.57351064795175E-0001	
 2.76850000000000E+0003	 1.57753799243750E-0001	
 2.77050000000000E+0003	 1.58166033692325E-0001	
 2.77250000000000E+0003	 1.58591768140899E-0001	
 2.77450000000000E+0003	 1.59038002589474E-0001	
 2.77650000000000E+0003	 1.59483737038049E-0001	
 2.77850000000000E+0003	 1.59922471486624E-0001	
 2.78050000000000E+0003	 1.60377705935199E-0001	
 2.78250000000000E+0003	 1.60849940383774E-0001	
 2.78450000000000E+0003	 1.61336174832349E-0001	
 2.78650000000000E+0003	 1.61835409280924E-0001	
 2.78850000000000E+0003	 1.62361643729499E-0001	
 2.79050000000000E+0003	 1.62887878178074E-0001	
 2.79250000000000E+0003	 1.63404112626649E-0001	
 2.79450000000000E+0003	 1.63930347075224E-0001	
 2.79650000000000E+0003	 1.64483581523799E-0001	
 2.79850000000000E+0003	 1.65049815972374E-0001	
 2.80050000000000E+0003	 1.65604050420949E-0001	
 2.80250000000000E+0003	 1.66160784869524E-0001	
 2.80450000000000E+0003	 1.66742019318099E-0001	
 2.80650000000000E+0003	 1.67338253766674E-0001	
 2.80850000000000E+0003	 1.67949988215249E-0001	
 2.81050000000000E+0003	 1.68573222663824E-0001	
 2.81250000000000E+0003	 1.69189957112399E-0001	
 2.81450000000000E+0003	 1.69809691560974E-0001	
 2.81650000000000E+0003	 1.70444426009549E-0001	
 2.81850000000000E+0003	 1.71097160458124E-0001	
 2.82050000000000E+0003	 1.71769894906699E-0001	
 2.82250000000000E+0003	 1.72462629355274E-0001	
 2.82450000000000E+0003	 1.73169863803849E-0001	
 2.82650000000000E+0003	 1.73893598252424E-0001	
 2.82850000000000E+0003	 1.74646332700999E-0001	
 2.83050000000000E+0003	 1.75436067149574E-0001	
 2.83250000000000E+0003	 1.76275301598149E-0001	
 2.83450000000000E+0003	 1.77175536046724E-0001	
 2.83650000000000E+0003	 1.78165770495298E-0001	
 2.83850000000000E+0003	 1.79295504943873E-0001	
 2.84050000000000E+0003	 1.80572739392448E-0001	
 2.84250000000000E+0003	 1.82079973841023E-0001	
 2.84450000000000E+0003	 1.83955208289598E-0001	
 2.84650000000000E+0003	 1.86223442738173E-0001	
 2.84850000000000E+0003	 1.88763677186748E-0001	
 2.85050000000000E+0003	 1.91274411635323E-0001	
 2.85250000000000E+0003	 1.93387146083898E-0001	
 2.85450000000000E+0003	 1.94828880532473E-0001	
 2.85650000000000E+0003	 1.95633114981048E-0001	
 2.85850000000000E+0003	 1.96100849429623E-0001	
 2.86050000000000E+0003	 1.96551083878198E-0001	
 2.86250000000000E+0003	 1.97184318326773E-0001	
 2.86450000000000E+0003	 1.98130552775348E-0001	
 2.86650000000000E+0003	 1.99388787223923E-0001	
 2.86850000000000E+0003	 2.00845021672498E-0001	
 2.87050000000000E+0003	 2.02361756121073E-0001	
 2.87250000000000E+0003	 2.03763490569648E-0001	
 2.87450000000000E+0003	 2.04809725018223E-0001	
 2.87650000000000E+0003	 2.05434459466798E-0001	
 2.87850000000000E+0003	 2.05828193915373E-0001	
 2.88050000000000E+0003	 2.06149928363948E-0001	
 2.88250000000000E+0003	 2.06490162812523E-0001	
 2.88450000000000E+0003	 2.06924397261098E-0001	
 2.88650000000000E+0003	 2.07485131709673E-0001	
 2.88850000000000E+0003	 2.08176366158248E-0001	
 2.89050000000000E+0003	 2.08981600606823E-0001	
 2.89250000000000E+0003	 2.09877835055398E-0001	
 2.89450000000000E+0003	 2.10851069503973E-0001	
 2.89650000000000E+0003	 2.11859803952548E-0001	
 2.89850000000000E+0003	 2.12873538401123E-0001	
 2.90050000000000E+0003	 2.13938772849698E-0001	
 2.90250000000000E+0003	 2.15096507298272E-0001	
 2.90450000000000E+0003	 2.16370241746847E-0001	
 2.90650000000000E+0003	 2.17786476195422E-0001	
 2.90850000000000E+0003	 2.19408210643997E-0001	
 2.91050000000000E+0003	 2.21293445092572E-0001	
 2.91250000000000E+0003	 2.23479679541147E-0001	
 2.91450000000000E+0003	 2.25883913989722E-0001	
 2.91650000000000E+0003	 2.28407148438297E-0001	
 2.91850000000000E+0003	 2.30959882886872E-0001	
 2.92050000000000E+0003	 2.33355117335447E-0001	
 2.92250000000000E+0003	 2.35410851784022E-0001	
 2.92450000000000E+0003	 2.37026586232597E-0001	
 2.92650000000000E+0003	 2.38207320681172E-0001	
 2.92850000000000E+0003	 2.39028555129747E-0001	
 2.93050000000000E+0003	 2.39507289578322E-0001	
 2.93250000000000E+0003	 2.39632024026897E-0001	
 2.93450000000000E+0003	 2.39484258475472E-0001	
 2.93650000000000E+0003	 2.39064992924047E-0001	
 2.93850000000000E+0003	 2.38371727372622E-0001	
 2.94050000000000E+0003	 2.37476461821197E-0001	
 2.94250000000000E+0003	 2.36521196269772E-0001	
 2.94450000000000E+0003	 2.35605430718347E-0001	
 2.94650000000000E+0003	 2.34794165166922E-0001	
 2.94850000000000E+0003	 2.34202899615497E-0001	
 2.95050000000000E+0003	 2.33966134064072E-0001	
 2.95250000000000E+0003	 2.34108368512647E-0001	
 2.95450000000000E+0003	 2.34414602961222E-0001	
 2.95650000000000E+0003	 2.34739837409797E-0001	
 2.95850000000000E+0003	 2.34964571858372E-0001	
 2.96050000000000E+0003	 2.34940806306947E-0001	
 2.96250000000000E+0003	 2.34562540755522E-0001	
 2.96450000000000E+0003	 2.33785775204097E-0001	
 2.96650000000000E+0003	 2.32662009652671E-0001	
 2.96850000000000E+0003	 2.31285244101246E-0001	
 2.97050000000000E+0003	 2.29794478549821E-0001	
 2.97250000000000E+0003	 2.28337212998396E-0001	
 2.97450000000000E+0003	 2.26945947446971E-0001	
 2.97650000000000E+0003	 2.25601181895546E-0001	
 2.97850000000000E+0003	 2.24346916344121E-0001	
 2.98050000000000E+0003	 2.23168650792696E-0001	
 2.98250000000000E+0003	 2.21997885241271E-0001	
 2.98450000000000E+0003	 2.20864119689846E-0001	
 2.98650000000000E+0003	 2.19827854138421E-0001	
 2.98850000000000E+0003	 2.18900088586996E-0001	
 2.99050000000000E+0003	 2.18102323035571E-0001	
 2.99250000000000E+0003	 2.17420057484146E-0001	
 2.99450000000000E+0003	 2.16806791932721E-0001	
 2.99650000000000E+0003	 2.16345526381296E-0001	
 2.99850000000000E+0003	 2.16054260829871E-0001	
 3.00050000000000E+0003	 2.15885495278446E-0001	
 3.00250000000000E+0003	 2.15878729727021E-0001	
 3.00450000000000E+0003	 2.16022464175596E-0001	
 3.00650000000000E+0003	 2.16273198624171E-0001	
 3.00850000000000E+0003	 2.16657933072746E-0001	
 3.01050000000000E+0003	 2.17198167521321E-0001	
 3.01250000000000E+0003	 2.17830401969896E-0001	
 3.01450000000000E+0003	 2.18474636418471E-0001	
 3.01650000000000E+0003	 2.19141370867046E-0001	
 3.01850000000000E+0003	 2.19889605315621E-0001	
 3.02050000000000E+0003	 2.20730839764196E-0001	
 3.02250000000000E+0003	 2.21657574212771E-0001	
 3.02450000000000E+0003	 2.22673308661346E-0001	
 3.02650000000000E+0003	 2.23710543109921E-0001	
 3.02850000000000E+0003	 2.24764777558496E-0001	
 3.03050000000000E+0003	 2.25853512007070E-0001	
 3.03250000000000E+0003	 2.26963246455645E-0001	
 3.03450000000000E+0003	 2.28089980904220E-0001	
 3.03650000000000E+0003	 2.29185215352795E-0001	
 3.03850000000000E+0003	 2.30300449801370E-0001	
 3.04050000000000E+0003	 2.31511184249945E-0001	
 3.04250000000000E+0003	 2.32750418698520E-0001	
 3.04450000000000E+0003	 2.33946153147095E-0001	
 3.04650000000000E+0003	 2.35116887595670E-0001	
 3.04850000000000E+0003	 2.36312622044245E-0001	
 3.05050000000000E+0003	 2.37562356492820E-0001	
 3.05250000000000E+0003	 2.38802090941395E-0001	
 3.05450000000000E+0003	 2.40014825389970E-0001	
 3.05650000000000E+0003	 2.41214059838545E-0001	
 3.05850000000000E+0003	 2.42366794287120E-0001	
 3.06050000000000E+0003	 2.43467028735695E-0001	
 3.06250000000000E+0003	 2.44517763184270E-0001	
 3.06450000000000E+0003	 2.45518497632845E-0001	
 3.06650000000000E+0003	 2.46478732081420E-0001	
 3.06850000000000E+0003	 2.47374966529995E-0001	
 3.07050000000000E+0003	 2.48181700978570E-0001	
 3.07250000000000E+0003	 2.48953435427145E-0001	
 3.07450000000000E+0003	 2.49710669875720E-0001	
 3.07650000000000E+0003	 2.50481904324295E-0001	
 3.07850000000000E+0003	 2.51247138772870E-0001	
 3.08050000000000E+0003	 2.51934873221445E-0001	
 3.08250000000000E+0003	 2.52566607670020E-0001	
 3.08450000000000E+0003	 2.53192842118595E-0001	
 3.08650000000000E+0003	 2.53783576567170E-0001	
 3.08850000000000E+0003	 2.54350811015745E-0001	
 3.09050000000000E+0003	 2.54929045464320E-0001	
 3.09250000000000E+0003	 2.55474779912895E-0001	
 3.09450000000000E+0003	 2.55994514361469E-0001	
 3.09650000000000E+0003	 2.56537248810044E-0001	
 3.09850000000000E+0003	 2.57126483258619E-0001	
 3.10050000000000E+0003	 2.57744217707194E-0001	
 3.10250000000000E+0003	 2.58350952155769E-0001	
 3.10450000000000E+0003	 2.58983686604344E-0001	
 3.10650000000000E+0003	 2.59690921052919E-0001	
 3.10850000000000E+0003	 2.60462655501494E-0001	
 3.11050000000000E+0003	 2.61226389950069E-0001	
 3.11250000000000E+0003	 2.62013624398644E-0001	
 3.11450000000000E+0003	 2.62917358847219E-0001	
 3.11650000000000E+0003	 2.63900593295794E-0001	
 3.11850000000000E+0003	 2.64889827744369E-0001	
 3.12050000000000E+0003	 2.65878062192944E-0001	
 3.12250000000000E+0003	 2.66847296641519E-0001	
 3.12450000000000E+0003	 2.67868531090094E-0001	
 3.12650000000000E+0003	 2.68990765538669E-0001	
 3.12850000000000E+0003	 2.70188499987244E-0001	
 3.13050000000000E+0003	 2.71416734435819E-0001	
 3.13250000000000E+0003	 2.72647468884394E-0001	
 3.13450000000000E+0003	 2.73920203332969E-0001	
 3.13650000000000E+0003	 2.75273437781544E-0001	
 3.13850000000000E+0003	 2.76692672230119E-0001	
 3.14050000000000E+0003	 2.78080906678694E-0001	
 3.14250000000000E+0003	 2.79429641127269E-0001	
 3.14450000000000E+0003	 2.80833875575844E-0001	
 3.14650000000000E+0003	 2.82308110024419E-0001	
 3.14850000000000E+0003	 2.83837344472994E-0001	
 3.15050000000000E+0003	 2.85462578921569E-0001	
 3.15250000000000E+0003	 2.87112313370144E-0001	
 3.15450000000000E+0003	 2.88651047818719E-0001	
 3.15650000000000E+0003	 2.90176282267294E-0001	
 3.15850000000000E+0003	 2.91787516715869E-0001	
 3.16050000000000E+0003	 2.93452751164443E-0001	
 3.16250000000000E+0003	 2.95131485613018E-0001	
 3.16450000000000E+0003	 2.96827220061593E-0001	
 3.16650000000000E+0003	 2.98540954510168E-0001	
 3.16850000000000E+0003	 3.00263188958743E-0001	
 3.17050000000000E+0003	 3.01983923407318E-0001	
 3.17250000000000E+0003	 3.03703157855893E-0001	
 3.17450000000000E+0003	 3.05419392304468E-0001	
 3.17650000000000E+0003	 3.07131626753043E-0001	
 3.17850000000000E+0003	 3.08834361201618E-0001	
 3.18050000000000E+0003	 3.10528095650193E-0001	
 3.18250000000000E+0003	 3.12210330098768E-0001	
 3.18450000000000E+0003	 3.13871564547343E-0001	
 3.18650000000000E+0003	 3.15511298995918E-0001	
 3.18850000000000E+0003	 3.17129033444493E-0001	
 3.19050000000000E+0003	 3.18710767893068E-0001	
 3.19250000000000E+0003	 3.20264002341643E-0001	
 3.19450000000000E+0003	 3.21790236790218E-0001	
 3.19650000000000E+0003	 3.23286971238793E-0001	
 3.19850000000000E+0003	 3.24756705687368E-0001	
 3.20050000000000E+0003	 3.26210440135943E-0001	
 3.20250000000000E+0003	 3.27645174584518E-0001	
 3.20450000000000E+0003	 3.29057909033093E-0001	
 3.20650000000000E+0003	 3.30450143481668E-0001	
 3.20850000000000E+0003	 3.31820377930243E-0001	
 3.21050000000000E+0003	 3.33176612378818E-0001	
 3.21250000000000E+0003	 3.34541346827393E-0001	
 3.21450000000000E+0003	 3.35905081275968E-0001	
 3.21650000000000E+0003	 3.37268815724543E-0001	
 3.21850000000000E+0003	 3.38639550173118E-0001	
 3.22050000000000E+0003	 3.40002284621693E-0001	
 3.22250000000000E+0003	 3.41364519070268E-0001	
 3.22450000000000E+0003	 3.42749253518842E-0001	
 3.22650000000000E+0003	 3.44146987967417E-0001	
 3.22850000000000E+0003	 3.45565722415992E-0001	
 3.23050000000000E+0003	 3.47046456864567E-0001	
 3.23250000000000E+0003	 3.48603691313142E-0001	
 3.23450000000000E+0003	 3.50092425761717E-0001	
 3.23650000000000E+0003	 3.51487160210292E-0001	
 3.23850000000000E+0003	 3.52933894658867E-0001	
 3.24050000000000E+0003	 3.54457629107442E-0001	
 3.24250000000000E+0003	 3.56014863556017E-0001	
 3.24450000000000E+0003	 3.57612098004592E-0001	
 3.24650000000000E+0003	 3.59247332453167E-0001	
 3.24850000000000E+0003	 3.60852566901742E-0001	
 3.25050000000000E+0003	 3.62424301350317E-0001	
 3.25250000000000E+0003	 3.64038535798892E-0001	
 3.25450000000000E+0003	 3.65707270247467E-0001	
 3.25650000000000E+0003	 3.67381004696042E-0001	
 3.25850000000000E+0003	 3.69026739144617E-0001	
 3.26050000000000E+0003	 3.70674973593192E-0001	
 3.26250000000000E+0003	 3.72322708041767E-0001	
 3.26450000000000E+0003	 3.73960442490342E-0001	
 3.26650000000000E+0003	 3.75581676938917E-0001	
 3.26850000000000E+0003	 3.77210411387492E-0001	
 3.27050000000000E+0003	 3.78814645836067E-0001	
 3.27250000000000E+0003	 3.80297380284642E-0001	
 3.27450000000000E+0003	 3.81672114733217E-0001	
 3.27650000000000E+0003	 3.83008349181792E-0001	
 3.27850000000000E+0003	 3.84309083630367E-0001	
 3.28050000000000E+0003	 3.85569818078942E-0001	
 3.28250000000000E+0003	 3.86769052527517E-0001	
 3.28450000000000E+0003	 3.87902786976092E-0001	
 3.28650000000000E+0003	 3.88979521424667E-0001	
 3.28850000000000E+0003	 3.90012755873241E-0001	
 3.29050000000000E+0003	 3.91021990321816E-0001	
 3.29250000000000E+0003	 3.91977224770391E-0001	
 3.29450000000000E+0003	 3.92828459218966E-0001	
 3.29650000000000E+0003	 3.93612193667541E-0001	
 3.29850000000000E+0003	 3.94334928116116E-0001	
 3.30050000000000E+0003	 3.95033662564691E-0001	
 3.30250000000000E+0003	 3.95751397013266E-0001	
 3.30450000000000E+0003	 3.96505131461841E-0001	
 3.30650000000000E+0003	 3.97206365910416E-0001	
 3.30850000000000E+0003	 3.97784100358991E-0001	
 3.31050000000000E+0003	 3.98295334807566E-0001	
 3.31250000000000E+0003	 3.98823069256141E-0001	
 3.31450000000000E+0003	 3.99384803704716E-0001	
 3.31650000000000E+0003	 3.99961538153291E-0001	
 3.31850000000000E+0003	 4.00539772601866E-0001	
 3.32050000000000E+0003	 4.01126507050441E-0001	
 3.32250000000000E+0003	 4.01731241499016E-0001	
 3.32450000000000E+0003	 4.02369975947591E-0001	
 3.32650000000000E+0003	 4.02999710396166E-0001	
 3.32850000000000E+0003	 4.03602944844741E-0001	
 3.33050000000000E+0003	 4.04225679293316E-0001	
 3.33250000000000E+0003	 4.04891913741891E-0001	
 3.33450000000000E+0003	 4.05583148190466E-0001	
 3.33650000000000E+0003	 4.06313882639041E-0001	
 3.33850000000000E+0003	 4.07048617087616E-0001	
 3.34050000000000E+0003	 4.07747351536191E-0001	
 3.34250000000000E+0003	 4.08445085984766E-0001	
 3.34450000000000E+0003	 4.09158320433341E-0001	
 3.34650000000000E+0003	 4.09880054881916E-0001	
 3.34850000000000E+0003	 4.10671289330491E-0001	
 3.35050000000000E+0003	 4.11489523779066E-0001	
 3.35250000000000E+0003	 4.12223258227640E-0001	
 3.35450000000000E+0003	 4.12917992676215E-0001	
 3.35650000000000E+0003	 4.13662727124790E-0001	
 3.35850000000000E+0003	 4.14447961573365E-0001	
 3.36050000000000E+0003	 4.15237196021940E-0001	
 3.36250000000000E+0003	 4.15998430470515E-0001	
 3.36450000000000E+0003	 4.16798164919090E-0001	
 3.36650000000000E+0003	 4.17670899367665E-0001	
 3.36850000000000E+0003	 4.18528633816240E-0001	
 3.37050000000000E+0003	 4.19247368264815E-0001	
 3.37250000000000E+0003	 4.19867602713390E-0001	
 3.37450000000000E+0003	 4.20542837161965E-0001	
 3.37650000000000E+0003	 4.21289571610540E-0001	
 3.37850000000000E+0003	 4.22025806059115E-0001	
 3.38050000000000E+0003	 4.22742540507690E-0001	
 3.38250000000000E+0003	 4.23432274956265E-0001	
 3.38450000000000E+0003	 4.24114009404840E-0001	
 3.38650000000000E+0003	 4.24802743853415E-0001	
 3.38850000000000E+0003	 4.25564978301990E-0001	
 3.39050000000000E+0003	 4.26396712750565E-0001	
 3.39250000000000E+0003	 4.27094447199140E-0001	
 3.39450000000000E+0003	 4.27605181647715E-0001	
 3.39650000000000E+0003	 4.28170916096290E-0001	
 3.39850000000000E+0003	 4.28913150544865E-0001	
 3.40050000000000E+0003	 4.29651384993440E-0001	
 3.40250000000000E+0003	 4.30100619442015E-0001	
 3.40450000000000E+0003	 4.30408353890590E-0001	
 3.40650000000000E+0003	 4.30846588339165E-0001	
 3.40850000000000E+0003	 4.31375822787740E-0001	
 3.41050000000000E+0003	 4.31856557236315E-0001	
 3.41250000000000E+0003	 4.32278291684890E-0001	
 3.41450000000000E+0003	 4.32606026133465E-0001	
 3.41650000000000E+0003	 4.32882260582040E-0001	
 3.41850000000000E+0003	 4.33180995030614E-0001	
 3.42050000000000E+0003	 4.33457729479189E-0001	
 3.42250000000000E+0003	 4.33656963927764E-0001	
 3.42450000000000E+0003	 4.33856698376339E-0001	
 3.42650000000000E+0003	 4.34093932824914E-0001	
 3.42850000000000E+0003	 4.34335667273489E-0001	
 3.43050000000000E+0003	 4.34469901722064E-0001	
 3.43250000000000E+0003	 4.34543136170639E-0001	
 3.43450000000000E+0003	 4.34663370619214E-0001	
 3.43650000000000E+0003	 4.34667605067789E-0001	
 3.43850000000000E+0003	 4.34436339516364E-0001	
 3.44050000000000E+0003	 4.34142573964939E-0001	
 3.44250000000000E+0003	 4.33909808413514E-0001	
 3.44450000000000E+0003	 4.33720042862089E-0001	
 3.44650000000000E+0003	 4.33489277310664E-0001	
 3.44850000000000E+0003	 4.33176011759239E-0001	
 3.45050000000000E+0003	 4.32848246207814E-0001	
 3.45250000000000E+0003	 4.32521480656389E-0001	
 3.45450000000000E+0003	 4.32137215104964E-0001	
 3.45650000000000E+0003	 4.31731449553539E-0001	
 3.45850000000000E+0003	 4.31348684002114E-0001	
 3.46050000000000E+0003	 4.30903418450689E-0001	
 3.46250000000000E+0003	 4.30330652899264E-0001	
 3.46450000000000E+0003	 4.29835887347839E-0001	
 3.46650000000000E+0003	 4.29476621796414E-0001	
 3.46850000000000E+0003	 4.28967856244989E-0001	
 3.47050000000000E+0003	 4.28112090693564E-0001	
 3.47250000000000E+0003	 4.27139325142139E-0001	
 3.47450000000000E+0003	 4.26290559590714E-0001	
 3.47650000000000E+0003	 4.25573794039289E-0001	
 3.47850000000000E+0003	 4.24926028487864E-0001	
 3.48050000000000E+0003	 4.24114262936439E-0001	
 3.48250000000000E+0003	 4.23092997385013E-0001	
 3.48450000000000E+0003	 4.22175231833588E-0001	
 3.48650000000000E+0003	 4.21338466282163E-0001	
 3.48850000000000E+0003	 4.20381200730738E-0001	
 3.49050000000000E+0003	 4.19376935179313E-0001	
 3.49250000000000E+0003	 4.18431169627888E-0001	
 3.49450000000000E+0003	 4.17492404076463E-0001	
 3.49650000000000E+0003	 4.16512638525038E-0001	
 3.49850000000000E+0003	 4.15476372973613E-0001	
 3.50050000000000E+0003	 4.14469107422188E-0001	
 3.50250000000000E+0003	 4.13391841870763E-0001	
 3.50450000000000E+0003	 4.12104076319338E-0001	
 3.50650000000000E+0003	 4.10828310767913E-0001	
 3.50850000000000E+0003	 4.09646045216488E-0001	
 3.51050000000000E+0003	 4.08469279665063E-0001	
 3.51250000000000E+0003	 4.07366514113638E-0001	
 3.51450000000000E+0003	 4.06202748562213E-0001	
 3.51650000000000E+0003	 4.04892983010788E-0001	
 3.51850000000000E+0003	 4.03566717459363E-0001	
 3.52050000000000E+0003	 4.02334451907938E-0001	
 3.52250000000000E+0003	 4.01154186356513E-0001	
 3.52450000000000E+0003	 3.99799920805088E-0001	
 3.52650000000000E+0003	 3.98270655253663E-0001	
 3.52850000000000E+0003	 3.96770389702238E-0001	
 3.53050000000000E+0003	 3.95346124150813E-0001	
 3.53250000000000E+0003	 3.93991858599388E-0001	
 3.53450000000000E+0003	 3.92695093047963E-0001	
 3.53650000000000E+0003	 3.91275827496538E-0001	
 3.53850000000000E+0003	 3.89663061945113E-0001	
 3.54050000000000E+0003	 3.88148796393688E-0001	
 3.54250000000000E+0003	 3.86779530842263E-0001	
 3.54450000000000E+0003	 3.85263765290838E-0001	
 3.54650000000000E+0003	 3.83392999739412E-0001	
 3.54850000000000E+0003	 3.81462734187987E-0001	
 3.55050000000000E+0003	 3.79732468636562E-0001	
 3.55250000000000E+0003	 3.77953203085137E-0001	
 3.55450000000000E+0003	 3.76094437533712E-0001	
 3.55650000000000E+0003	 3.74326671982287E-0001	
 3.55850000000000E+0003	 3.72570906430862E-0001	
 3.56050000000000E+0003	 3.70740140879437E-0001	
 3.56250000000000E+0003	 3.68817375328012E-0001	
 3.56450000000000E+0003	 3.66825109776587E-0001	
 3.56650000000000E+0003	 3.64669344225162E-0001	
 3.56850000000000E+0003	 3.62485578673737E-0001	
 3.57050000000000E+0003	 3.60511313122312E-0001	
 3.57250000000000E+0003	 3.58543047570887E-0001	
 3.57450000000000E+0003	 3.56447782019462E-0001	
 3.57650000000000E+0003	 3.54309516468037E-0001	
 3.57850000000000E+0003	 3.52178750916612E-0001	
 3.58050000000000E+0003	 3.50069485365187E-0001	
 3.58250000000000E+0003	 3.48013719813762E-0001	
 3.58450000000000E+0003	 3.45969954262337E-0001	
 3.58650000000000E+0003	 3.43568688710912E-0001	
 3.58850000000000E+0003	 3.40772423159487E-0001	
 3.59050000000000E+0003	 3.38276157608062E-0001	
 3.59250000000000E+0003	 3.36047892056637E-0001	
 3.59450000000000E+0003	 3.33642626505212E-0001	
 3.59650000000000E+0003	 3.31196360953787E-0001	
 3.59850000000000E+0003	 3.28846595402362E-0001	
 3.60050000000000E+0003	 3.26411329850937E-0001	
 3.60250000000000E+0003	 3.23934564299512E-0001	
 3.60450000000000E+0003	 3.21511798748087E-0001	
 3.60650000000000E+0003	 3.18971033196662E-0001	
 3.60850000000000E+0003	 3.16264767645237E-0001	
 3.61050000000000E+0003	 3.13629002093812E-0001	
 3.61250000000000E+0003	 3.11083236542386E-0001	
 3.61450000000000E+0003	 3.08514970990961E-0001	
 3.61650000000000E+0003	 3.06079705439536E-0001	
 3.61850000000000E+0003	 3.03633439888111E-0001	
 3.62050000000000E+0003	 3.00872174336686E-0001	
 3.62250000000000E+0003	 2.98054908785261E-0001	
 3.62450000000000E+0003	 2.95447143233836E-0001	
 3.62650000000000E+0003	 2.92904877682411E-0001	
 3.62850000000000E+0003	 2.90016112130986E-0001	
 3.63050000000000E+0003	 2.86942346579561E-0001	
 3.63250000000000E+0003	 2.84332581028136E-0001	
 3.63450000000000E+0003	 2.81842815476711E-0001	
 3.63650000000000E+0003	 2.79245549925286E-0001	
 3.63850000000000E+0003	 2.76644784373861E-0001	
 3.64050000000000E+0003	 2.74030018822436E-0001	
 3.64250000000000E+0003	 2.71445253271011E-0001	
 3.64450000000000E+0003	 2.68951487719586E-0001	
 3.64650000000000E+0003	 2.66464722168161E-0001	
 3.64850000000000E+0003	 2.63787456616736E-0001	
 3.65050000000000E+0003	 2.61059691065311E-0001	
 3.65250000000000E+0003	 2.58539425513886E-0001	
 3.65450000000000E+0003	 2.56223159962461E-0001	
 3.65650000000000E+0003	 2.53883394411036E-0001	
 3.65850000000000E+0003	 2.51543628859611E-0001	
 3.66050000000000E+0003	 2.49296863308186E-0001	
 3.66250000000000E+0003	 2.46983597756761E-0001	
 3.66450000000000E+0003	 2.44738332205336E-0001	
 3.66650000000000E+0003	 2.42667566653911E-0001	
 3.66850000000000E+0003	 2.40610801102486E-0001	
 3.67050000000000E+0003	 2.38490535551061E-0001	
 3.67250000000000E+0003	 2.36537769999636E-0001	
 3.67450000000000E+0003	 2.34710504448211E-0001	
 3.67650000000000E+0003	 2.32740738896785E-0001	
 3.67850000000000E+0003	 2.30972473345360E-0001	
 3.68050000000000E+0003	 2.29421207793935E-0001	
 3.68250000000000E+0003	 2.27931942242510E-0001	
 3.68450000000000E+0003	 2.26557676691085E-0001	
 3.68650000000000E+0003	 2.25338411139660E-0001	
 3.68850000000000E+0003	 2.24089645588235E-0001	
 3.69050000000000E+0003	 2.22511380036810E-0001	
 3.69250000000000E+0003	 2.20997614485385E-0001	
 3.69450000000000E+0003	 2.19803848933960E-0001	
 3.69650000000000E+0003	 2.18738083382535E-0001	
 3.69850000000000E+0003	 2.17680817831110E-0001	
 3.70050000000000E+0003	 2.16647552279685E-0001	
 3.70250000000000E+0003	 2.15611786728260E-0001	
 3.70450000000000E+0003	 2.14610021176835E-0001	
 3.70650000000000E+0003	 2.13675255625410E-0001	
 3.70850000000000E+0003	 2.12733490073985E-0001	
 3.71050000000000E+0003	 2.11796724522560E-0001	
 3.71250000000000E+0003	 2.11046458971135E-0001	
 3.71450000000000E+0003	 2.10414193419710E-0001	
 3.71650000000000E+0003	 2.09736427868285E-0001	
 3.71850000000000E+0003	 2.09006662316860E-0001	
 3.72050000000000E+0003	 2.08236896765435E-0001	
 3.72250000000000E+0003	 2.07488131214010E-0001	
 3.72450000000000E+0003	 2.06762365662585E-0001	
 3.72650000000000E+0003	 2.06099600111160E-0001	
 3.72850000000000E+0003	 2.05540334559735E-0001	
 3.73050000000000E+0003	 2.05086569008310E-0001	
 3.73250000000000E+0003	 2.04611803456885E-0001	
 3.73450000000000E+0003	 2.03921537905460E-0001	
 3.73650000000000E+0003	 2.03265272354035E-0001	
 3.73850000000000E+0003	 2.02804006802610E-0001	
 3.74050000000000E+0003	 2.02350241251184E-0001	
 3.74250000000000E+0003	 2.01836975699759E-0001	
 3.74450000000000E+0003	 2.01426710148334E-0001	
 3.74650000000000E+0003	 2.00982944596909E-0001	
 3.74850000000000E+0003	 2.00454179045484E-0001	
 3.75050000000000E+0003	 1.99975413494059E-0001	
 3.75250000000000E+0003	 1.99606647942634E-0001	
 3.75450000000000E+0003	 1.99255882391209E-0001	
 3.75650000000000E+0003	 1.98852116839784E-0001	
 3.75850000000000E+0003	 1.98438351288359E-0001	
 3.76050000000000E+0003	 1.98068585736934E-0001	
 3.76250000000000E+0003	 1.97691820185509E-0001	
 3.76450000000000E+0003	 1.97325054634084E-0001	
 3.76650000000000E+0003	 1.96967289082659E-0001	
 3.76850000000000E+0003	 1.96588023531234E-0001	
 3.77050000000000E+0003	 1.96243757979809E-0001	
 3.77250000000000E+0003	 1.95911492428384E-0001	
 3.77450000000000E+0003	 1.95581226876959E-0001	
 3.77650000000000E+0003	 1.95254461325534E-0001	
 3.77850000000000E+0003	 1.94942695774109E-0001	
 3.78050000000000E+0003	 1.94622430222684E-0001	
 3.78250000000000E+0003	 1.94254664671259E-0001	
 3.78450000000000E+0003	 1.93913399119834E-0001	
 3.78650000000000E+0003	 1.93623633568409E-0001	
 3.78850000000000E+0003	 1.93365368016984E-0001	
 3.79050000000000E+0003	 1.93099602465559E-0001	
 3.79250000000000E+0003	 1.92802836914134E-0001	
 3.79450000000000E+0003	 1.92473071362709E-0001	
 3.79650000000000E+0003	 1.92190805811284E-0001	
 3.79850000000000E+0003	 1.91901040259859E-0001	
 3.80050000000000E+0003	 1.91595774708434E-0001	
 3.80250000000000E+0003	 1.91353509157009E-0001	
 3.80450000000000E+0003	 1.91097243605583E-0001	
 3.80650000000000E+0003	 1.90872478054158E-0001	
 3.80850000000000E+0003	 1.90669212502733E-0001	
 3.81050000000000E+0003	 1.90445946951308E-0001	
 3.81250000000000E+0003	 1.90208681399883E-0001	
 3.81450000000000E+0003	 1.89954415848458E-0001	
 3.81650000000000E+0003	 1.89758150297033E-0001	
 3.81850000000000E+0003	 1.89527384745608E-0001	
 3.82050000000000E+0003	 1.89296119194183E-0001	
 3.82250000000000E+0003	 1.89085353642758E-0001	
 3.82450000000000E+0003	 1.88836588091333E-0001	
 3.82650000000000E+0003	 1.88623822539908E-0001	
 3.82850000000000E+0003	 1.88446056988483E-0001	
 3.83050000000000E+0003	 1.88274791437058E-0001	
 3.83250000000000E+0003	 1.88142525885633E-0001	
 3.83450000000000E+0003	 1.88034260334208E-0001	
 3.83650000000000E+0003	 1.87866494782783E-0001	
 3.83850000000000E+0003	 1.87596729231358E-0001	
 3.84050000000000E+0003	 1.87337463679933E-0001	
 3.84250000000000E+0003	 1.87157698128508E-0001	
 3.84450000000000E+0003	 1.87043432577083E-0001	
 3.84650000000000E+0003	 1.86900667025658E-0001	
 3.84850000000000E+0003	 1.86746401474233E-0001	
 3.85050000000000E+0003	 1.86597135922808E-0001	
 3.85250000000000E+0003	 1.86523870371383E-0001	
 3.85450000000000E+0003	 1.86485104819958E-0001	
 3.85650000000000E+0003	 1.86274839268533E-0001	
 3.85850000000000E+0003	 1.85987573717108E-0001	
 3.86050000000000E+0003	 1.85816308165683E-0001	
 3.86250000000000E+0003	 1.85688042614258E-0001	
 3.86450000000000E+0003	 1.85587777062833E-0001	
 3.86650000000000E+0003	 1.85477511511408E-0001	
 3.86850000000000E+0003	 1.85331745959983E-0001	
 3.87050000000000E+0003	 1.85222480408557E-0001	
 3.87250000000000E+0003	 1.85077714857132E-0001	
 3.87450000000000E+0003	 1.84961949305707E-0001	
 3.87650000000000E+0003	 1.84850183754282E-0001	
 3.87850000000000E+0003	 1.84722918202857E-0001	
 3.88050000000000E+0003	 1.84644652651432E-0001	
 3.88250000000000E+0003	 1.84551387100007E-0001	
 3.88450000000000E+0003	 1.84473121548582E-0001	
 3.88650000000000E+0003	 1.84419855997157E-0001	
 3.88850000000000E+0003	 1.84294090445732E-0001	
 3.89050000000000E+0003	 1.84205824894307E-0001	
 3.89250000000000E+0003	 1.84123559342882E-0001	
 3.89450000000000E+0003	 1.83988293791457E-0001	
 3.89650000000000E+0003	 1.83872028240032E-0001	
 3.89850000000000E+0003	 1.83805762688607E-0001	
 3.90050000000000E+0003	 1.83711997137182E-0001	
 3.90250000000000E+0003	 1.83630231585757E-0001	
 3.90450000000000E+0003	 1.83613966034332E-0001	
 3.90650000000000E+0003	 1.83537200482907E-0001	
 3.90850000000000E+0003	 1.83413434931482E-0001	
 3.91050000000000E+0003	 1.83331669380057E-0001	
 3.91250000000000E+0003	 1.83267903828632E-0001	
 3.91450000000000E+0003	 1.83192138277207E-0001	
 3.91650000000000E+0003	 1.83127872725782E-0001	
 3.91850000000000E+0003	 1.83079107174357E-0001	
 3.92050000000000E+0003	 1.83028341622932E-0001	
 3.92250000000000E+0003	 1.82956576071507E-0001	
 3.92450000000000E+0003	 1.82902810520082E-0001	
 3.92650000000000E+0003	 1.82847044968657E-0001	
 3.92850000000000E+0003	 1.82766779417232E-0001	
 3.93050000000000E+0003	 1.82692013865807E-0001	
 3.93250000000000E+0003	 1.82650248314382E-0001	
 3.93450000000000E+0003	 1.82620482762956E-0001	
 3.93650000000000E+0003	 1.82565717211531E-0001	
 3.93850000000000E+0003	 1.82500451660106E-0001	
 3.94050000000000E+0003	 1.82437686108681E-0001	
 3.94250000000000E+0003	 1.82392420557256E-0001	
 3.94450000000000E+0003	 1.82327155005831E-0001	
 3.94650000000000E+0003	 1.82244389454406E-0001	
 3.94850000000000E+0003	 1.82190623902981E-0001	
 3.95050000000000E+0003	 1.82152858351556E-0001	
 3.95250000000000E+0003	 1.82106092800131E-0001	
 3.95450000000000E+0003	 1.82053327248706E-0001	
 3.95650000000000E+0003	 1.82003561697281E-0001	
 3.95850000000000E+0003	 1.81953796145856E-0001	
 3.96050000000000E+0003	 1.81899530594431E-0001	
 3.96250000000000E+0003	 1.81848765043006E-0001	
 3.96450000000000E+0003	 1.81801999491581E-0001	
 3.96650000000000E+0003	 1.81756233940156E-0001	
 3.96850000000000E+0003	 1.81710468388731E-0001	
 3.97050000000000E+0003	 1.81663202837306E-0001	
 3.97250000000000E+0003	 1.81612937285881E-0001	
 3.97450000000000E+0003	 1.81566671734456E-0001	
 3.97650000000000E+0003	 1.81528906183031E-0001	
 3.97850000000000E+0003	 1.81489640631606E-0001	
 3.98050000000000E+0003	 1.81450875080181E-0001	
 3.98250000000000E+0003	 1.81422109528756E-0001	
 3.98450000000000E+0003	 1.81386843977331E-0001	
 3.98650000000000E+0003	 1.81325578425906E-0001	
 3.98850000000000E+0003	 1.81258312874481E-0001	
 3.99050000000000E+0003	 1.81209547323056E-0001	
 3.99250000000000E+0003	 1.81166781771631E-0001	
 3.99450000000000E+0003	 1.81123016220206E-0001	
 3.99650000000000E+0003	 1.81082250668781E-0001	
 3.99850000000000E+0003	 1.81019838235294E-0001	

>1	DATALINE
