*CPCWIN*

>1	DATALINE
DATALINE
1
Operator:

Description:

Remarks:





15.9.2008
10:56


_x	_y
	
	
UNIT	UNIT
 4.50500000000000E+0002	 1.67826197761802E-0001	
 4.52500000000000E+0002	 1.68261094866305E-0001	
 4.54500000000000E+0002	 1.68822991970807E-0001	
 4.56500000000000E+0002	 1.69214389075309E-0001	
 4.58500000000000E+0002	 1.69489286179811E-0001	
 4.60500000000000E+0002	 1.70309683284314E-0001	
 4.62500000000000E+0002	 1.71075580388816E-0001	
 4.64500000000000E+0002	 1.71881477493318E-0001	
 4.66500000000000E+0002	 1.72389374597821E-0001	
 4.68500000000000E+0002	 1.72938771702323E-0001	
 4.70500000000000E+0002	 1.73438668806825E-0001	
 4.72500000000000E+0002	 1.74093065911327E-0001	
 4.74500000000000E+0002	 1.74926963015830E-0001	
 4.76500000000000E+0002	 1.75817360120332E-0001	
 4.78500000000000E+0002	 1.76551757224834E-0001	
 4.80500000000000E+0002	 1.77415654329336E-0001	
 4.82500000000000E+0002	 1.78209051433839E-0001	
 4.84500000000000E+0002	 1.79173948538341E-0001	
 4.86500000000000E+0002	 1.80224345642843E-0001	
 4.88500000000000E+0002	 1.81445242747346E-0001	
 4.90500000000000E+0002	 1.82547639851848E-0001	
 4.92500000000000E+0002	 1.83704536956350E-0001	
 4.94500000000000E+0002	 1.84824934060852E-0001	
 4.96500000000000E+0002	 1.86000331165355E-0001	
 4.98500000000000E+0002	 1.87101728269857E-0001	
 5.00500000000000E+0002	 1.88076125374359E-0001	
 5.02500000000000E+0002	 1.89035522478861E-0001	
 5.04500000000000E+0002	 1.90248419583364E-0001	
 5.06500000000000E+0002	 1.91331316687866E-0001	
 5.08500000000000E+0002	 1.92364713792368E-0001	
 5.10500000000000E+0002	 1.93436110896871E-0001	
 5.12500000000000E+0002	 1.94551008001373E-0001	
 5.14500000000000E+0002	 1.95647405105875E-0001	
 5.16500000000000E+0002	 1.96802802210377E-0001	
 5.18500000000000E+0002	 1.98087699314880E-0001	
 5.20500000000000E+0002	 1.99408596419382E-0001	
 5.22500000000000E+0002	 2.00675493523884E-0001	
 5.24500000000000E+0002	 2.01746890628386E-0001	
 5.26500000000000E+0002	 2.02871287732889E-0001	
 5.28500000000000E+0002	 2.04188184837391E-0001	
 5.30500000000000E+0002	 2.05380581941893E-0001	
 5.32500000000000E+0002	 2.06033479046396E-0001	
 5.34500000000000E+0002	 2.06349376150898E-0001	
 5.36500000000000E+0002	 2.06348273255400E-0001	
 5.38500000000000E+0002	 2.06144670359902E-0001	
 5.40500000000000E+0002	 2.05741567464405E-0001	
 5.42500000000000E+0002	 2.05453464568907E-0001	
 5.44500000000000E+0002	 2.05228361673409E-0001	
 5.46500000000000E+0002	 2.05160258777911E-0001	
 5.48500000000000E+0002	 2.05104655882414E-0001	
 5.50500000000000E+0002	 2.05129552986916E-0001	
 5.52500000000000E+0002	 2.05023950091418E-0001	
 5.54500000000000E+0002	 2.04842347195921E-0001	
 5.56500000000000E+0002	 2.04492744300423E-0001	
 5.58500000000000E+0002	 2.04063141404925E-0001	
 5.60500000000000E+0002	 2.03428038509427E-0001	
 5.62500000000000E+0002	 2.02721935613930E-0001	
 5.64500000000000E+0002	 2.01999832718432E-0001	
 5.66500000000000E+0002	 2.01404229822934E-0001	
 5.68500000000000E+0002	 2.00907126927436E-0001	
 5.70500000000000E+0002	 2.00537524031939E-0001	
 5.72500000000000E+0002	 2.00191421136441E-0001	
 5.74500000000000E+0002	 1.99870318240943E-0001	
 5.76500000000000E+0002	 1.99679715345445E-0001	
 5.78500000000000E+0002	 1.99662112449948E-0001	
 5.80500000000000E+0002	 1.99582509554450E-0001	
 5.82500000000000E+0002	 1.99392406658952E-0001	
 5.84500000000000E+0002	 1.99177803763455E-0001	
 5.86500000000000E+0002	 1.98972200867957E-0001	
 5.88500000000000E+0002	 1.98807597972459E-0001	
 5.90500000000000E+0002	 1.98648995076961E-0001	
 5.92500000000000E+0002	 1.98663392181464E-0001	
 5.94500000000000E+0002	 1.98809789285966E-0001	
 5.96500000000000E+0002	 1.99083686390468E-0001	
 5.98500000000000E+0002	 1.99362083494970E-0001	
 6.00500000000000E+0002	 1.99604480599473E-0001	
 6.02500000000000E+0002	 1.99766377703975E-0001	
 6.04500000000000E+0002	 1.99855774808477E-0001	
 6.06500000000000E+0002	 1.99707671912980E-0001	
 6.08500000000000E+0002	 1.99401069017482E-0001	
 6.10500000000000E+0002	 1.98974466121984E-0001	
 6.12500000000000E+0002	 1.98533863226486E-0001	
 6.14500000000000E+0002	 1.98071760330989E-0001	
 6.16500000000000E+0002	 1.97647657435491E-0001	
 6.18500000000000E+0002	 1.97229054539993E-0001	
 6.20500000000000E+0002	 1.96790951644495E-0001	
 6.22500000000000E+0002	 1.96292848748998E-0001	
 6.24500000000000E+0002	 1.95797745853500E-0001	
 6.26500000000000E+0002	 1.95324642958002E-0001	
 6.28500000000000E+0002	 1.94858540062505E-0001	
 6.30500000000000E+0002	 1.94386937167007E-0001	
 6.32500000000000E+0002	 1.93850834271509E-0001	
 6.34500000000000E+0002	 1.93226231376011E-0001	
 6.36500000000000E+0002	 1.92614628480514E-0001	
 6.38500000000000E+0002	 1.92088025585016E-0001	
 6.40500000000000E+0002	 1.91551922689518E-0001	
 6.42500000000000E+0002	 1.91006319794020E-0001	
 6.44500000000000E+0002	 1.90421216898523E-0001	
 6.46500000000000E+0002	 1.89849614003025E-0001	
 6.48500000000000E+0002	 1.89277011107527E-0001	
 6.50500000000000E+0002	 1.88713908212030E-0001	
 6.52500000000000E+0002	 1.88185805316532E-0001	
 6.54500000000000E+0002	 1.87701702421034E-0001	
 6.56500000000000E+0002	 1.87257599525536E-0001	
 6.58500000000000E+0002	 1.86866996630039E-0001	
 6.60500000000000E+0002	 1.86496393734541E-0001	
 6.62500000000000E+0002	 1.86108290839043E-0001	
 6.64500000000000E+0002	 1.85859187943545E-0001	
 6.66500000000000E+0002	 1.85641085048048E-0001	
 6.68500000000000E+0002	 1.84884482152550E-0001	
 6.70500000000000E+0002	 1.84080879257052E-0001	
 6.72500000000000E+0002	 1.83455776361555E-0001	
 6.74500000000000E+0002	 1.82706673466057E-0001	
 6.76500000000000E+0002	 1.82027070570559E-0001	
 6.78500000000000E+0002	 1.81335967675061E-0001	
 6.80500000000000E+0002	 1.80660364779564E-0001	
 6.82500000000000E+0002	 1.79968761884066E-0001	
 6.84500000000000E+0002	 1.79359158988568E-0001	
 6.86500000000000E+0002	 1.78808556093070E-0001	
 6.88500000000000E+0002	 1.78307453197573E-0001	
 6.90500000000000E+0002	 1.77835850302075E-0001	
 6.92500000000000E+0002	 1.77488247406577E-0001	
 6.94500000000000E+0002	 1.77195644511080E-0001	
 6.96500000000000E+0002	 1.76973541615582E-0001	
 6.98500000000000E+0002	 1.76722438720084E-0001	
 7.00500000000000E+0002	 1.76387335824586E-0001	
 7.02500000000000E+0002	 1.75900232929089E-0001	
 7.04500000000000E+0002	 1.75270130033591E-0001	
 7.06500000000000E+0002	 1.74571027138093E-0001	
 7.08500000000000E+0002	 1.73889424242595E-0001	
 7.10500000000000E+0002	 1.73243821347098E-0001	
 7.12500000000000E+0002	 1.72558718451600E-0001	
 7.14500000000000E+0002	 1.71684115556102E-0001	
 7.16500000000000E+0002	 1.70646012660605E-0001	
 7.18500000000000E+0002	 1.69605909765107E-0001	
 7.20500000000000E+0002	 1.68510306869609E-0001	
 7.22500000000000E+0002	 1.67281703974111E-0001	
 7.24500000000000E+0002	 1.65810601078614E-0001	
 7.26500000000000E+0002	 1.64112998183116E-0001	
 7.28500000000000E+0002	 1.62270395287618E-0001	
 7.30500000000000E+0002	 1.60419292392120E-0001	
 7.32500000000000E+0002	 1.58720189496623E-0001	
 7.34500000000000E+0002	 1.57252086601125E-0001	
 7.36500000000000E+0002	 1.56010983705627E-0001	
 7.38500000000000E+0002	 1.54936880810130E-0001	
 7.40500000000000E+0002	 1.54000777914632E-0001	
 7.42500000000000E+0002	 1.53107175019134E-0001	
 7.44500000000000E+0002	 1.52292572123636E-0001	
 7.46500000000000E+0002	 1.51518969228139E-0001	
 7.48500000000000E+0002	 1.50815366332641E-0001	
 7.50500000000000E+0002	 1.50136263437143E-0001	
 7.52500000000000E+0002	 1.49653660541645E-0001	
 7.54500000000000E+0002	 1.49337057646148E-0001	
 7.56500000000000E+0002	 1.49255454750650E-0001	
 7.58500000000000E+0002	 1.49320351855152E-0001	
 7.60500000000000E+0002	 1.49637748959654E-0001	
 7.62500000000000E+0002	 1.50014646064157E-0001	
 7.64500000000000E+0002	 1.50182543168659E-0001	
 7.66500000000000E+0002	 1.49599440273161E-0001	
 7.68500000000000E+0002	 1.48210337377664E-0001	
 7.70500000000000E+0002	 1.46355234482166E-0001	
 7.72500000000000E+0002	 1.44746631586668E-0001	
 7.74500000000000E+0002	 1.43811028691170E-0001	
 7.76500000000000E+0002	 1.43869425795673E-0001	
 7.78500000000000E+0002	 1.44469822900175E-0001	
 7.80500000000000E+0002	 1.44518220004677E-0001	
 7.82500000000000E+0002	 1.43505117109179E-0001	
 7.84500000000000E+0002	 1.42101514213682E-0001	
 7.86500000000000E+0002	 1.40740911318184E-0001	
 7.88500000000000E+0002	 1.39369808422686E-0001	
 7.90500000000000E+0002	 1.38024705527189E-0001	
 7.92500000000000E+0002	 1.37059102631691E-0001	
 7.94500000000000E+0002	 1.36570499736193E-0001	
 7.96500000000000E+0002	 1.36043896840695E-0001	
 7.98500000000000E+0002	 1.35093293945198E-0001	
 8.00500000000000E+0002	 1.33880191049700E-0001	
 8.02500000000000E+0002	 1.32792088154202E-0001	
 8.04500000000000E+0002	 1.31985485258704E-0001	
 8.06500000000000E+0002	 1.31444882363207E-0001	
 8.08500000000000E+0002	 1.31021279467709E-0001	
 8.10500000000000E+0002	 1.30594676572211E-0001	
 8.12500000000000E+0002	 1.30014073676714E-0001	
 8.14500000000000E+0002	 1.29247470781216E-0001	
 8.16500000000000E+0002	 1.28338867885718E-0001	
 8.18500000000000E+0002	 1.27395764990220E-0001	
 8.20500000000000E+0002	 1.26544162094723E-0001	
 8.22500000000000E+0002	 1.25851559199225E-0001	
 8.24500000000000E+0002	 1.25354956303727E-0001	
 8.26500000000000E+0002	 1.24997353408229E-0001	
 8.28500000000000E+0002	 1.24779750512732E-0001	
 8.30500000000000E+0002	 1.24670147617234E-0001	
 8.32500000000000E+0002	 1.24723544721736E-0001	
 8.34500000000000E+0002	 1.24858441826239E-0001	
 8.36500000000000E+0002	 1.25050838930741E-0001	
 8.38500000000000E+0002	 1.25188236035243E-0001	
 8.40500000000000E+0002	 1.25275133139745E-0001	
 8.42500000000000E+0002	 1.25230530244248E-0001	
 8.44500000000000E+0002	 1.25139927348750E-0001	
 8.46500000000000E+0002	 1.25010324453252E-0001	
 8.48500000000000E+0002	 1.24962221557754E-0001	
 8.50500000000000E+0002	 1.25014618662257E-0001	
 8.52500000000000E+0002	 1.25253015766759E-0001	
 8.54500000000000E+0002	 1.25595412871261E-0001	
 8.56500000000000E+0002	 1.25957309975764E-0001	
 8.58500000000000E+0002	 1.26152207080266E-0001	
 8.60500000000000E+0002	 1.26049104184768E-0001	
 8.62500000000000E+0002	 1.25543501289270E-0001	
 8.64500000000000E+0002	 1.24661398393773E-0001	
 8.66500000000000E+0002	 1.23496295498275E-0001	
 8.68500000000000E+0002	 1.22387192602777E-0001	
 8.70500000000000E+0002	 1.21879589707279E-0001	
 8.72500000000000E+0002	 1.21624486811782E-0001	
 8.74500000000000E+0002	 1.20657883916284E-0001	
 8.76500000000000E+0002	 1.19348281020786E-0001	
 8.78500000000000E+0002	 1.18448178125289E-0001	
 8.80500000000000E+0002	 1.17935075229791E-0001	
 8.82500000000000E+0002	 1.17654472334293E-0001	
 8.84500000000000E+0002	 1.17428369438795E-0001	
 8.86500000000000E+0002	 1.17183766543298E-0001	
 8.88500000000000E+0002	 1.16896663647800E-0001	
 8.90500000000000E+0002	 1.16569060752302E-0001	
 8.92500000000000E+0002	 1.16163957856804E-0001	
 8.94500000000000E+0002	 1.15710854961307E-0001	
 8.96500000000000E+0002	 1.15264252065809E-0001	
 8.98500000000000E+0002	 1.14927149170311E-0001	
 9.00500000000000E+0002	 1.14851046274814E-0001	
 9.02500000000000E+0002	 1.15162443379316E-0001	
 9.04500000000000E+0002	 1.16036840483818E-0001	
 9.06500000000000E+0002	 1.17489237588320E-0001	
 9.08500000000000E+0002	 1.19427134692823E-0001	
 9.10500000000000E+0002	 1.21518531797325E-0001	
 9.12500000000000E+0002	 1.23406928901827E-0001	
 9.14500000000000E+0002	 1.24670326006329E-0001	
 9.16500000000000E+0002	 1.25142223110832E-0001	
 9.18500000000000E+0002	 1.24744120215334E-0001	
 9.20500000000000E+0002	 1.23705517319836E-0001	
 9.22500000000000E+0002	 1.22218914424339E-0001	
 9.24500000000000E+0002	 1.20590811528841E-0001	
 9.26500000000000E+0002	 1.18958708633343E-0001	
 9.28500000000000E+0002	 1.17490605737845E-0001	
 9.30500000000000E+0002	 1.16199502842348E-0001	
 9.32500000000000E+0002	 1.15174399946850E-0001	
 9.34500000000000E+0002	 1.14345297051352E-0001	
 9.36500000000000E+0002	 1.13722694155854E-0001	
 9.38500000000000E+0002	 1.13271591260357E-0001	
 9.40500000000000E+0002	 1.13044488364859E-0001	
 9.42500000000000E+0002	 1.13051385469361E-0001	
 9.44500000000000E+0002	 1.13354782573863E-0001	
 9.46500000000000E+0002	 1.13936179678366E-0001	
 9.48500000000000E+0002	 1.14782576782868E-0001	
 9.50500000000000E+0002	 1.15875973887370E-0001	
 9.52500000000000E+0002	 1.17276370991873E-0001	
 9.54500000000000E+0002	 1.19042768096375E-0001	
 9.56500000000000E+0002	 1.21199665200877E-0001	
 9.58500000000000E+0002	 1.23704062305379E-0001	
 9.60500000000000E+0002	 1.26425459409882E-0001	
 9.62500000000000E+0002	 1.29216356514384E-0001	
 9.64500000000000E+0002	 1.31933753618886E-0001	
 9.66500000000000E+0002	 1.34470650723388E-0001	
 9.68500000000000E+0002	 1.36778047827891E-0001	
 9.70500000000000E+0002	 1.38912444932393E-0001	
 9.72500000000000E+0002	 1.41053842036895E-0001	
 9.74500000000000E+0002	 1.43494239141398E-0001	
 9.76500000000000E+0002	 1.46654136245900E-0001	
 9.78500000000000E+0002	 1.50924533350402E-0001	
 9.80500000000000E+0002	 1.56529430454904E-0001	
 9.82500000000000E+0002	 1.63305827559407E-0001	
 9.84500000000000E+0002	 1.70782224663909E-0001	
 9.86500000000000E+0002	 1.78180121768411E-0001	
 9.88500000000000E+0002	 1.84839018872913E-0001	
 9.90500000000000E+0002	 1.90377915977416E-0001	
 9.92500000000000E+0002	 1.94904813081918E-0001	
 9.94500000000000E+0002	 1.98810710186420E-0001	
 9.96500000000000E+0002	 2.02730107290923E-0001	
 9.98500000000000E+0002	 2.07211004395425E-0001	
 1.00050000000000E+0003	 2.12583401499927E-0001	
 1.00250000000000E+0003	 2.18732298604429E-0001	
 1.00450000000000E+0003	 2.25344695708932E-0001	
 1.00650000000000E+0003	 2.32055092813434E-0001	
 1.00850000000000E+0003	 2.38594489917936E-0001	
 1.01050000000000E+0003	 2.44799887022438E-0001	
 1.01250000000000E+0003	 2.50668784126941E-0001	
 1.01450000000000E+0003	 2.56159681231443E-0001	
 1.01650000000000E+0003	 2.61112578335945E-0001	
 1.01850000000000E+0003	 2.65318975440448E-0001	
 1.02050000000000E+0003	 2.68601872544950E-0001	
 1.02250000000000E+0003	 2.71034269649452E-0001	
 1.02450000000000E+0003	 2.72877666753954E-0001	
 1.02650000000000E+0003	 2.74516563858457E-0001	
 1.02850000000000E+0003	 2.76153960962959E-0001	
 1.03050000000000E+0003	 2.77852858067461E-0001	
 1.03250000000000E+0003	 2.79524255171963E-0001	
 1.03450000000000E+0003	 2.81074652276466E-0001	
 1.03650000000000E+0003	 2.82334549380968E-0001	
 1.03850000000000E+0003	 2.83306446485470E-0001	
 1.04050000000000E+0003	 2.84084343589973E-0001	
 1.04250000000000E+0003	 2.84933240694475E-0001	
 1.04450000000000E+0003	 2.86126137798977E-0001	
 1.04650000000000E+0003	 2.87886534903479E-0001	
 1.04850000000000E+0003	 2.90210932007982E-0001	
 1.05050000000000E+0003	 2.92790829112484E-0001	
 1.05250000000000E+0003	 2.94996226216986E-0001	
 1.05450000000000E+0003	 2.96261123321488E-0001	
 1.05650000000000E+0003	 2.96336020425991E-0001	
 1.05850000000000E+0003	 2.95286417530493E-0001	
 1.06050000000000E+0003	 2.93435314634995E-0001	
 1.06250000000000E+0003	 2.91415211739498E-0001	
 1.06450000000000E+0003	 2.90051108844000E-0001	
 1.06650000000000E+0003	 2.89983505948502E-0001	
 1.06850000000000E+0003	 2.91441403053004E-0001	
 1.07050000000000E+0003	 2.94210300157507E-0001	
 1.07250000000000E+0003	 2.97714197262009E-0001	
 1.07450000000000E+0003	 3.01308094366511E-0001	
 1.07650000000000E+0003	 3.04365991471013E-0001	
 1.07850000000000E+0003	 3.06418888575516E-0001	
 1.08050000000000E+0003	 3.07184285680018E-0001	
 1.08250000000000E+0003	 3.06523682784520E-0001	
 1.08450000000000E+0003	 3.04238579889023E-0001	
 1.08650000000000E+0003	 3.00199476993525E-0001	
 1.08850000000000E+0003	 2.94474374098027E-0001	
 1.09050000000000E+0003	 2.87703271202529E-0001	
 1.09250000000000E+0003	 2.80939168307032E-0001	
 1.09450000000000E+0003	 2.75250565411534E-0001	
 1.09650000000000E+0003	 2.70971462516036E-0001	
 1.09850000000000E+0003	 2.67796359620538E-0001	
 1.10050000000000E+0003	 2.65085756725041E-0001	
 1.10250000000000E+0003	 2.62377153829543E-0001	
 1.10450000000000E+0003	 2.59438550934045E-0001	
 1.10650000000000E+0003	 2.56355948038548E-0001	
 1.10850000000000E+0003	 2.53346845143050E-0001	
 1.11050000000000E+0003	 2.50661742247552E-0001	
 1.11250000000000E+0003	 2.48326139352054E-0001	
 1.11450000000000E+0003	 2.46158036456557E-0001	
 1.11650000000000E+0003	 2.43904933561059E-0001	
 1.11850000000000E+0003	 2.41383830665561E-0001	
 1.12050000000000E+0003	 2.38498727770063E-0001	
 1.12250000000000E+0003	 2.35229124874566E-0001	
 1.12450000000000E+0003	 2.31666521979068E-0001	
 1.12650000000000E+0003	 2.27903419083570E-0001	
 1.12850000000000E+0003	 2.24086316188073E-0001	
 1.13050000000000E+0003	 2.20273213292575E-0001	
 1.13250000000000E+0003	 2.16619110397077E-0001	
 1.13450000000000E+0003	 2.13224007501579E-0001	
 1.13650000000000E+0003	 2.10204904606082E-0001	
 1.13850000000000E+0003	 2.07655801710584E-0001	
 1.14050000000000E+0003	 2.05751698815086E-0001	
 1.14250000000000E+0003	 2.04545095919588E-0001	
 1.14450000000000E+0003	 2.03998993024091E-0001	
 1.14650000000000E+0003	 2.03805390128593E-0001	
 1.14850000000000E+0003	 2.03557787233095E-0001	
 1.15050000000000E+0003	 2.02773184337597E-0001	
 1.15250000000000E+0003	 2.01177081442100E-0001	
 1.15450000000000E+0003	 1.98724978546602E-0001	
 1.15650000000000E+0003	 1.95639875651104E-0001	
 1.15850000000000E+0003	 1.92185772755607E-0001	
 1.16050000000000E+0003	 1.88511169860109E-0001	
 1.16250000000000E+0003	 1.84597566964611E-0001	
 1.16450000000000E+0003	 1.80388964069113E-0001	
 1.16650000000000E+0003	 1.75934861173616E-0001	
 1.16850000000000E+0003	 1.71395258278118E-0001	
 1.17050000000000E+0003	 1.66963655382620E-0001	
 1.17250000000000E+0003	 1.62722052487122E-0001	
 1.17450000000000E+0003	 1.58679949591625E-0001	
 1.17650000000000E+0003	 1.54897346696127E-0001	
 1.17850000000000E+0003	 1.51508243800629E-0001	
 1.18050000000000E+0003	 1.48647640905132E-0001	
 1.18250000000000E+0003	 1.46438538009634E-0001	
 1.18450000000000E+0003	 1.44965935114136E-0001	
 1.18650000000000E+0003	 1.44240332218638E-0001	
 1.18850000000000E+0003	 1.44261229323141E-0001	
 1.19050000000000E+0003	 1.44994126427643E-0001	
 1.19250000000000E+0003	 1.46406023532145E-0001	
 1.19450000000000E+0003	 1.48395920636647E-0001	
 1.19650000000000E+0003	 1.50857817741150E-0001	
 1.19850000000000E+0003	 1.53622214845652E-0001	
 1.20050000000000E+0003	 1.56537111950154E-0001	
 1.20250000000000E+0003	 1.59436509054657E-0001	
 1.20450000000000E+0003	 1.62245406159159E-0001	
 1.20650000000000E+0003	 1.64874803263661E-0001	
 1.20850000000000E+0003	 1.67329200368163E-0001	
 1.21050000000000E+0003	 1.69656597472666E-0001	
 1.21250000000000E+0003	 1.71996994577168E-0001	
 1.21450000000000E+0003	 1.74381391681670E-0001	
 1.21650000000000E+0003	 1.76885288786172E-0001	
 1.21850000000000E+0003	 1.79594185890675E-0001	
 1.22050000000000E+0003	 1.82217582995177E-0001	
 1.22250000000000E+0003	 1.84208980099679E-0001	
 1.22450000000000E+0003	 1.85638877204182E-0001	
 1.22650000000000E+0003	 1.86917274308684E-0001	
 1.22850000000000E+0003	 1.88215671413186E-0001	
 1.23050000000000E+0003	 1.89480068517688E-0001	
 1.23250000000000E+0003	 1.90579465622191E-0001	
 1.23450000000000E+0003	 1.91428862726693E-0001	
 1.23650000000000E+0003	 1.91972259831195E-0001	
 1.23850000000000E+0003	 1.92185656935697E-0001	
 1.24050000000000E+0003	 1.92044554040200E-0001	
 1.24250000000000E+0003	 1.91562951144702E-0001	
 1.24450000000000E+0003	 1.90740848249204E-0001	
 1.24650000000000E+0003	 1.89614245353707E-0001	
 1.24850000000000E+0003	 1.88202642458209E-0001	
 1.25050000000000E+0003	 1.86553539562711E-0001	
 1.25250000000000E+0003	 1.84701436667213E-0001	
 1.25450000000000E+0003	 1.82712833771716E-0001	
 1.25650000000000E+0003	 1.80657230876218E-0001	
 1.25850000000000E+0003	 1.78586127980720E-0001	
 1.26050000000000E+0003	 1.76538025085222E-0001	
 1.26250000000000E+0003	 1.74540422189725E-0001	
 1.26450000000000E+0003	 1.72655819294227E-0001	
 1.26650000000000E+0003	 1.70888716398729E-0001	
 1.26850000000000E+0003	 1.69264613503232E-0001	
 1.27050000000000E+0003	 1.67765010607734E-0001	
 1.27250000000000E+0003	 1.66423907712236E-0001	
 1.27450000000000E+0003	 1.65222804816738E-0001	
 1.27650000000000E+0003	 1.64177701921241E-0001	
 1.27850000000000E+0003	 1.63260099025743E-0001	
 1.28050000000000E+0003	 1.62487496130245E-0001	
 1.28250000000000E+0003	 1.61745893234747E-0001	
 1.28450000000000E+0003	 1.60998790339250E-0001	
 1.28650000000000E+0003	 1.60279687443752E-0001	
 1.28850000000000E+0003	 1.59696584548254E-0001	
 1.29050000000000E+0003	 1.59303481652757E-0001	
 1.29250000000000E+0003	 1.59105378757259E-0001	
 1.29450000000000E+0003	 1.59059275861761E-0001	
 1.29650000000000E+0003	 1.59198172966263E-0001	
 1.29850000000000E+0003	 1.59564570070766E-0001	
 1.30050000000000E+0003	 1.60097467175268E-0001	
 1.30250000000000E+0003	 1.60688364279770E-0001	
 1.30450000000000E+0003	 1.61244261384272E-0001	
 1.30650000000000E+0003	 1.61749658488775E-0001	
 1.30850000000000E+0003	 1.62215555593277E-0001	
 1.31050000000000E+0003	 1.62608452697779E-0001	
 1.31250000000000E+0003	 1.62846349802282E-0001	
 1.31450000000000E+0003	 1.62906746906784E-0001	
 1.31650000000000E+0003	 1.62741644011286E-0001	
 1.31850000000000E+0003	 1.62369041115788E-0001	
 1.32050000000000E+0003	 1.61854938220291E-0001	
 1.32250000000000E+0003	 1.61335335324793E-0001	
 1.32450000000000E+0003	 1.60909232429295E-0001	
 1.32650000000000E+0003	 1.60653629533797E-0001	
 1.32850000000000E+0003	 1.60622526638300E-0001	
 1.33050000000000E+0003	 1.60827923742802E-0001	
 1.33250000000000E+0003	 1.61220320847304E-0001	
 1.33450000000000E+0003	 1.61621217951806E-0001	
 1.33650000000000E+0003	 1.61870115056309E-0001	
 1.33850000000000E+0003	 1.61937012160811E-0001	
 1.34050000000000E+0003	 1.61945909265313E-0001	
 1.34250000000000E+0003	 1.61895806369816E-0001	
 1.34450000000000E+0003	 1.61726203474318E-0001	
 1.34650000000000E+0003	 1.61444100578820E-0001	
 1.34850000000000E+0003	 1.61302997683322E-0001	
 1.35050000000000E+0003	 1.61421394787825E-0001	
 1.35250000000000E+0003	 1.61852791892327E-0001	
 1.35450000000000E+0003	 1.62551688996829E-0001	
 1.35650000000000E+0003	 1.63417586101331E-0001	
 1.35850000000000E+0003	 1.64265483205834E-0001	
 1.36050000000000E+0003	 1.65011380310336E-0001	
 1.36250000000000E+0003	 1.65961777414838E-0001	
 1.36450000000000E+0003	 1.67404674519341E-0001	
 1.36650000000000E+0003	 1.69263071623843E-0001	
 1.36850000000000E+0003	 1.71052968728345E-0001	
 1.37050000000000E+0003	 1.72247365832847E-0001	
 1.37250000000000E+0003	 1.73099762937350E-0001	
 1.37450000000000E+0003	 1.73931160041852E-0001	
 1.37650000000000E+0003	 1.74694057146354E-0001	
 1.37850000000000E+0003	 1.75343454250856E-0001	
 1.38050000000000E+0003	 1.75902351355359E-0001	
 1.38250000000000E+0003	 1.76516248459861E-0001	
 1.38450000000000E+0003	 1.76960645564363E-0001	
 1.38650000000000E+0003	 1.76918542668866E-0001	
 1.38850000000000E+0003	 1.77054439773368E-0001	
 1.39050000000000E+0003	 1.77892836877870E-0001	
 1.39250000000000E+0003	 1.78783733982372E-0001	
 1.39450000000000E+0003	 1.79599631086875E-0001	
 1.39650000000000E+0003	 1.80719028191377E-0001	
 1.39850000000000E+0003	 1.82028925295879E-0001	
 1.40050000000000E+0003	 1.83188322400381E-0001	
 1.40250000000000E+0003	 1.83950719504884E-0001	
 1.40450000000000E+0003	 1.84324116609386E-0001	
 1.40650000000000E+0003	 1.84255013713888E-0001	
 1.40850000000000E+0003	 1.84056410818391E-0001	
 1.41050000000000E+0003	 1.83717307922893E-0001	
 1.41250000000000E+0003	 1.83235205027395E-0001	
 1.41450000000000E+0003	 1.82651102131897E-0001	
 1.41650000000000E+0003	 1.81606499236400E-0001	
 1.41850000000000E+0003	 1.79896396340902E-0001	
 1.42050000000000E+0003	 1.78370793445404E-0001	
 1.42250000000000E+0003	 1.77938690549906E-0001	
 1.42450000000000E+0003	 1.77163087654409E-0001	
 1.42650000000000E+0003	 1.75640984758911E-0001	
 1.42850000000000E+0003	 1.74327381863413E-0001	
 1.43050000000000E+0003	 1.73345278967916E-0001	
 1.43250000000000E+0003	 1.72797176072418E-0001	
 1.43450000000000E+0003	 1.72425073176920E-0001	
 1.43650000000000E+0003	 1.72198470281422E-0001	
 1.43850000000000E+0003	 1.73117367385925E-0001	
 1.44050000000000E+0003	 1.74961764490427E-0001	
 1.44250000000000E+0003	 1.76362161594929E-0001	
 1.44450000000000E+0003	 1.77184058699431E-0001	
 1.44650000000000E+0003	 1.77918455803934E-0001	
 1.44850000000000E+0003	 1.78643852908436E-0001	
 1.45050000000000E+0003	 1.79398250012938E-0001	
 1.45250000000000E+0003	 1.80012147117441E-0001	
 1.45450000000000E+0003	 1.79260044221943E-0001	
 1.45650000000000E+0003	 1.76855941326445E-0001	
 1.45850000000000E+0003	 1.75000338430947E-0001	
 1.46050000000000E+0003	 1.74402235535450E-0001	
 1.46250000000000E+0003	 1.73113632639952E-0001	
 1.46450000000000E+0003	 1.70636029744454E-0001	
 1.46650000000000E+0003	 1.68032926848956E-0001	
 1.46850000000000E+0003	 1.65704323953459E-0001	
 1.47050000000000E+0003	 1.62301221057961E-0001	
 1.47250000000000E+0003	 1.57395618162463E-0001	
 1.47450000000000E+0003	 1.52984015266966E-0001	
 1.47650000000000E+0003	 1.50537412371468E-0001	
 1.47850000000000E+0003	 1.48724309475970E-0001	
 1.48050000000000E+0003	 1.47362206580472E-0001	
 1.48250000000000E+0003	 1.46413103684975E-0001	
 1.48450000000000E+0003	 1.45831000789477E-0001	
 1.48650000000000E+0003	 1.45739897893979E-0001	
 1.48850000000000E+0003	 1.46002294998481E-0001	
 1.49050000000000E+0003	 1.47052192102984E-0001	
 1.49250000000000E+0003	 1.48757589207486E-0001	
 1.49450000000000E+0003	 1.50600486311988E-0001	
 1.49650000000000E+0003	 1.52536383416491E-0001	
 1.49850000000000E+0003	 1.55406780520993E-0001	
 1.50050000000000E+0003	 1.58802177625495E-0001	
 1.50250000000000E+0003	 1.61966074729997E-0001	
 1.50450000000000E+0003	 1.63966971834500E-0001	
 1.50650000000000E+0003	 1.67269868939002E-0001	
 1.50850000000000E+0003	 1.72889766043504E-0001	
 1.51050000000000E+0003	 1.79511663148006E-0001	
 1.51250000000000E+0003	 1.86107060252509E-0001	
 1.51450000000000E+0003	 1.91953957357011E-0001	
 1.51650000000000E+0003	 1.97231854461513E-0001	
 1.51850000000000E+0003	 2.00945251566016E-0001	
 1.52050000000000E+0003	 2.03482148670518E-0001	
 1.52250000000000E+0003	 2.07624545775020E-0001	
 1.52450000000000E+0003	 2.12720442879522E-0001	
 1.52650000000000E+0003	 2.18330839984025E-0001	
 1.52850000000000E+0003	 2.23808737088527E-0001	
 1.53050000000000E+0003	 2.28650134193029E-0001	
 1.53250000000000E+0003	 2.33192531297531E-0001	
 1.53450000000000E+0003	 2.38066928402034E-0001	
 1.53650000000000E+0003	 2.41709325506536E-0001	
 1.53850000000000E+0003	 2.44267722611038E-0001	
 1.54050000000000E+0003	 2.47745619715540E-0001	
 1.54250000000000E+0003	 2.51587016820043E-0001	
 1.54450000000000E+0003	 2.55336913924545E-0001	
 1.54650000000000E+0003	 2.57651811029047E-0001	
 1.54850000000000E+0003	 2.58207208133550E-0001	
 1.55050000000000E+0003	 2.56860605238052E-0001	
 1.55250000000000E+0003	 2.53508502342554E-0001	
 1.55450000000000E+0003	 2.48706399447056E-0001	
 1.55650000000000E+0003	 2.42920796551559E-0001	
 1.55850000000000E+0003	 2.36076193656061E-0001	
 1.56050000000000E+0003	 2.28802590760563E-0001	
 1.56250000000000E+0003	 2.25850987865065E-0001	
 1.56450000000000E+0003	 2.24033884969568E-0001	
 1.56650000000000E+0003	 2.19996282074070E-0001	
 1.56850000000000E+0003	 2.15786179178572E-0001	
 1.57050000000000E+0003	 2.11619576283075E-0001	
 1.57250000000000E+0003	 2.08008973387577E-0001	
 1.57450000000000E+0003	 2.04334370492079E-0001	
 1.57650000000000E+0003	 1.99829267596581E-0001	
 1.57850000000000E+0003	 1.96867664701084E-0001	
 1.58050000000000E+0003	 1.95569561805586E-0001	
 1.58250000000000E+0003	 1.93570458910088E-0001	
 1.58450000000000E+0003	 1.91694356014590E-0001	
 1.58650000000000E+0003	 1.90433753119093E-0001	
 1.58850000000000E+0003	 1.90001650223595E-0001	
 1.59050000000000E+0003	 1.90286047328097E-0001	
 1.59250000000000E+0003	 1.91384944432600E-0001	
 1.59450000000000E+0003	 1.93097341537102E-0001	
 1.59650000000000E+0003	 1.95374738641604E-0001	
 1.59850000000000E+0003	 1.98004135746106E-0001	
 1.60050000000000E+0003	 2.01197032850609E-0001	
 1.60250000000000E+0003	 2.04848929955111E-0001	
 1.60450000000000E+0003	 2.09045327059613E-0001	
 1.60650000000000E+0003	 2.13708724164115E-0001	
 1.60850000000000E+0003	 2.19194621268618E-0001	
 1.61050000000000E+0003	 2.25381518373120E-0001	
 1.61250000000000E+0003	 2.32186415477622E-0001	
 1.61450000000000E+0003	 2.38635812582125E-0001	
 1.61650000000000E+0003	 2.46201209686627E-0001	
 1.61850000000000E+0003	 2.55701106791129E-0001	
 1.62050000000000E+0003	 2.65585003895631E-0001	
 1.62250000000000E+0003	 2.75961901000134E-0001	
 1.62450000000000E+0003	 2.87043298104636E-0001	
 1.62650000000000E+0003	 2.97894195209138E-0001	
 1.62850000000000E+0003	 3.09344092313640E-0001	
 1.63050000000000E+0003	 3.20243989418143E-0001	
 1.63250000000000E+0003	 3.29593386522645E-0001	
 1.63450000000000E+0003	 3.37844783627147E-0001	
 1.63650000000000E+0003	 3.46513680731650E-0001	
 1.63850000000000E+0003	 3.53711077836152E-0001	
 1.64050000000000E+0003	 3.59532974940654E-0001	
 1.64250000000000E+0003	 3.63758872045156E-0001	
 1.64450000000000E+0003	 3.66391269149659E-0001	
 1.64650000000000E+0003	 3.69601166254161E-0001	
 1.64850000000000E+0003	 3.73534563358663E-0001	
 1.65050000000000E+0003	 3.75599960463165E-0001	
 1.65250000000000E+0003	 3.76183357567668E-0001	
 1.65450000000000E+0003	 3.78117754672170E-0001	
 1.65650000000000E+0003	 3.80209151776672E-0001	
 1.65850000000000E+0003	 3.80641048881175E-0001	
 1.66050000000000E+0003	 3.77375445985677E-0001	
 1.66250000000000E+0003	 3.72077843090179E-0001	
 1.66450000000000E+0003	 3.65632740194681E-0001	
 1.66650000000000E+0003	 3.59527137299184E-0001	
 1.66850000000000E+0003	 3.52907534403686E-0001	
 1.67050000000000E+0003	 3.45590431508188E-0001	
 1.67250000000000E+0003	 3.38952328612690E-0001	
 1.67450000000000E+0003	 3.32672225717193E-0001	
 1.67650000000000E+0003	 3.25806622821695E-0001	
 1.67850000000000E+0003	 3.20187519926197E-0001	
 1.68050000000000E+0003	 3.14844917030700E-0001	
 1.68250000000000E+0003	 3.08211814135202E-0001	
 1.68450000000000E+0003	 3.00022211239704E-0001	
 1.68650000000000E+0003	 2.92711608344206E-0001	
 1.68850000000000E+0003	 2.88642505448709E-0001	
 1.69050000000000E+0003	 2.83132902553211E-0001	
 1.69250000000000E+0003	 2.76292799657713E-0001	
 1.69450000000000E+0003	 2.68522696762215E-0001	
 1.69650000000000E+0003	 2.59877093866718E-0001	
 1.69850000000000E+0003	 2.53181990971220E-0001	
 1.70050000000000E+0003	 2.47137888075722E-0001	
 1.70250000000000E+0003	 2.41727785180225E-0001	
 1.70450000000000E+0003	 2.39125182284727E-0001	
 1.70650000000000E+0003	 2.35431579389229E-0001	
 1.70850000000000E+0003	 2.31002476493731E-0001	
 1.71050000000000E+0003	 2.26945373598234E-0001	
 1.71250000000000E+0003	 2.22335270702736E-0001	
 1.71450000000000E+0003	 2.16794667807238E-0001	
 1.71650000000000E+0003	 2.09781564911740E-0001	
 1.71850000000000E+0003	 2.02631962016243E-0001	
 1.72050000000000E+0003	 1.97099859120745E-0001	
 1.72250000000000E+0003	 1.92444256225247E-0001	
 1.72450000000000E+0003	 1.86972653329749E-0001	
 1.72650000000000E+0003	 1.81673050434252E-0001	
 1.72850000000000E+0003	 1.77045947538754E-0001	
 1.73050000000000E+0003	 1.72736844643256E-0001	
 1.73250000000000E+0003	 1.67915241747759E-0001	
 1.73450000000000E+0003	 1.63481638852261E-0001	
 1.73650000000000E+0003	 1.61068535956763E-0001	
 1.73850000000000E+0003	 1.60548933061265E-0001	
 1.74050000000000E+0003	 1.59065330165768E-0001	
 1.74250000000000E+0003	 1.57182727270270E-0001	
 1.74450000000000E+0003	 1.55568124374772E-0001	
 1.74650000000000E+0003	 1.53633521479274E-0001	
 1.74850000000000E+0003	 1.51257918583777E-0001	
 1.75050000000000E+0003	 1.48056315688279E-0001	
 1.75250000000000E+0003	 1.44995212792781E-0001	
 1.75450000000000E+0003	 1.43017109897284E-0001	
 1.75650000000000E+0003	 1.40951007001786E-0001	
 1.75850000000000E+0003	 1.38263404106288E-0001	
 1.76050000000000E+0003	 1.35736801210790E-0001	
 1.76250000000000E+0003	 1.33423698315293E-0001	
 1.76450000000000E+0003	 1.31311095419795E-0001	
 1.76650000000000E+0003	 1.29567992524297E-0001	
 1.76850000000000E+0003	 1.27523389628799E-0001	
 1.77050000000000E+0003	 1.25605286733302E-0001	
 1.77250000000000E+0003	 1.23866183837804E-0001	
 1.77450000000000E+0003	 1.22366580942306E-0001	
 1.77650000000000E+0003	 1.21921978046809E-0001	
 1.77850000000000E+0003	 1.21256375151311E-0001	
 1.78050000000000E+0003	 1.20241272255813E-0001	
 1.78250000000000E+0003	 1.19054169360315E-0001	
 1.78450000000000E+0003	 1.17896066464818E-0001	
 1.78650000000000E+0003	 1.16965463569320E-0001	
 1.78850000000000E+0003	 1.16112360673822E-0001	
 1.79050000000000E+0003	 1.15083257778324E-0001	
 1.79250000000000E+0003	 1.13862154882827E-0001	
 1.79450000000000E+0003	 1.12899051987329E-0001	
 1.79650000000000E+0003	 1.12578449091831E-0001	
 1.79850000000000E+0003	 1.12131346196334E-0001	
 1.80050000000000E+0003	 1.11306743300836E-0001	
 1.80250000000000E+0003	 1.10426140405338E-0001	
 1.80450000000000E+0003	 1.09824537509840E-0001	
 1.80650000000000E+0003	 1.09350934614343E-0001	
 1.80850000000000E+0003	 1.08737831718845E-0001	
 1.81050000000000E+0003	 1.08131728823347E-0001	
 1.81250000000000E+0003	 1.07485125927849E-0001	
 1.81450000000000E+0003	 1.06891023032352E-0001	
 1.81650000000000E+0003	 1.06391420136854E-0001	
 1.81850000000000E+0003	 1.05848817241356E-0001	
 1.82050000000000E+0003	 1.05328214345859E-0001	
 1.82250000000000E+0003	 1.04751111450361E-0001	
 1.82450000000000E+0003	 1.04164508554863E-0001	
 1.82650000000000E+0003	 1.03517905659365E-0001	
 1.82850000000000E+0003	 1.03009302763868E-0001	
 1.83050000000000E+0003	 1.02708199868370E-0001	
 1.83250000000000E+0003	 1.02093596972872E-0001	
 1.83450000000000E+0003	 1.01883994077374E-0001	
 1.83650000000000E+0003	 1.01664391181877E-0001	
 1.83850000000000E+0003	 1.01280288286379E-0001	
 1.84050000000000E+0003	 1.00755685390881E-0001	
 1.84250000000000E+0003	 9.99815824953835E-0002	
 1.84450000000000E+0003	 9.92469795998858E-0002	
 1.84650000000000E+0003	 9.88453767043881E-0002	
 1.84850000000000E+0003	 9.90542738088903E-0002	
 1.85050000000000E+0003	 9.90716709133926E-0002	
 1.85250000000000E+0003	 9.88365680178949E-0002	
 1.85450000000000E+0003	 9.85659651223972E-0002	
 1.85650000000000E+0003	 9.82623622268994E-0002	
 1.85850000000000E+0003	 9.79652593314017E-0002	
 1.86050000000000E+0003	 9.76646564359040E-0002	
 1.86250000000000E+0003	 9.73845535404062E-0002	
 1.86450000000000E+0003	 9.70999506449085E-0002	
 1.86650000000000E+0003	 9.67593477494108E-0002	
 1.86850000000000E+0003	 9.64057448539131E-0002	
 1.87050000000000E+0003	 9.59741419584153E-0002	
 1.87250000000000E+0003	 9.58245390629176E-0002	
 1.87450000000000E+0003	 9.59149361674199E-0002	
 1.87650000000000E+0003	 9.57848332719222E-0002	
 1.87850000000000E+0003	 9.55727303764244E-0002	
 1.88050000000000E+0003	 9.53691274809267E-0002	
 1.88250000000000E+0003	 9.51690245854290E-0002	
 1.88450000000000E+0003	 9.49959216899312E-0002	
 1.88650000000000E+0003	 9.47468187944335E-0002	
 1.88850000000000E+0003	 9.45327158989358E-0002	
 1.89050000000000E+0003	 9.43451130034381E-0002	
 1.89250000000000E+0003	 9.40905101079403E-0002	
 1.89450000000000E+0003	 9.40369072124426E-0002	
 1.89650000000000E+0003	 9.39238043169449E-0002	
 1.89850000000000E+0003	 9.37447014214471E-0002	
 1.90050000000000E+0003	 9.36290985259494E-0002	
 1.90250000000000E+0003	 9.34904956304517E-0002	
 1.90450000000000E+0003	 9.33458927349540E-0002	
 1.90650000000000E+0003	 9.31857898394562E-0002	
 1.90850000000000E+0003	 9.30466869439585E-0002	
 1.91050000000000E+0003	 9.29245840484608E-0002	
 1.91250000000000E+0003	 9.27869811529630E-0002	
 1.91450000000000E+0003	 9.26508782574653E-0002	
 1.91650000000000E+0003	 9.24142753619676E-0002	
 1.91850000000000E+0003	 9.22201724664699E-0002	
 1.92050000000000E+0003	 9.20330695709721E-0002	
 1.92250000000000E+0003	 9.21389666754744E-0002	
 1.92450000000000E+0003	 9.21428637799767E-0002	
 1.92650000000000E+0003	 9.20567608844789E-0002	
 1.92850000000000E+0003	 9.20521579889812E-0002	
 1.93050000000000E+0003	 9.19925550934835E-0002	
 1.93250000000000E+0003	 9.19119521979858E-0002	
 1.93450000000000E+0003	 9.18363493024880E-0002	
 1.93650000000000E+0003	 9.17577464069903E-0002	
 1.93850000000000E+0003	 9.16751435114926E-0002	
 1.94050000000000E+0003	 9.15400406159948E-0002	
 1.94250000000000E+0003	 9.14829377204971E-0002	
 1.94450000000000E+0003	 9.13773348249994E-0002	
 1.94650000000000E+0003	 9.13617319295017E-0002	
 1.94850000000000E+0003	 9.13931290340039E-0002	
 1.95050000000000E+0003	 9.13555261385062E-0002	
 1.95250000000000E+0003	 9.13214232430085E-0002	
 1.95450000000000E+0003	 9.12818203475108E-0002	
 1.95650000000000E+0003	 9.12522174520130E-0002	
 1.95850000000000E+0003	 9.12116145565153E-0002	
 1.96050000000000E+0003	 9.11820116610176E-0002	
 1.96250000000000E+0003	 9.11489087655198E-0002	
 1.96450000000000E+0003	 9.10853058700221E-0002	
 1.96650000000000E+0003	 9.10457029745244E-0002	
 1.96850000000000E+0003	 9.10081000790267E-0002	
 1.97050000000000E+0003	 9.09719971835289E-0002	
 1.97250000000000E+0003	 9.10018942880312E-0002	
 1.97450000000000E+0003	 9.09942913925335E-0002	
 1.97650000000000E+0003	 9.09721884970357E-0002	
 1.97850000000000E+0003	 9.09455856015380E-0002	
 1.98050000000000E+0003	 9.09209827060403E-0002	
 1.98250000000000E+0003	 9.08973798105426E-0002	
 1.98450000000000E+0003	 9.08752769150448E-0002	
 1.98650000000000E+0003	 9.08481740195471E-0002	
 1.98850000000000E+0003	 9.08085711240494E-0002	
 1.99050000000000E+0003	 9.07474682285516E-0002	
 1.99250000000000E+0003	 9.07413653330539E-0002	
 1.99450000000000E+0003	 9.07212624375562E-0002	
 1.99650000000000E+0003	 9.07741595420585E-0002	
 1.99850000000000E+0003	 9.08325566465607E-0002	
 2.00050000000000E+0003	 9.08349537510630E-0002	
 2.00250000000000E+0003	 9.08423508555653E-0002	
 2.00450000000000E+0003	 9.08552479600675E-0002	
 2.00650000000000E+0003	 9.08726450645698E-0002	
 2.00850000000000E+0003	 9.08930421690721E-0002	
 2.01050000000000E+0003	 9.09194392735744E-0002	
 2.01250000000000E+0003	 9.09468363780766E-0002	
 2.01450000000000E+0003	 9.09602334825789E-0002	
 2.01650000000000E+0003	 9.09826305870812E-0002	
 2.01850000000000E+0003	 9.10105276915834E-0002	
 2.02050000000000E+0003	 9.10529247960857E-0002	
 2.02250000000000E+0003	 9.11383219005880E-0002	
 2.02450000000000E+0003	 9.12002190050903E-0002	
 2.02650000000000E+0003	 9.12541161095925E-0002	
 2.02850000000000E+0003	 9.13035132140948E-0002	
 2.03050000000000E+0003	 9.13519103185971E-0002	
 2.03250000000000E+0003	 9.13983074230994E-0002	
 2.03450000000000E+0003	 9.14462045276016E-0002	
 2.03650000000000E+0003	 9.14886016321039E-0002	
 2.03850000000000E+0003	 9.15214987366062E-0002	
 2.04050000000000E+0003	 9.15528958411084E-0002	
 2.04250000000000E+0003	 9.15912929456107E-0002	
 2.04450000000000E+0003	 9.16311900501130E-0002	
 2.04650000000000E+0003	 9.16810871546153E-0002	
 2.04850000000000E+0003	 9.17184842591175E-0002	
 2.05050000000000E+0003	 9.17498813636198E-0002	
 2.05250000000000E+0003	 9.17747784681221E-0002	
 2.05450000000000E+0003	 9.17976755726243E-0002	
 2.05650000000000E+0003	 9.18190726771266E-0002	
 2.05850000000000E+0003	 9.18399697816289E-0002	
 2.06050000000000E+0003	 9.18598668861312E-0002	
 2.06250000000000E+0003	 9.18612639906334E-0002	
 2.06450000000000E+0003	 9.18686610951357E-0002	
 2.06650000000000E+0003	 9.18800581996380E-0002	
 2.06850000000000E+0003	 9.18994553041402E-0002	
 2.07050000000000E+0003	 9.19308524086425E-0002	
 2.07250000000000E+0003	 9.19487495131448E-0002	
 2.07450000000000E+0003	 9.19591466176471E-0002	
 2.07650000000000E+0003	 9.19690437221493E-0002	
 2.07850000000000E+0003	 9.19754408266516E-0002	
 2.08050000000000E+0003	 9.19878379311539E-0002	
 2.08250000000000E+0003	 9.19917350356561E-0002	
 2.08450000000000E+0003	 9.19961321401584E-0002	
 2.08650000000000E+0003	 9.19965292446607E-0002	
 2.08850000000000E+0003	 9.19984263491630E-0002	
 2.09050000000000E+0003	 9.20008234536652E-0002	
 2.09250000000000E+0003	 9.20042205581675E-0002	
 2.09450000000000E+0003	 9.20091176626698E-0002	
 2.09650000000000E+0003	 9.20110147671720E-0002	
 2.09850000000000E+0003	 9.20059118716743E-0002	
 2.10050000000000E+0003	 9.19998089761766E-0002	
 2.10250000000000E+0003	 9.19927060806789E-0002	
 2.10450000000000E+0003	 9.19791031851811E-0002	
 2.10650000000000E+0003	 9.19650002896834E-0002	
 2.10850000000000E+0003	 9.19478973941857E-0002	
 2.11050000000000E+0003	 9.19352944986880E-0002	
 2.11250000000000E+0003	 9.19096916031902E-0002	
 2.11450000000000E+0003	 9.18835887076925E-0002	
 2.11650000000000E+0003	 9.18594858121948E-0002	
 2.11850000000000E+0003	 9.18438829166970E-0002	
 2.12050000000000E+0003	 9.18222800211993E-0002	
 2.12250000000000E+0003	 9.17991771257016E-0002	
 2.12450000000000E+0003	 9.17695742302039E-0002	
 2.12650000000000E+0003	 9.17454713347061E-0002	
 2.12850000000000E+0003	 9.17208684392084E-0002	
 2.13050000000000E+0003	 9.16942655437107E-0002	
 2.13250000000000E+0003	 9.16621626482129E-0002	
 2.13450000000000E+0003	 9.16350597527152E-0002	
 2.13650000000000E+0003	 9.16054568572175E-0002	
 2.13850000000000E+0003	 9.15703539617198E-0002	
 2.14050000000000E+0003	 9.15372510662220E-0002	
 2.14250000000000E+0003	 9.15071481707243E-0002	
 2.14450000000000E+0003	 9.14720452752266E-0002	
 2.14650000000000E+0003	 9.14339423797288E-0002	
 2.14850000000000E+0003	 9.13938394842311E-0002	
 2.15050000000000E+0003	 9.13502365887334E-0002	
 2.15250000000000E+0003	 9.13021336932357E-0002	
 2.15450000000000E+0003	 9.12470307977379E-0002	
 2.15650000000000E+0003	 9.11929279022402E-0002	
 2.15850000000000E+0003	 9.11388250067425E-0002	
 2.16050000000000E+0003	 9.10797221112447E-0002	
 2.16250000000000E+0003	 9.10171192157470E-0002	
 2.16450000000000E+0003	 9.09530163202493E-0002	
 2.16650000000000E+0003	 9.08889134247516E-0002	
 2.16850000000000E+0003	 9.08268105292538E-0002	
 2.17050000000000E+0003	 9.07542076337561E-0002	
 2.17250000000000E+0003	 9.06636047382584E-0002	
 2.17450000000000E+0003	 9.05810018427606E-0002	
 2.17650000000000E+0003	 9.05063989472629E-0002	
 2.17850000000000E+0003	 9.04297960517652E-0002	
 2.18050000000000E+0003	 9.03531931562675E-0002	
 2.18250000000000E+0003	 9.02800902607697E-0002	
 2.18450000000000E+0003	 9.02039873652720E-0002	
 2.18650000000000E+0003	 9.01248844697743E-0002	
 2.18850000000000E+0003	 9.00502815742766E-0002	
 2.19050000000000E+0003	 8.99806786787788E-0002	
 2.19250000000000E+0003	 8.99120757832811E-0002	
 2.19450000000000E+0003	 8.98394728877834E-0002	
 2.19650000000000E+0003	 8.97693699922856E-0002	
 2.19850000000000E+0003	 8.96952670967879E-0002	
 2.20050000000000E+0003	 8.96246642012902E-0002	
 2.20250000000000E+0003	 8.95545613057925E-0002	
 2.20450000000000E+0003	 8.94874584102947E-0002	
 2.20650000000000E+0003	 8.94148555147970E-0002	
 2.20850000000000E+0003	 8.93447526192993E-0002	
 2.21050000000000E+0003	 8.92751497238015E-0002	
 2.21250000000000E+0003	 8.92075468283038E-0002	
 2.21450000000000E+0003	 8.91384439328061E-0002	
 2.21650000000000E+0003	 8.90753410373084E-0002	
 2.21850000000000E+0003	 8.90107381418106E-0002	
 2.22050000000000E+0003	 8.89461352463129E-0002	
 2.22250000000000E+0003	 8.88785323508152E-0002	
 2.22450000000000E+0003	 8.88114294553174E-0002	
 2.22650000000000E+0003	 8.87483265598197E-0002	
 2.22850000000000E+0003	 8.86882236643220E-0002	
 2.23050000000000E+0003	 8.86336207688243E-0002	
 2.23250000000000E+0003	 8.85800178733265E-0002	
 2.23450000000000E+0003	 8.85279149778288E-0002	
 2.23650000000000E+0003	 8.84738120823311E-0002	
 2.23850000000000E+0003	 8.84222091868333E-0002	
 2.24050000000000E+0003	 8.83706062913356E-0002	
 2.24250000000000E+0003	 8.83185033958379E-0002	
 2.24450000000000E+0003	 8.82634005003402E-0002	
 2.24650000000000E+0003	 8.82157976048424E-0002	
 2.24850000000000E+0003	 8.81681947093447E-0002	
 2.25050000000000E+0003	 8.81235918138470E-0002	
 2.25250000000000E+0003	 8.80774889183492E-0002	
 2.25450000000000E+0003	 8.80318860228515E-0002	
 2.25650000000000E+0003	 8.79837831273538E-0002	
 2.25850000000000E+0003	 8.79401802318561E-0002	
 2.26050000000000E+0003	 8.78980773363583E-0002	
 2.26250000000000E+0003	 8.78544744408606E-0002	
 2.26450000000000E+0003	 8.78148715453629E-0002	
 2.26650000000000E+0003	 8.77812686498652E-0002	
 2.26850000000000E+0003	 8.77491657543674E-0002	
 2.27050000000000E+0003	 8.77125628588697E-0002	
 2.27250000000000E+0003	 8.76764599633720E-0002	
 2.27450000000000E+0003	 8.76413570678742E-0002	
 2.27650000000000E+0003	 8.76097541723765E-0002	
 2.27850000000000E+0003	 8.75751512768788E-0002	
 2.28050000000000E+0003	 8.75470483813811E-0002	
 2.28250000000000E+0003	 8.75229454858833E-0002	
 2.28450000000000E+0003	 8.75013425903856E-0002	
 2.28650000000000E+0003	 8.74632396948879E-0002	
 2.28850000000000E+0003	 8.74276367993901E-0002	
 2.29050000000000E+0003	 8.73970339038924E-0002	
 2.29250000000000E+0003	 8.73674310083947E-0002	
 2.29450000000000E+0003	 8.73328281128970E-0002	
 2.29650000000000E+0003	 8.72987252173992E-0002	
 2.29850000000000E+0003	 8.72696223219015E-0002	
 2.30050000000000E+0003	 8.72480194264038E-0002	
 2.30250000000000E+0003	 8.72394165309060E-0002	
 2.30450000000000E+0003	 8.72378136354083E-0002	
 2.30650000000000E+0003	 8.72227107399106E-0002	
 2.30850000000000E+0003	 8.72136078444129E-0002	
 2.31050000000000E+0003	 8.72265049489151E-0002	
 2.31250000000000E+0003	 8.72519020534174E-0002	
 2.31450000000000E+0003	 8.73047991579197E-0002	
 2.31650000000000E+0003	 8.73711962624219E-0002	
 2.31850000000000E+0003	 8.73820933669242E-0002	
 2.32050000000000E+0003	 8.73369904714265E-0002	
 2.32250000000000E+0003	 8.73128875759288E-0002	
 2.32450000000000E+0003	 8.73422846804310E-0002	
 2.32650000000000E+0003	 8.74381817849333E-0002	
 2.32850000000000E+0003	 8.74850788894356E-0002	
 2.33050000000000E+0003	 8.74434759939378E-0002	
 2.33250000000000E+0003	 8.75013730984401E-0002	
 2.33450000000000E+0003	 8.76947702029424E-0002	
 2.33650000000000E+0003	 8.78396673074447E-0002	
 2.33850000000000E+0003	 8.78920644119469E-0002	
 2.34050000000000E+0003	 8.78454615164492E-0002	
 2.34250000000000E+0003	 8.77123586209515E-0002	
 2.34450000000000E+0003	 8.74742557254538E-0002	
 2.34650000000000E+0003	 8.73691528299560E-0002	
 2.34850000000000E+0003	 8.79720499344583E-0002	
 2.35050000000000E+0003	 8.85034470389606E-0002	
 2.35250000000000E+0003	 8.81973441434628E-0002	
 2.35450000000000E+0003	 8.78747412479651E-0002	
 2.35650000000000E+0003	 8.78141383524674E-0002	
 2.35850000000000E+0003	 8.78155354569697E-0002	
 2.36050000000000E+0003	 8.78214325614719E-0002	
 2.36250000000000E+0003	 8.78238296659742E-0002	
 2.36450000000000E+0003	 8.77797267704765E-0002	
 2.36650000000000E+0003	 8.77431238749787E-0002	
 2.36850000000000E+0003	 8.77150209794810E-0002	
 2.37050000000000E+0003	 8.77049180839833E-0002	
 2.37250000000000E+0003	 8.77233151884856E-0002	
 2.37450000000000E+0003	 8.77737122929878E-0002	
 2.37650000000000E+0003	 8.78156093974901E-0002	
 2.37850000000000E+0003	 8.78450065019924E-0002	
 2.38050000000000E+0003	 8.78789036064946E-0002	
 2.38250000000000E+0003	 8.79428007109969E-0002	
 2.38450000000000E+0003	 8.80276978154992E-0002	
 2.38650000000000E+0003	 8.81155949200015E-0002	
 2.38850000000000E+0003	 8.81934920245037E-0002	
 2.39050000000000E+0003	 8.82608891290060E-0002	
 2.39250000000000E+0003	 8.83212862335083E-0002	
 2.39450000000000E+0003	 8.83836833380105E-0002	
 2.39650000000000E+0003	 8.84480804425128E-0002	
 2.39850000000000E+0003	 8.85154775470151E-0002	
 2.40050000000000E+0003	 8.85913746515174E-0002	
 2.40250000000000E+0003	 8.86722717560196E-0002	
 2.40450000000000E+0003	 8.87561688605219E-0002	
 2.40650000000000E+0003	 8.88390659650242E-0002	
 2.40850000000000E+0003	 8.89289630695264E-0002	
 2.41050000000000E+0003	 8.90218601740287E-0002	
 2.41250000000000E+0003	 8.91212572785310E-0002	
 2.41450000000000E+0003	 8.92191543830333E-0002	
 2.41650000000000E+0003	 8.93210514875355E-0002	
 2.41850000000000E+0003	 8.94279485920378E-0002	
 2.42050000000000E+0003	 8.95443456965401E-0002	
 2.42250000000000E+0003	 8.96577428010424E-0002	
 2.42450000000000E+0003	 8.97746399055446E-0002	
 2.42650000000000E+0003	 8.98950370100469E-0002	
 2.42850000000000E+0003	 9.00209341145492E-0002	
 2.43050000000000E+0003	 9.01478312190514E-0002	
 2.43250000000000E+0003	 9.02777283235537E-0002	
 2.43450000000000E+0003	 9.04096254280560E-0002	
 2.43650000000000E+0003	 9.05430225325583E-0002	
 2.43850000000000E+0003	 9.06754196370605E-0002	
 2.44050000000000E+0003	 9.08068167415628E-0002	
 2.44250000000000E+0003	 9.09407138460651E-0002	
 2.44450000000000E+0003	 9.10736109505673E-0002	
 2.44650000000000E+0003	 9.12095080550696E-0002	
 2.44850000000000E+0003	 9.13459051595719E-0002	
 2.45050000000000E+0003	 9.14833022640742E-0002	
 2.45250000000000E+0003	 9.16191993685764E-0002	
 2.45450000000000E+0003	 9.17610964730787E-0002	
 2.45650000000000E+0003	 9.19054935775810E-0002	
 2.45850000000000E+0003	 9.20548906820832E-0002	
 2.46050000000000E+0003	 9.22027877865855E-0002	
 2.46250000000000E+0003	 9.23591848910878E-0002	
 2.46450000000000E+0003	 9.25185819955901E-0002	
 2.46650000000000E+0003	 9.26769791000923E-0002	
 2.46850000000000E+0003	 9.28328762045946E-0002	
 2.47050000000000E+0003	 9.29932733090969E-0002	
 2.47250000000000E+0003	 9.31576704135991E-0002	
 2.47450000000000E+0003	 9.33225675181014E-0002	
 2.47650000000000E+0003	 9.34874646226037E-0002	
 2.47850000000000E+0003	 9.36523617271060E-0002	
 2.48050000000000E+0003	 9.38177588316082E-0002	
 2.48250000000000E+0003	 9.39786559361105E-0002	
 2.48450000000000E+0003	 9.41375530406128E-0002	
 2.48650000000000E+0003	 9.42964501451150E-0002	
 2.48850000000000E+0003	 9.44573472496173E-0002	
 2.49050000000000E+0003	 9.46152443541196E-0002	
 2.49250000000000E+0003	 9.47716414586219E-0002	
 2.49450000000000E+0003	 9.49270385631241E-0002	
 2.49650000000000E+0003	 9.50839356676264E-0002	
 2.49850000000000E+0003	 9.52398327721287E-0002	
 2.50050000000000E+0003	 9.53957298766309E-0002	
 2.50250000000000E+0003	 9.55451269811332E-0002	
 2.50450000000000E+0003	 9.56940240856355E-0002	
 2.50650000000000E+0003	 9.58479211901378E-0002	
 2.50850000000000E+0003	 9.60018182946400E-0002	
 2.51050000000000E+0003	 9.61507153991423E-0002	
 2.51250000000000E+0003	 9.62956125036446E-0002	
 2.51450000000000E+0003	 9.64375096081469E-0002	
 2.51650000000000E+0003	 9.65759067126491E-0002	
 2.51850000000000E+0003	 9.67138038171514E-0002	
 2.52050000000000E+0003	 9.68492009216537E-0002	
 2.52250000000000E+0003	 9.69865980261559E-0002	
 2.52450000000000E+0003	 9.71249951306582E-0002	
 2.52650000000000E+0003	 9.72648922351605E-0002	
 2.52850000000000E+0003	 9.74032893396628E-0002	
 2.53050000000000E+0003	 9.75441864441650E-0002	
 2.53250000000000E+0003	 9.76860835486673E-0002	
 2.53450000000000E+0003	 9.78264806531696E-0002	
 2.53650000000000E+0003	 9.79668777576718E-0002	
 2.53850000000000E+0003	 9.81092748621741E-0002	
 2.54050000000000E+0003	 9.82546719666764E-0002	
 2.54250000000000E+0003	 9.83995690711787E-0002	
 2.54450000000000E+0003	 9.85424661756809E-0002	
 2.54650000000000E+0003	 9.86843632801832E-0002	
 2.54850000000000E+0003	 9.88297603846855E-0002	
 2.55050000000000E+0003	 9.89751574891877E-0002	
 2.55250000000000E+0003	 9.91255545936900E-0002	
 2.55450000000000E+0003	 9.92764516981923E-0002	
 2.55650000000000E+0003	 9.94283488026946E-0002	
 2.55850000000000E+0003	 9.95802459071968E-0002	
 2.56050000000000E+0003	 9.97326430116991E-0002	
 2.56250000000000E+0003	 9.98840401162014E-0002	
 2.56450000000000E+0003	 1.00033937220704E-0001	
 2.56650000000000E+0003	 1.00184334325206E-0001	
 2.56850000000000E+0003	 1.00336731429708E-0001	
 2.57050000000000E+0003	 1.00493628534210E-0001	
 2.57250000000000E+0003	 1.00658525638713E-0001	
 2.57450000000000E+0003	 1.00832422743215E-0001	
 2.57650000000000E+0003	 1.01008819847717E-0001	
 2.57850000000000E+0003	 1.01189716952220E-0001	
 2.58050000000000E+0003	 1.01380114056722E-0001	
 2.58250000000000E+0003	 1.01575511161224E-0001	
 2.58450000000000E+0003	 1.01770908265726E-0001	
 2.58650000000000E+0003	 1.01973805370229E-0001	
 2.58850000000000E+0003	 1.02184202474731E-0001	
 2.59050000000000E+0003	 1.02399599579233E-0001	
 2.59250000000000E+0003	 1.02614496683735E-0001	
 2.59450000000000E+0003	 1.02834393788238E-0001	
 2.59650000000000E+0003	 1.03060290892740E-0001	
 2.59850000000000E+0003	 1.03289187997242E-0001	
 2.60050000000000E+0003	 1.03522085101745E-0001	
 2.60250000000000E+0003	 1.03760982206247E-0001	
 2.60450000000000E+0003	 1.04005379310749E-0001	
 2.60650000000000E+0003	 1.04251776415251E-0001	
 2.60850000000000E+0003	 1.04499673519754E-0001	
 2.61050000000000E+0003	 1.04748570624256E-0001	
 2.61250000000000E+0003	 1.05001467728758E-0001	
 2.61450000000000E+0003	 1.05257864833260E-0001	
 2.61650000000000E+0003	 1.05520261937763E-0001	
 2.61850000000000E+0003	 1.05782159042265E-0001	
 2.62050000000000E+0003	 1.06047056146767E-0001	
 2.62250000000000E+0003	 1.06314453251270E-0001	
 2.62450000000000E+0003	 1.06589350355772E-0001	
 2.62650000000000E+0003	 1.06862747460274E-0001	
 2.62850000000000E+0003	 1.07136144564776E-0001	
 2.63050000000000E+0003	 1.07411541669279E-0001	
 2.63250000000000E+0003	 1.07689938773781E-0001	
 2.63450000000000E+0003	 1.07970335878283E-0001	
 2.63650000000000E+0003	 1.08253232982785E-0001	
 2.63850000000000E+0003	 1.08540130087288E-0001	
 2.64050000000000E+0003	 1.08823527191790E-0001	
 2.64250000000000E+0003	 1.09108924296292E-0001	
 2.64450000000000E+0003	 1.09394821400795E-0001	
 2.64650000000000E+0003	 1.09682218505297E-0001	
 2.64850000000000E+0003	 1.09969615609799E-0001	
 2.65050000000000E+0003	 1.10260512714301E-0001	
 2.65250000000000E+0003	 1.10551909818804E-0001	
 2.65450000000000E+0003	 1.10846806923306E-0001	
 2.65650000000000E+0003	 1.11142204027808E-0001	
 2.65850000000000E+0003	 1.11439601132310E-0001	
 2.66050000000000E+0003	 1.11732498236813E-0001	
 2.66250000000000E+0003	 1.12027895341315E-0001	
 2.66450000000000E+0003	 1.12323792445817E-0001	
 2.66650000000000E+0003	 1.12623189550320E-0001	
 2.66850000000000E+0003	 1.12918586654822E-0001	
 2.67050000000000E+0003	 1.13216483759324E-0001	
 2.67250000000000E+0003	 1.13515380863826E-0001	
 2.67450000000000E+0003	 1.13813277968329E-0001	
 2.67650000000000E+0003	 1.14109175072831E-0001	
 2.67850000000000E+0003	 1.14409072177333E-0001	
 2.68050000000000E+0003	 1.14703469281835E-0001	
 2.68250000000000E+0003	 1.14985866386338E-0001	
 2.68450000000000E+0003	 1.15261763490840E-0001	
 2.68650000000000E+0003	 1.15543660595342E-0001	
 2.68850000000000E+0003	 1.15827557699844E-0001	
 2.69050000000000E+0003	 1.16108954804347E-0001	
 2.69250000000000E+0003	 1.16393351908849E-0001	
 2.69450000000000E+0003	 1.16680749013351E-0001	
 2.69650000000000E+0003	 1.16971646117854E-0001	
 2.69850000000000E+0003	 1.17264543222356E-0001	
 2.70050000000000E+0003	 1.17561440326858E-0001	
 2.70250000000000E+0003	 1.17866337431360E-0001	
 2.70450000000000E+0003	 1.18184234535863E-0001	
 2.70650000000000E+0003	 1.18510631640365E-0001	
 2.70850000000000E+0003	 1.18844028744867E-0001	
 2.71050000000000E+0003	 1.19185925849369E-0001	
 2.71250000000000E+0003	 1.19539822953872E-0001	
 2.71450000000000E+0003	 1.19906220058374E-0001	
 2.71650000000000E+0003	 1.20282117162876E-0001	
 2.71850000000000E+0003	 1.20659514267379E-0001	
 2.72050000000000E+0003	 1.21044411371881E-0001	
 2.72250000000000E+0003	 1.21437808476383E-0001	
 2.72450000000000E+0003	 1.21833705580885E-0001	
 2.72650000000000E+0003	 1.22230602685388E-0001	
 2.72850000000000E+0003	 1.22607499789890E-0001	
 2.73050000000000E+0003	 1.22974396894392E-0001	
 2.73250000000000E+0003	 1.23349293998894E-0001	
 2.73450000000000E+0003	 1.23726691103397E-0001	
 2.73650000000000E+0003	 1.24097588207899E-0001	
 2.73850000000000E+0003	 1.24457985312401E-0001	
 2.74050000000000E+0003	 1.24806382416904E-0001	
 2.74250000000000E+0003	 1.25151779521406E-0001	
 2.74450000000000E+0003	 1.25495676625908E-0001	
 2.74650000000000E+0003	 1.25848073730410E-0001	
 2.74850000000000E+0003	 1.26205970834913E-0001	
 2.75050000000000E+0003	 1.26547367939415E-0001	
 2.75250000000000E+0003	 1.26882265043917E-0001	
 2.75450000000000E+0003	 1.27231162148419E-0001	
 2.75650000000000E+0003	 1.27596059252922E-0001	
 2.75850000000000E+0003	 1.27964956357424E-0001	
 2.76050000000000E+0003	 1.28341353461926E-0001	
 2.76250000000000E+0003	 1.28729750566429E-0001	
 2.76450000000000E+0003	 1.29124647670931E-0001	
 2.76650000000000E+0003	 1.29524044775433E-0001	
 2.76850000000000E+0003	 1.29922941879935E-0001	
 2.77050000000000E+0003	 1.30327338984438E-0001	
 2.77250000000000E+0003	 1.30747736088940E-0001	
 2.77450000000000E+0003	 1.31188133193442E-0001	
 2.77650000000000E+0003	 1.31622030297944E-0001	
 2.77850000000000E+0003	 1.32049927402447E-0001	
 2.78050000000000E+0003	 1.32497824506949E-0001	
 2.78250000000000E+0003	 1.32968721611451E-0001	
 2.78450000000000E+0003	 1.33449118715954E-0001	
 2.78650000000000E+0003	 1.33944015820456E-0001	
 2.78850000000000E+0003	 1.34462912924958E-0001	
 2.79050000000000E+0003	 1.34984310029460E-0001	
 2.79250000000000E+0003	 1.35494707133963E-0001	
 2.79450000000000E+0003	 1.36022104238465E-0001	
 2.79650000000000E+0003	 1.36577501342967E-0001	
 2.79850000000000E+0003	 1.37145398447469E-0001	
 2.80050000000000E+0003	 1.37699795551972E-0001	
 2.80250000000000E+0003	 1.38259192656474E-0001	
 2.80450000000000E+0003	 1.38843089760976E-0001	
 2.80650000000000E+0003	 1.39440986865479E-0001	
 2.80850000000000E+0003	 1.40057383969981E-0001	
 2.81050000000000E+0003	 1.40690781074483E-0001	
 2.81250000000000E+0003	 1.41321178178985E-0001	
 2.81450000000000E+0003	 1.41958575283488E-0001	
 2.81650000000000E+0003	 1.42619972387990E-0001	
 2.81850000000000E+0003	 1.43302369492492E-0001	
 2.82050000000000E+0003	 1.44004266596994E-0001	
 2.82250000000000E+0003	 1.44727163701497E-0001	
 2.82450000000000E+0003	 1.45477560805999E-0001	
 2.82650000000000E+0003	 1.46257457910501E-0001	
 2.82850000000000E+0003	 1.47076855015004E-0001	
 2.83050000000000E+0003	 1.47949252119506E-0001	
 2.83250000000000E+0003	 1.48886649224008E-0001	
 2.83450000000000E+0003	 1.49906046328510E-0001	
 2.83650000000000E+0003	 1.51048443433013E-0001	
 2.83850000000000E+0003	 1.52370840537515E-0001	
 2.84050000000000E+0003	 1.53888237642017E-0001	
 2.84250000000000E+0003	 1.55709634746519E-0001	
 2.84450000000000E+0003	 1.57988531851022E-0001	
 2.84650000000000E+0003	 1.60755928955524E-0001	
 2.84850000000000E+0003	 1.63853826060026E-0001	
 2.85050000000000E+0003	 1.66912723164529E-0001	
 2.85250000000000E+0003	 1.69464120269031E-0001	
 2.85450000000000E+0003	 1.71172517373533E-0001	
 2.85650000000000E+0003	 1.72063914478035E-0001	
 2.85850000000000E+0003	 1.72492311582538E-0001	
 2.86050000000000E+0003	 1.72840208687040E-0001	
 2.86250000000000E+0003	 1.73374105791542E-0001	
 2.86450000000000E+0003	 1.74265502896044E-0001	
 2.86650000000000E+0003	 1.75525900000547E-0001	
 2.86850000000000E+0003	 1.77038297105049E-0001	
 2.87050000000000E+0003	 1.78644194209551E-0001	
 2.87250000000000E+0003	 1.80133591314054E-0001	
 2.87450000000000E+0003	 1.81226988418556E-0001	
 2.87650000000000E+0003	 1.81843885523058E-0001	
 2.87850000000000E+0003	 1.82173282627560E-0001	
 2.88050000000000E+0003	 1.82375679732063E-0001	
 2.88250000000000E+0003	 1.82567076836565E-0001	
 2.88450000000000E+0003	 1.82857973941067E-0001	
 2.88650000000000E+0003	 1.83305871045569E-0001	
 2.88850000000000E+0003	 1.83925768150072E-0001	
 2.89050000000000E+0003	 1.84703165254574E-0001	
 2.89250000000000E+0003	 1.85624062359076E-0001	
 2.89450000000000E+0003	 1.86684959463578E-0001	
 2.89650000000000E+0003	 1.87842856568081E-0001	
 2.89850000000000E+0003	 1.89056753672583E-0001	
 2.90050000000000E+0003	 1.90378650777085E-0001	
 2.90250000000000E+0003	 1.91854047881588E-0001	
 2.90450000000000E+0003	 1.93504444986090E-0001	
 2.90650000000000E+0003	 1.95358842090592E-0001	
 2.90850000000000E+0003	 1.97487239195094E-0001	
 2.91050000000000E+0003	 1.99954136299597E-0001	
 2.91250000000000E+0003	 2.02783033404099E-0001	
 2.91450000000000E+0003	 2.05884930508601E-0001	
 2.91650000000000E+0003	 2.09126827613103E-0001	
 2.91850000000000E+0003	 2.12381724717606E-0001	
 2.92050000000000E+0003	 2.15402621822108E-0001	
 2.92250000000000E+0003	 2.17948018926610E-0001	
 2.92450000000000E+0003	 2.19857916031113E-0001	
 2.92650000000000E+0003	 2.21108813135615E-0001	
 2.92850000000000E+0003	 2.21803710240117E-0001	
 2.93050000000000E+0003	 2.21980607344619E-0001	
 2.93250000000000E+0003	 2.21644504449122E-0001	
 2.93450000000000E+0003	 2.20889401553624E-0001	
 2.93650000000000E+0003	 2.19725298658126E-0001	
 2.93850000000000E+0003	 2.18155695762628E-0001	
 2.94050000000000E+0003	 2.16291592867131E-0001	
 2.94250000000000E+0003	 2.14338989971633E-0001	
 2.94450000000000E+0003	 2.12454887076135E-0001	
 2.94650000000000E+0003	 2.10768284180638E-0001	
 2.94850000000000E+0003	 2.09440181285140E-0001	
 2.95050000000000E+0003	 2.08650578389642E-0001	
 2.95250000000000E+0003	 2.08420975494144E-0001	
 2.95450000000000E+0003	 2.08507872598647E-0001	
 2.95650000000000E+0003	 2.08715769703149E-0001	
 2.95850000000000E+0003	 2.08862666807651E-0001	
 2.96050000000000E+0003	 2.08736063912153E-0001	
 2.96250000000000E+0003	 2.08197461016656E-0001	
 2.96450000000000E+0003	 2.07183358121158E-0001	
 2.96650000000000E+0003	 2.05729255225660E-0001	
 2.96850000000000E+0003	 2.03927152330163E-0001	
 2.97050000000000E+0003	 2.01983549434665E-0001	
 2.97250000000000E+0003	 2.00121946539167E-0001	
 2.97450000000000E+0003	 1.98345843643669E-0001	
 2.97650000000000E+0003	 1.96591740748172E-0001	
 2.97850000000000E+0003	 1.94922637852674E-0001	
 2.98050000000000E+0003	 1.93348034957176E-0001	
 2.98250000000000E+0003	 1.91815932061678E-0001	
 2.98450000000000E+0003	 1.90368829166181E-0001	
 2.98650000000000E+0003	 1.89075226270683E-0001	
 2.98850000000000E+0003	 1.87939623375185E-0001	
 2.99050000000000E+0003	 1.86984020479688E-0001	
 2.99250000000000E+0003	 1.86190417584190E-0001	
 2.99450000000000E+0003	 1.85499314688692E-0001	
 2.99650000000000E+0003	 1.84991711793194E-0001	
 2.99850000000000E+0003	 1.84694608897697E-0001	
 3.00050000000000E+0003	 1.84555506002199E-0001	
 3.00250000000000E+0003	 1.84605903106701E-0001	
 3.00450000000000E+0003	 1.84828300211203E-0001	
 3.00650000000000E+0003	 1.85179197315706E-0001	
 3.00850000000000E+0003	 1.85682094420208E-0001	
 3.01050000000000E+0003	 1.86358491524710E-0001	
 3.01250000000000E+0003	 1.87125888629213E-0001	
 3.01450000000000E+0003	 1.87893785733715E-0001	
 3.01650000000000E+0003	 1.88676682838217E-0001	
 3.01850000000000E+0003	 1.89557079942719E-0001	
 3.02050000000000E+0003	 1.90551977047222E-0001	
 3.02250000000000E+0003	 1.91648874151724E-0001	
 3.02450000000000E+0003	 1.92844771256226E-0001	
 3.02650000000000E+0003	 1.94062168360728E-0001	
 3.02850000000000E+0003	 1.95291065465231E-0001	
 3.03050000000000E+0003	 1.96556462569733E-0001	
 3.03250000000000E+0003	 1.97852859674235E-0001	
 3.03450000000000E+0003	 1.99161756778738E-0001	
 3.03650000000000E+0003	 2.00435653883240E-0001	
 3.03850000000000E+0003	 2.01733050987742E-0001	
 3.04050000000000E+0003	 2.03136948092244E-0001	
 3.04250000000000E+0003	 2.04575345196747E-0001	
 3.04450000000000E+0003	 2.05964242301249E-0001	
 3.04650000000000E+0003	 2.07324639405751E-0001	
 3.04850000000000E+0003	 2.08723536510253E-0001	
 3.05050000000000E+0003	 2.10191433614756E-0001	
 3.05250000000000E+0003	 2.11653330719258E-0001	
 3.05450000000000E+0003	 2.13095727823760E-0001	
 3.05650000000000E+0003	 2.14534124928263E-0001	
 3.05850000000000E+0003	 2.15923022032765E-0001	
 3.06050000000000E+0003	 2.17254419137267E-0001	
 3.06250000000000E+0003	 2.18547816241769E-0001	
 3.06450000000000E+0003	 2.19800713346272E-0001	
 3.06650000000000E+0003	 2.21012110450774E-0001	
 3.06850000000000E+0003	 2.22143007555276E-0001	
 3.07050000000000E+0003	 2.23187904659778E-0001	
 3.07250000000000E+0003	 2.24215801764281E-0001	
 3.07450000000000E+0003	 2.25251198868783E-0001	
 3.07650000000000E+0003	 2.26308095973285E-0001	
 3.07850000000000E+0003	 2.27368993077787E-0001	
 3.08050000000000E+0003	 2.28356390182290E-0001	
 3.08250000000000E+0003	 2.29289287286792E-0001	
 3.08450000000000E+0003	 2.30214184391294E-0001	
 3.08650000000000E+0003	 2.31098081495797E-0001	
 3.08850000000000E+0003	 2.31965478600299E-0001	
 3.09050000000000E+0003	 2.32837375704801E-0001	
 3.09250000000000E+0003	 2.33660772809303E-0001	
 3.09450000000000E+0003	 2.34463669913806E-0001	
 3.09650000000000E+0003	 2.35296567018308E-0001	
 3.09850000000000E+0003	 2.36160464122810E-0001	
 3.10050000000000E+0003	 2.37040361227312E-0001	
 3.10250000000000E+0003	 2.37910758331815E-0001	
 3.10450000000000E+0003	 2.38793155436317E-0001	
 3.10650000000000E+0003	 2.39742552540819E-0001	
 3.10850000000000E+0003	 2.40764949645322E-0001	
 3.11050000000000E+0003	 2.41781846749824E-0001	
 3.11250000000000E+0003	 2.42823243854326E-0001	
 3.11450000000000E+0003	 2.43990140958828E-0001	
 3.11650000000000E+0003	 2.45237038063331E-0001	
 3.11850000000000E+0003	 2.46482435167833E-0001	
 3.12050000000000E+0003	 2.47715832272335E-0001	
 3.12250000000000E+0003	 2.48929229376837E-0001	
 3.12450000000000E+0003	 2.50199126481340E-0001	
 3.12650000000000E+0003	 2.51577523585842E-0001	
 3.12850000000000E+0003	 2.53039420690344E-0001	
 3.13050000000000E+0003	 2.54526817794847E-0001	
 3.13250000000000E+0003	 2.56020714899349E-0001	
 3.13450000000000E+0003	 2.57568612003851E-0001	
 3.13650000000000E+0003	 2.59201009108353E-0001	
 3.13850000000000E+0003	 2.60902906212856E-0001	
 3.14050000000000E+0003	 2.62571303317358E-0001	
 3.14250000000000E+0003	 2.64192700421860E-0001	
 3.14450000000000E+0003	 2.65876597526362E-0001	
 3.14650000000000E+0003	 2.67638994630865E-0001	
 3.14850000000000E+0003	 2.69468891735367E-0001	
 3.15050000000000E+0003	 2.71411288839869E-0001	
 3.15250000000000E+0003	 2.73379185944372E-0001	
 3.15450000000000E+0003	 2.75218083048874E-0001	
 3.15650000000000E+0003	 2.77037980153376E-0001	
 3.15850000000000E+0003	 2.78956377257878E-0001	
 3.16050000000000E+0003	 2.80940774362381E-0001	
 3.16250000000000E+0003	 2.82954171466883E-0001	
 3.16450000000000E+0003	 2.84988568571385E-0001	
 3.16650000000000E+0003	 2.87040465675887E-0001	
 3.16850000000000E+0003	 2.89099862780390E-0001	
 3.17050000000000E+0003	 2.91168759884892E-0001	
 3.17250000000000E+0003	 2.93245656989394E-0001	
 3.17450000000000E+0003	 2.95323554093897E-0001	
 3.17650000000000E+0003	 2.97398451198399E-0001	
 3.17850000000000E+0003	 2.99478348302901E-0001	
 3.18050000000000E+0003	 3.01551245407403E-0001	
 3.18250000000000E+0003	 3.03604142511906E-0001	
 3.18450000000000E+0003	 3.05649539616408E-0001	
 3.18650000000000E+0003	 3.07687436720910E-0001	
 3.18850000000000E+0003	 3.09706833825412E-0001	
 3.19050000000000E+0003	 3.11696230929915E-0001	
 3.19250000000000E+0003	 3.13656628034417E-0001	
 3.19450000000000E+0003	 3.15589025138919E-0001	
 3.19650000000000E+0003	 3.17498922243422E-0001	
 3.19850000000000E+0003	 3.19394319347924E-0001	
 3.20050000000000E+0003	 3.21274216452426E-0001	
 3.20250000000000E+0003	 3.23129613556928E-0001	
 3.20450000000000E+0003	 3.24963010661431E-0001	
 3.20650000000000E+0003	 3.26777407765933E-0001	
 3.20850000000000E+0003	 3.28570804870435E-0001	
 3.21050000000000E+0003	 3.30357701974937E-0001	
 3.21250000000000E+0003	 3.32151099079440E-0001	
 3.21450000000000E+0003	 3.33941996183942E-0001	
 3.21650000000000E+0003	 3.35721393288444E-0001	
 3.21850000000000E+0003	 3.37503290392947E-0001	
 3.22050000000000E+0003	 3.39283687497449E-0001	
 3.22250000000000E+0003	 3.41053084601951E-0001	
 3.22450000000000E+0003	 3.42836481706453E-0001	
 3.22650000000000E+0003	 3.44641378810956E-0001	
 3.22850000000000E+0003	 3.46480275915458E-0001	
 3.23050000000000E+0003	 3.48395673019960E-0001	
 3.23250000000000E+0003	 3.50391570124462E-0001	
 3.23450000000000E+0003	 3.52300967228965E-0001	
 3.23650000000000E+0003	 3.54109864333467E-0001	
 3.23850000000000E+0003	 3.55994261437969E-0001	
 3.24050000000000E+0003	 3.57975158542472E-0001	
 3.24250000000000E+0003	 3.60013055646974E-0001	
 3.24450000000000E+0003	 3.62132952751476E-0001	
 3.24650000000000E+0003	 3.64308349855978E-0001	
 3.24850000000000E+0003	 3.66432746960481E-0001	
 3.25050000000000E+0003	 3.68532644064983E-0001	
 3.25250000000000E+0003	 3.70710541169485E-0001	
 3.25450000000000E+0003	 3.72975438273987E-0001	
 3.25650000000000E+0003	 3.75245335378490E-0001	
 3.25850000000000E+0003	 3.77472732482992E-0001	
 3.26050000000000E+0003	 3.79709629587494E-0001	
 3.26250000000000E+0003	 3.81958526691997E-0001	
 3.26450000000000E+0003	 3.84193923796499E-0001	
 3.26650000000000E+0003	 3.86404320901001E-0001	
 3.26850000000000E+0003	 3.88622718005503E-0001	
 3.27050000000000E+0003	 3.90810615110006E-0001	
 3.27250000000000E+0003	 3.92836012214508E-0001	
 3.27450000000000E+0003	 3.94724409319010E-0001	
 3.27650000000000E+0003	 3.96562306423512E-0001	
 3.27850000000000E+0003	 3.98329703528015E-0001	
 3.28050000000000E+0003	 4.00025100632517E-0001	
 3.28250000000000E+0003	 4.01643497737019E-0001	
 3.28450000000000E+0003	 4.03175394841521E-0001	
 3.28650000000000E+0003	 4.04611291946024E-0001	
 3.28850000000000E+0003	 4.05970689050526E-0001	
 3.29050000000000E+0003	 4.07282586155028E-0001	
 3.29250000000000E+0003	 4.08515983259531E-0001	
 3.29450000000000E+0003	 4.09616880364033E-0001	
 3.29650000000000E+0003	 4.10611777468535E-0001	
 3.29850000000000E+0003	 4.11521174573037E-0001	
 3.30050000000000E+0003	 4.12386571677540E-0001	
 3.30250000000000E+0003	 4.13265468782042E-0001	
 3.30450000000000E+0003	 4.14175865886544E-0001	
 3.30650000000000E+0003	 4.14993262991046E-0001	
 3.30850000000000E+0003	 4.15652160095549E-0001	
 3.31050000000000E+0003	 4.16229557200051E-0001	
 3.31250000000000E+0003	 4.16815454304553E-0001	
 3.31450000000000E+0003	 4.17439351409056E-0001	
 3.31650000000000E+0003	 4.18071748513558E-0001	
 3.31850000000000E+0003	 4.18700145618060E-0001	
 3.32050000000000E+0003	 4.19347042722562E-0001	
 3.32250000000000E+0003	 4.20014439827065E-0001	
 3.32450000000000E+0003	 4.20717836931567E-0001	
 3.32650000000000E+0003	 4.21405234036069E-0001	
 3.32850000000000E+0003	 4.22046131140571E-0001	
 3.33050000000000E+0003	 4.22705528245074E-0001	
 3.33250000000000E+0003	 4.23419925349576E-0001	
 3.33450000000000E+0003	 4.24173822454078E-0001	
 3.33650000000000E+0003	 4.24991719558581E-0001	
 3.33850000000000E+0003	 4.25818616663083E-0001	
 3.34050000000000E+0003	 4.26574513767585E-0001	
 3.34250000000000E+0003	 4.27316410872087E-0001	
 3.34450000000000E+0003	 4.28075307976590E-0001	
 3.34650000000000E+0003	 4.28845705081092E-0001	
 3.34850000000000E+0003	 4.29711102185594E-0001	
 3.35050000000000E+0003	 4.30601499290096E-0001	
 3.35250000000000E+0003	 4.31369396394599E-0001	
 3.35450000000000E+0003	 4.32085793499101E-0001	
 3.35650000000000E+0003	 4.32873190603603E-0001	
 3.35850000000000E+0003	 4.33715087708106E-0001	
 3.36050000000000E+0003	 4.34559984812608E-0001	
 3.36250000000000E+0003	 4.35365381917110E-0001	
 3.36450000000000E+0003	 4.36219279021612E-0001	
 3.36650000000000E+0003	 4.37177176126115E-0001	
 3.36850000000000E+0003	 4.38105573230617E-0001	
 3.37050000000000E+0003	 4.38825970335119E-0001	
 3.37250000000000E+0003	 4.39419867439621E-0001	
 3.37450000000000E+0003	 4.40099264544124E-0001	
 3.37650000000000E+0003	 4.40859161648626E-0001	
 3.37850000000000E+0003	 4.41606558753128E-0001	
 3.38050000000000E+0003	 4.42329955857631E-0001	
 3.38250000000000E+0003	 4.43017352962133E-0001	
 3.38450000000000E+0003	 4.43697250066635E-0001	
 3.38650000000000E+0003	 4.44399147171137E-0001	
 3.38850000000000E+0003	 4.45197544275640E-0001	
 3.39050000000000E+0003	 4.46087441380142E-0001	
 3.39250000000000E+0003	 4.46794338484644E-0001	
 3.39450000000000E+0003	 4.47250235589146E-0001	
 3.39650000000000E+0003	 4.47794132693649E-0001	
 3.39850000000000E+0003	 4.48596529798151E-0001	
 3.40050000000000E+0003	 4.49369926902653E-0001	
 3.40250000000000E+0003	 4.49745324007156E-0001	
 3.40450000000000E+0003	 4.49949221111658E-0001	
 3.40650000000000E+0003	 4.50336618216160E-0001	
 3.40850000000000E+0003	 4.50845015320662E-0001	
 3.41050000000000E+0003	 4.51288912425165E-0001	
 3.41250000000000E+0003	 4.51650809529667E-0001	
 3.41450000000000E+0003	 4.51886706634169E-0001	
 3.41650000000000E+0003	 4.52060103738671E-0001	
 3.41850000000000E+0003	 4.52267500843174E-0001	
 3.42050000000000E+0003	 4.52470397947676E-0001	
 3.42250000000000E+0003	 4.52592795052178E-0001	
 3.42450000000000E+0003	 4.52678692156681E-0001	
 3.42650000000000E+0003	 4.52790089261183E-0001	
 3.42850000000000E+0003	 4.52915486365685E-0001	
 3.43050000000000E+0003	 4.52928383470187E-0001	
 3.43250000000000E+0003	 4.52885780574690E-0001	
 3.43450000000000E+0003	 4.52881677679192E-0001	
 3.43650000000000E+0003	 4.52693074783694E-0001	
 3.43850000000000E+0003	 4.52210471888196E-0001	
 3.44050000000000E+0003	 4.51677368992699E-0001	
 3.44250000000000E+0003	 4.51241766097201E-0001	
 3.44450000000000E+0003	 4.50842663201703E-0001	
 3.44650000000000E+0003	 4.50422060306206E-0001	
 3.44850000000000E+0003	 4.49920457410708E-0001	
 3.45050000000000E+0003	 4.49342854515210E-0001	
 3.45250000000000E+0003	 4.48750751619712E-0001	
 3.45450000000000E+0003	 4.48118148724215E-0001	
 3.45650000000000E+0003	 4.47481545828717E-0001	
 3.45850000000000E+0003	 4.46870942933219E-0001	
 3.46050000000000E+0003	 4.46164840037721E-0001	
 3.46250000000000E+0003	 4.45322737142224E-0001	
 3.46450000000000E+0003	 4.44597134246726E-0001	
 3.46650000000000E+0003	 4.44046031351228E-0001	
 3.46850000000000E+0003	 4.43293428455730E-0001	
 3.47050000000000E+0003	 4.42071825560233E-0001	
 3.47250000000000E+0003	 4.40706722664735E-0001	
 3.47450000000000E+0003	 4.39531119769237E-0001	
 3.47650000000000E+0003	 4.38532516873740E-0001	
 3.47850000000000E+0003	 4.37601913978242E-0001	
 3.48050000000000E+0003	 4.36477311082744E-0001	
 3.48250000000000E+0003	 4.35131208187246E-0001	
 3.48450000000000E+0003	 4.33888105291749E-0001	
 3.48650000000000E+0003	 4.32722002396251E-0001	
 3.48850000000000E+0003	 4.31437399500753E-0001	
 3.49050000000000E+0003	 4.30094796605255E-0001	
 3.49250000000000E+0003	 4.28813193709758E-0001	
 3.49450000000000E+0003	 4.27562590814260E-0001	
 3.49650000000000E+0003	 4.26280987918762E-0001	
 3.49850000000000E+0003	 4.24917385023265E-0001	
 3.50050000000000E+0003	 4.23588782127767E-0001	
 3.50250000000000E+0003	 4.22232179232269E-0001	
 3.50450000000000E+0003	 4.20609576336771E-0001	
 3.50650000000000E+0003	 4.18914973441274E-0001	
 3.50850000000000E+0003	 4.17363370545776E-0001	
 3.51050000000000E+0003	 4.15909267650278E-0001	
 3.51250000000000E+0003	 4.14512664754780E-0001	
 3.51450000000000E+0003	 4.12998061859283E-0001	
 3.51650000000000E+0003	 4.11321958963785E-0001	
 3.51850000000000E+0003	 4.09660856068287E-0001	
 3.52050000000000E+0003	 4.08118753172790E-0001	
 3.52250000000000E+0003	 4.06671150277292E-0001	
 3.52450000000000E+0003	 4.05023547381794E-0001	
 3.52650000000000E+0003	 4.03128444486296E-0001	
 3.52850000000000E+0003	 4.01286341590799E-0001	
 3.53050000000000E+0003	 3.99531738695301E-0001	
 3.53250000000000E+0003	 3.97824135799803E-0001	
 3.53450000000000E+0003	 3.96188532904305E-0001	
 3.53650000000000E+0003	 3.94453430008808E-0001	
 3.53850000000000E+0003	 3.92495327113310E-0001	
 3.54050000000000E+0003	 3.90623224217812E-0001	
 3.54250000000000E+0003	 3.88936121322315E-0001	
 3.54450000000000E+0003	 3.87139518426817E-0001	
 3.54650000000000E+0003	 3.84961415531319E-0001	
 3.54850000000000E+0003	 3.82623812635821E-0001	
 3.55050000000000E+0003	 3.80455209740324E-0001	
 3.55250000000000E+0003	 3.78321106844826E-0001	
 3.55450000000000E+0003	 3.76106503949328E-0001	
 3.55650000000000E+0003	 3.73922901053830E-0001	
 3.55850000000000E+0003	 3.71772798158333E-0001	
 3.56050000000000E+0003	 3.69592695262835E-0001	
 3.56250000000000E+0003	 3.67299592367337E-0001	
 3.56450000000000E+0003	 3.64908989471840E-0001	
 3.56650000000000E+0003	 3.62489886576342E-0001	
 3.56850000000000E+0003	 3.60091783680844E-0001	
 3.57050000000000E+0003	 3.57674680785346E-0001	
 3.57250000000000E+0003	 3.55189077889849E-0001	
 3.57450000000000E+0003	 3.52661474994351E-0001	
 3.57650000000000E+0003	 3.50143372098853E-0001	
 3.57850000000000E+0003	 3.47647769203355E-0001	
 3.58050000000000E+0003	 3.45192166307858E-0001	
 3.58250000000000E+0003	 3.42779563412360E-0001	
 3.58450000000000E+0003	 3.40330460516862E-0001	
 3.58650000000000E+0003	 3.37577857621365E-0001	
 3.58850000000000E+0003	 3.34557254725867E-0001	
 3.59050000000000E+0003	 3.31714151830369E-0001	
 3.59250000000000E+0003	 3.29055048934871E-0001	
 3.59450000000000E+0003	 3.26299446039374E-0001	
 3.59650000000000E+0003	 3.23524843143876E-0001	
 3.59850000000000E+0003	 3.20824240248378E-0001	
 3.60050000000000E+0003	 3.18058137352880E-0001	
 3.60250000000000E+0003	 3.15243534457383E-0001	
 3.60450000000000E+0003	 3.12465931561885E-0001	
 3.60650000000000E+0003	 3.09616828666387E-0001	
 3.60850000000000E+0003	 3.06669725770890E-0001	
 3.61050000000000E+0003	 3.03744122875392E-0001	
 3.61250000000000E+0003	 3.00932019979894E-0001	
 3.61450000000000E+0003	 2.98145917084396E-0001	
 3.61650000000000E+0003	 2.95320814188899E-0001	
 3.61850000000000E+0003	 2.92490211293401E-0001	
 3.62050000000000E+0003	 2.89607608397903E-0001	
 3.62250000000000E+0003	 2.86705005502405E-0001	
 3.62450000000000E+0003	 2.83929402606908E-0001	
 3.62650000000000E+0003	 2.81144299711410E-0001	
 3.62850000000000E+0003	 2.78154696815912E-0001	
 3.63050000000000E+0003	 2.75084593920415E-0001	
 3.63250000000000E+0003	 2.72299491024917E-0001	
 3.63450000000000E+0003	 2.69659388129419E-0001	
 3.63650000000000E+0003	 2.66902285233921E-0001	
 3.63850000000000E+0003	 2.64166682338424E-0001	
 3.64050000000000E+0003	 2.61450079442926E-0001	
 3.64250000000000E+0003	 2.58795476547428E-0001	
 3.64450000000000E+0003	 2.56207373651930E-0001	
 3.64650000000000E+0003	 2.53646270756433E-0001	
 3.64850000000000E+0003	 2.50993167860935E-0001	
 3.65050000000000E+0003	 2.48340564965437E-0001	
 3.65250000000000E+0003	 2.45762462069940E-0001	
 3.65450000000000E+0003	 2.43291859174442E-0001	
 3.65650000000000E+0003	 2.40925256278944E-0001	
 3.65850000000000E+0003	 2.38598153383446E-0001	
 3.66050000000000E+0003	 2.36328050487949E-0001	
 3.66250000000000E+0003	 2.33982947592451E-0001	
 3.66450000000000E+0003	 2.31707844696953E-0001	
 3.66650000000000E+0003	 2.29616241801455E-0001	
 3.66850000000000E+0003	 2.27531638905958E-0001	
 3.67050000000000E+0003	 2.25492036010460E-0001	
 3.67250000000000E+0003	 2.23548433114962E-0001	
 3.67450000000000E+0003	 2.21720330219464E-0001	
 3.67650000000000E+0003	 2.19864727323967E-0001	
 3.67850000000000E+0003	 2.18060124428469E-0001	
 3.68050000000000E+0003	 2.16487021532971E-0001	
 3.68250000000000E+0003	 2.14939918637474E-0001	
 3.68450000000000E+0003	 2.13525815741976E-0001	
 3.68650000000000E+0003	 2.12220212846478E-0001	
 3.68850000000000E+0003	 2.10899109950980E-0001	
 3.69050000000000E+0003	 2.09389507055483E-0001	
 3.69250000000000E+0003	 2.07955404159985E-0001	
 3.69450000000000E+0003	 2.06714301264487E-0001	
 3.69650000000000E+0003	 2.05575198368989E-0001	
 3.69850000000000E+0003	 2.04437095473492E-0001	
 3.70050000000000E+0003	 2.03340492577994E-0001	
 3.70250000000000E+0003	 2.02326889682496E-0001	
 3.70450000000000E+0003	 2.01344786786999E-0001	
 3.70650000000000E+0003	 2.00418183891501E-0001	
 3.70850000000000E+0003	 1.99518080996003E-0001	
 3.71050000000000E+0003	 1.98614978100505E-0001	
 3.71250000000000E+0003	 1.97822875205008E-0001	
 3.71450000000000E+0003	 1.97103772309510E-0001	
 3.71650000000000E+0003	 1.96387169414012E-0001	
 3.71850000000000E+0003	 1.95642566518514E-0001	
 3.72050000000000E+0003	 1.94880963623017E-0001	
 3.72250000000000E+0003	 1.94196860727519E-0001	
 3.72450000000000E+0003	 1.93508257832021E-0001	
 3.72650000000000E+0003	 1.92846154936524E-0001	
 3.72850000000000E+0003	 1.92195052041026E-0001	
 3.73050000000000E+0003	 1.91585449145528E-0001	
 3.73250000000000E+0003	 1.91092846250030E-0001	
 3.73450000000000E+0003	 1.90567743354533E-0001	
 3.73650000000000E+0003	 1.90065140459035E-0001	
 3.73850000000000E+0003	 1.89511537563537E-0001	
 3.74050000000000E+0003	 1.89025934668039E-0001	
 3.74250000000000E+0003	 1.88431831772542E-0001	
 3.74450000000000E+0003	 1.87924728877044E-0001	
 3.74650000000000E+0003	 1.87385625981546E-0001	
 3.74850000000000E+0003	 1.86856023086049E-0001	
 3.75050000000000E+0003	 1.86375420190551E-0001	
 3.75250000000000E+0003	 1.85948817295053E-0001	
 3.75450000000000E+0003	 1.85535714399555E-0001	
 3.75650000000000E+0003	 1.85117111504058E-0001	
 3.75850000000000E+0003	 1.84705008608560E-0001	
 3.76050000000000E+0003	 1.84328405713062E-0001	
 3.76250000000000E+0003	 1.83918302817564E-0001	
 3.76450000000000E+0003	 1.83533199922067E-0001	
 3.76650000000000E+0003	 1.83178097026569E-0001	
 3.76850000000000E+0003	 1.82774494131071E-0001	
 3.77050000000000E+0003	 1.82438891235574E-0001	
 3.77250000000000E+0003	 1.82066288340076E-0001	
 3.77450000000000E+0003	 1.81727685444578E-0001	
 3.77650000000000E+0003	 1.81406082549080E-0001	
 3.77850000000000E+0003	 1.81105979653583E-0001	
 3.78050000000000E+0003	 1.80800876758085E-0001	
 3.78250000000000E+0003	 1.80401773862587E-0001	
 3.78450000000000E+0003	 1.80060170967089E-0001	
 3.78650000000000E+0003	 1.79767068071592E-0001	
 3.78850000000000E+0003	 1.79488965176094E-0001	
 3.79050000000000E+0003	 1.79213362280596E-0001	
 3.79250000000000E+0003	 1.78923759385099E-0001	
 3.79450000000000E+0003	 1.78586656489601E-0001	
 3.79650000000000E+0003	 1.78338053594103E-0001	
 3.79850000000000E+0003	 1.78052450698605E-0001	
 3.80050000000000E+0003	 1.77724847803108E-0001	
 3.80250000000000E+0003	 1.77535744907610E-0001	
 3.80450000000000E+0003	 1.77224142012112E-0001	
 3.80650000000000E+0003	 1.76997039116614E-0001	
 3.80850000000000E+0003	 1.76774436221117E-0001	
 3.81050000000000E+0003	 1.76531333325619E-0001	
 3.81250000000000E+0003	 1.76344230430121E-0001	
 3.81450000000000E+0003	 1.76079627534624E-0001	
 3.81650000000000E+0003	 1.75916524639126E-0001	
 3.81850000000000E+0003	 1.75636421743628E-0001	
 3.82050000000000E+0003	 1.75424818848130E-0001	
 3.82250000000000E+0003	 1.75269215952633E-0001	
 3.82450000000000E+0003	 1.74974113057135E-0001	
 3.82650000000000E+0003	 1.74797010161637E-0001	
 3.82850000000000E+0003	 1.74610907266139E-0001	
 3.83050000000000E+0003	 1.74414304370642E-0001	
 3.83250000000000E+0003	 1.74289701475144E-0001	
 3.83450000000000E+0003	 1.74188098579646E-0001	
 3.83650000000000E+0003	 1.74029495684149E-0001	
 3.83850000000000E+0003	 1.73787392788651E-0001	
 3.84050000000000E+0003	 1.73545789893153E-0001	
 3.84250000000000E+0003	 1.73379686997655E-0001	
 3.84450000000000E+0003	 1.73265084102158E-0001	
 3.84650000000000E+0003	 1.73107481206660E-0001	
 3.84850000000000E+0003	 1.72979378311162E-0001	
 3.85050000000000E+0003	 1.72842775415664E-0001	
 3.85250000000000E+0003	 1.72641672520167E-0001	
 3.85450000000000E+0003	 1.72515569624669E-0001	
 3.85650000000000E+0003	 1.72316466729171E-0001	
 3.85850000000000E+0003	 1.72172863833673E-0001	
 3.86050000000000E+0003	 1.72057260938176E-0001	
 3.86250000000000E+0003	 1.71911158042678E-0001	
 3.86450000000000E+0003	 1.71821555147180E-0001	
 3.86650000000000E+0003	 1.71727952251683E-0001	
 3.86850000000000E+0003	 1.71551349356185E-0001	
 3.87050000000000E+0003	 1.71474746460687E-0001	
 3.87250000000000E+0003	 1.71285143565189E-0001	
 3.87450000000000E+0003	 1.71211040669692E-0001	
 3.87650000000000E+0003	 1.71117937774194E-0001	
 3.87850000000000E+0003	 1.70975834878696E-0001	
 3.88050000000000E+0003	 1.70944231983198E-0001	
 3.88250000000000E+0003	 1.70876629087701E-0001	
 3.88450000000000E+0003	 1.70777526192203E-0001	
 3.88650000000000E+0003	 1.70717923296705E-0001	
 3.88850000000000E+0003	 1.70521320401208E-0001	
 3.89050000000000E+0003	 1.70420717505710E-0001	
 3.89250000000000E+0003	 1.70350114610212E-0001	
 3.89450000000000E+0003	 1.70237511714714E-0001	
 3.89650000000000E+0003	 1.70162908819217E-0001	
 3.89850000000000E+0003	 1.70133805923719E-0001	
 3.90050000000000E+0003	 1.70081703028221E-0001	
 3.90250000000000E+0003	 1.69953600132723E-0001	
 3.90450000000000E+0003	 1.69883997237226E-0001	
 3.90650000000000E+0003	 1.69803394341728E-0001	
 3.90850000000000E+0003	 1.69708291446230E-0001	
 3.91050000000000E+0003	 1.69642688550733E-0001	
 3.91250000000000E+0003	 1.69600085655235E-0001	
 3.91450000000000E+0003	 1.69556482759737E-0001	
 3.91650000000000E+0003	 1.69525379864239E-0001	
 3.91850000000000E+0003	 1.69467776968742E-0001	
 3.92050000000000E+0003	 1.69408674073244E-0001	
 3.92250000000000E+0003	 1.69340071177746E-0001	
 3.92450000000000E+0003	 1.69297468282248E-0001	
 3.92650000000000E+0003	 1.69249865386751E-0001	
 3.92850000000000E+0003	 1.69194762491253E-0001	
 3.93050000000000E+0003	 1.69164659595755E-0001	
 3.93250000000000E+0003	 1.69138556700258E-0001	
 3.93450000000000E+0003	 1.69086953804760E-0001	
 3.93650000000000E+0003	 1.69015350909262E-0001	
 3.93850000000000E+0003	 1.68966248013764E-0001	
 3.94050000000000E+0003	 1.68911145118267E-0001	
 3.94250000000000E+0003	 1.68883042222769E-0001	
 3.94450000000000E+0003	 1.68837439327271E-0001	
 3.94650000000000E+0003	 1.68770836431773E-0001	
 3.94850000000000E+0003	 1.68723233536276E-0001	
 3.95050000000000E+0003	 1.68672130640778E-0001	
 3.95250000000000E+0003	 1.68621027745280E-0001	
 3.95450000000000E+0003	 1.68576424849783E-0001	
 3.95650000000000E+0003	 1.68535321954285E-0001	
 3.95850000000000E+0003	 1.68497219058787E-0001	
 3.96050000000000E+0003	 1.68453116163289E-0001	
 3.96250000000000E+0003	 1.68407513267792E-0001	
 3.96450000000000E+0003	 1.68359910372294E-0001	
 3.96650000000000E+0003	 1.68317307476796E-0001	
 3.96850000000000E+0003	 1.68275704581298E-0001	
 3.97050000000000E+0003	 1.68237101685801E-0001	
 3.97250000000000E+0003	 1.68204998790303E-0001	
 3.97450000000000E+0003	 1.68179895894805E-0001	
 3.97650000000000E+0003	 1.68148792999308E-0001	
 3.97850000000000E+0003	 1.68105190103810E-0001	
 3.98050000000000E+0003	 1.68067587208312E-0001	
 3.98250000000000E+0003	 1.68057484312814E-0001	
 3.98450000000000E+0003	 1.68043881417317E-0001	
 3.98650000000000E+0003	 1.67998278521819E-0001	
 3.98850000000000E+0003	 1.67943675626321E-0001	
 3.99050000000000E+0003	 1.67905572730823E-0001	
 3.99250000000000E+0003	 1.67867469835326E-0001	
 3.99450000000000E+0003	 1.67836366939828E-0001	
 3.99650000000000E+0003	 1.67807764044330E-0001	
 3.99850000000000E+0003	 1.67762492647059E-0001	

>1	DATALINE
