*CPCWIN*

>1	DATALINE
DATALINE
1
Operator:

Description:

Remarks:





15.9.2008
10:58


_x	_y
	
	
UNIT	UNIT
 4.50500000000000E+0002	 1.53925919339857E-0001	
 4.52500000000000E+0002	 1.54273532800999E-0001	
 4.54500000000000E+0002	 1.54794146262141E-0001	
 4.56500000000000E+0002	 1.55298759723283E-0001	
 4.58500000000000E+0002	 1.55703873184425E-0001	
 4.60500000000000E+0002	 1.56263986645567E-0001	
 4.62500000000000E+0002	 1.56822100106709E-0001	
 4.64500000000000E+0002	 1.57571213567851E-0001	
 4.66500000000000E+0002	 1.58042827028993E-0001	
 4.68500000000000E+0002	 1.58428440490135E-0001	
 4.70500000000000E+0002	 1.58934053951277E-0001	
 4.72500000000000E+0002	 1.59512167412420E-0001	
 4.74500000000000E+0002	 1.60294280873562E-0001	
 4.76500000000000E+0002	 1.61121894334704E-0001	
 4.78500000000000E+0002	 1.61933007795846E-0001	
 4.80500000000000E+0002	 1.62857121256988E-0001	
 4.82500000000000E+0002	 1.63810234718130E-0001	
 4.84500000000000E+0002	 1.64735348179272E-0001	
 4.86500000000000E+0002	 1.65745961640414E-0001	
 4.88500000000000E+0002	 1.66980575101556E-0001	
 4.90500000000000E+0002	 1.68102688562698E-0001	
 4.92500000000000E+0002	 1.69148802023840E-0001	
 4.94500000000000E+0002	 1.70321415484982E-0001	
 4.96500000000000E+0002	 1.71466028946124E-0001	
 4.98500000000000E+0002	 1.72484142407266E-0001	
 5.00500000000000E+0002	 1.73244255868408E-0001	
 5.02500000000000E+0002	 1.74107869329550E-0001	
 5.04500000000000E+0002	 1.75282982790692E-0001	
 5.06500000000000E+0002	 1.76394596251834E-0001	
 5.08500000000000E+0002	 1.77339209712976E-0001	
 5.10500000000000E+0002	 1.78324823174118E-0001	
 5.12500000000000E+0002	 1.79318936635260E-0001	
 5.14500000000000E+0002	 1.80243550096402E-0001	
 5.16500000000000E+0002	 1.81149663557544E-0001	
 5.18500000000000E+0002	 1.82435277018686E-0001	
 5.20500000000000E+0002	 1.83966890479828E-0001	
 5.22500000000000E+0002	 1.85614003940970E-0001	
 5.24500000000000E+0002	 1.87063117402112E-0001	
 5.26500000000000E+0002	 1.88764230863254E-0001	
 5.28500000000000E+0002	 1.90963844324396E-0001	
 5.30500000000000E+0002	 1.92835957785538E-0001	
 5.32500000000000E+0002	 1.93422571246680E-0001	
 5.34500000000000E+0002	 1.93187184707823E-0001	
 5.36500000000000E+0002	 1.92567798168965E-0001	
 5.38500000000000E+0002	 1.91887411630107E-0001	
 5.40500000000000E+0002	 1.91187525091249E-0001	
 5.42500000000000E+0002	 1.90692138552391E-0001	
 5.44500000000000E+0002	 1.90262752013533E-0001	
 5.46500000000000E+0002	 1.90076365474675E-0001	
 5.48500000000000E+0002	 1.89990978935817E-0001	
 5.50500000000000E+0002	 1.90014592396959E-0001	
 5.52500000000000E+0002	 1.89981705858101E-0001	
 5.54500000000000E+0002	 1.89921819319243E-0001	
 5.56500000000000E+0002	 1.89664432780385E-0001	
 5.58500000000000E+0002	 1.89362046241527E-0001	
 5.60500000000000E+0002	 1.88855659702669E-0001	
 5.62500000000000E+0002	 1.88287773163811E-0001	
 5.64500000000000E+0002	 1.87626886624953E-0001	
 5.66500000000000E+0002	 1.87078500086095E-0001	
 5.68500000000000E+0002	 1.86566613547237E-0001	
 5.70500000000000E+0002	 1.86178727008379E-0001	
 5.72500000000000E+0002	 1.85836840469521E-0001	
 5.74500000000000E+0002	 1.85594453930663E-0001	
 5.76500000000000E+0002	 1.85363567391805E-0001	
 5.78500000000000E+0002	 1.85382680852947E-0001	
 5.80500000000000E+0002	 1.85300794314089E-0001	
 5.82500000000000E+0002	 1.85216907775231E-0001	
 5.84500000000000E+0002	 1.85024021236373E-0001	
 5.86500000000000E+0002	 1.84907134697515E-0001	
 5.88500000000000E+0002	 1.84817748158657E-0001	
 5.90500000000000E+0002	 1.84772861619799E-0001	
 5.92500000000000E+0002	 1.84819475080941E-0001	
 5.94500000000000E+0002	 1.85145588542084E-0001	
 5.96500000000000E+0002	 1.85476702003226E-0001	
 5.98500000000000E+0002	 1.85859815464368E-0001	
 6.00500000000000E+0002	 1.86160428925510E-0001	
 6.02500000000000E+0002	 1.86453542386652E-0001	
 6.04500000000000E+0002	 1.86498155847794E-0001	
 6.06500000000000E+0002	 1.86315269308936E-0001	
 6.08500000000000E+0002	 1.85859382770078E-0001	
 6.10500000000000E+0002	 1.85345496231220E-0001	
 6.12500000000000E+0002	 1.84787109692362E-0001	
 6.14500000000000E+0002	 1.84207223153504E-0001	
 6.16500000000000E+0002	 1.83453336614646E-0001	
 6.18500000000000E+0002	 1.83063450075788E-0001	
 6.20500000000000E+0002	 1.82899563536930E-0001	
 6.22500000000000E+0002	 1.82541676998072E-0001	
 6.24500000000000E+0002	 1.82057290459214E-0001	
 6.26500000000000E+0002	 1.81642903920356E-0001	
 6.28500000000000E+0002	 1.81234017381498E-0001	
 6.30500000000000E+0002	 1.80786130842640E-0001	
 6.32500000000000E+0002	 1.80217244303782E-0001	
 6.34500000000000E+0002	 1.79560857764924E-0001	
 6.36500000000000E+0002	 1.78878471226066E-0001	
 6.38500000000000E+0002	 1.78230584687208E-0001	
 6.40500000000000E+0002	 1.77564198148350E-0001	
 6.42500000000000E+0002	 1.76988311609492E-0001	
 6.44500000000000E+0002	 1.76454925070634E-0001	
 6.46500000000000E+0002	 1.75934038531776E-0001	
 6.48500000000000E+0002	 1.75454651992918E-0001	
 6.50500000000000E+0002	 1.75101765454060E-0001	
 6.52500000000000E+0002	 1.74709878915202E-0001	
 6.54500000000000E+0002	 1.74270992376344E-0001	
 6.56500000000000E+0002	 1.73813605837487E-0001	
 6.58500000000000E+0002	 1.73329719298629E-0001	
 6.60500000000000E+0002	 1.72750832759771E-0001	
 6.62500000000000E+0002	 1.72351446220913E-0001	
 6.64500000000000E+0002	 1.73065559682055E-0001	
 6.66500000000000E+0002	 1.76995673143197E-0001	
 6.68500000000000E+0002	 1.77443786604339E-0001	
 6.70500000000000E+0002	 1.71429900065481E-0001	
 6.72500000000000E+0002	 1.69550513526623E-0001	
 6.74500000000000E+0002	 1.68981126987765E-0001	
 6.76500000000000E+0002	 1.68500740448907E-0001	
 6.78500000000000E+0002	 1.67955853910049E-0001	
 6.80500000000000E+0002	 1.67326467371191E-0001	
 6.82500000000000E+0002	 1.66658580832333E-0001	
 6.84500000000000E+0002	 1.66066194293475E-0001	
 6.86500000000000E+0002	 1.65440807754617E-0001	
 6.88500000000000E+0002	 1.64820421215759E-0001	
 6.90500000000000E+0002	 1.64229534676901E-0001	
 6.92500000000000E+0002	 1.63803648138043E-0001	
 6.94500000000000E+0002	 1.63390261599185E-0001	
 6.96500000000000E+0002	 1.63127875060327E-0001	
 6.98500000000000E+0002	 1.62833488521469E-0001	
 7.00500000000000E+0002	 1.62530101982611E-0001	
 7.02500000000000E+0002	 1.62063715443753E-0001	
 7.04500000000000E+0002	 1.61552828904895E-0001	
 7.06500000000000E+0002	 1.60964942366037E-0001	
 7.08500000000000E+0002	 1.60434555827179E-0001	
 7.10500000000000E+0002	 1.59864669288321E-0001	
 7.12500000000000E+0002	 1.59295782749463E-0001	
 7.14500000000000E+0002	 1.58496396210605E-0001	
 7.16500000000000E+0002	 1.57581509671747E-0001	
 7.18500000000000E+0002	 1.56357623132890E-0001	
 7.20500000000000E+0002	 1.55222236594032E-0001	
 7.22500000000000E+0002	 1.54450850055174E-0001	
 7.24500000000000E+0002	 1.53442963516316E-0001	
 7.26500000000000E+0002	 1.51989576977458E-0001	
 7.28500000000000E+0002	 1.50417190438600E-0001	
 7.30500000000000E+0002	 1.48781303899742E-0001	
 7.32500000000000E+0002	 1.47311917360884E-0001	
 7.34500000000000E+0002	 1.46024030822026E-0001	
 7.36500000000000E+0002	 1.44946644283168E-0001	
 7.38500000000000E+0002	 1.43981757744310E-0001	
 7.40500000000000E+0002	 1.43127371205452E-0001	
 7.42500000000000E+0002	 1.42368484666594E-0001	
 7.44500000000000E+0002	 1.41702098127736E-0001	
 7.46500000000000E+0002	 1.41047711588878E-0001	
 7.48500000000000E+0002	 1.40471325050020E-0001	
 7.50500000000000E+0002	 1.39989938511162E-0001	
 7.52500000000000E+0002	 1.39683051972304E-0001	
 7.54500000000000E+0002	 1.39613665433446E-0001	
 7.56500000000000E+0002	 1.39790278894588E-0001	
 7.58500000000000E+0002	 1.40244392355730E-0001	
 7.60500000000000E+0002	 1.40907505816872E-0001	
 7.62500000000000E+0002	 1.41616619278014E-0001	
 7.64500000000000E+0002	 1.41931732739156E-0001	
 7.66500000000000E+0002	 1.41456846200298E-0001	
 7.68500000000000E+0002	 1.40084959661440E-0001	
 7.70500000000000E+0002	 1.38324573122582E-0001	
 7.72500000000000E+0002	 1.36709686583724E-0001	
 7.74500000000000E+0002	 1.35787300044866E-0001	
 7.76500000000000E+0002	 1.35703413506008E-0001	
 7.78500000000000E+0002	 1.36193526967150E-0001	
 7.80500000000000E+0002	 1.36243640428293E-0001	
 7.82500000000000E+0002	 1.35541253889435E-0001	
 7.84500000000000E+0002	 1.34416867350577E-0001	
 7.86500000000000E+0002	 1.33265980811719E-0001	
 7.88500000000000E+0002	 1.31985094272861E-0001	
 7.90500000000000E+0002	 1.30814707734003E-0001	
 7.92500000000000E+0002	 1.29918321195145E-0001	
 7.94500000000000E+0002	 1.29437934656287E-0001	
 7.96500000000000E+0002	 1.28898048117429E-0001	
 7.98500000000000E+0002	 1.28129661578571E-0001	
 8.00500000000000E+0002	 1.27180775039713E-0001	
 8.02500000000000E+0002	 1.26402888500855E-0001	
 8.04500000000000E+0002	 1.25822001961997E-0001	
 8.06500000000000E+0002	 1.25474615423139E-0001	
 8.08500000000000E+0002	 1.25153728884281E-0001	
 8.10500000000000E+0002	 1.24816842345423E-0001	
 8.12500000000000E+0002	 1.24299455806565E-0001	
 8.14500000000000E+0002	 1.23670069267707E-0001	
 8.16500000000000E+0002	 1.22940182728849E-0001	
 8.18500000000000E+0002	 1.22276796189991E-0001	
 8.20500000000000E+0002	 1.21745909651133E-0001	
 8.22500000000000E+0002	 1.21436023112275E-0001	
 8.24500000000000E+0002	 1.21307136573417E-0001	
 8.26500000000000E+0002	 1.21313750034559E-0001	
 8.28500000000000E+0002	 1.21390863495701E-0001	
 8.30500000000000E+0002	 1.21556476956843E-0001	
 8.32500000000000E+0002	 1.21801590417985E-0001	
 8.34500000000000E+0002	 1.22116203879127E-0001	
 8.36500000000000E+0002	 1.22466817340269E-0001	
 8.38500000000000E+0002	 1.22752930801411E-0001	
 8.40500000000000E+0002	 1.22949044262554E-0001	
 8.42500000000000E+0002	 1.22988157723696E-0001	
 8.44500000000000E+0002	 1.22931271184838E-0001	
 8.46500000000000E+0002	 1.22790384645980E-0001	
 8.48500000000000E+0002	 1.22667498107122E-0001	
 8.50500000000000E+0002	 1.22558611568264E-0001	
 8.52500000000000E+0002	 1.22545225029406E-0001	
 8.54500000000000E+0002	 1.22559338490548E-0001	
 8.56500000000000E+0002	 1.22628951951690E-0001	
 8.58500000000000E+0002	 1.22578565412832E-0001	
 8.60500000000000E+0002	 1.22387678873974E-0001	
 8.62500000000000E+0002	 1.21901792335116E-0001	
 8.64500000000000E+0002	 1.21188405796258E-0001	
 8.66500000000000E+0002	 1.20254519257400E-0001	
 8.68500000000000E+0002	 1.19435132718542E-0001	
 8.70500000000000E+0002	 1.18993246179684E-0001	
 8.72500000000000E+0002	 1.18788359640826E-0001	
 8.74500000000000E+0002	 1.18116473101968E-0001	
 8.76500000000000E+0002	 1.17332086563110E-0001	
 8.78500000000000E+0002	 1.16822700024252E-0001	
 8.80500000000000E+0002	 1.16637813485394E-0001	
 8.82500000000000E+0002	 1.16586426946536E-0001	
 8.84500000000000E+0002	 1.16635540407678E-0001	
 8.86500000000000E+0002	 1.16618653868820E-0001	
 8.88500000000000E+0002	 1.16589767329962E-0001	
 8.90500000000000E+0002	 1.16464880791104E-0001	
 8.92500000000000E+0002	 1.16277494252246E-0001	
 8.94500000000000E+0002	 1.15988107713388E-0001	
 8.96500000000000E+0002	 1.15711721174530E-0001	
 8.98500000000000E+0002	 1.15501834635672E-0001	
 9.00500000000000E+0002	 1.15517948096814E-0001	
 9.02500000000000E+0002	 1.15871561557957E-0001	
 9.04500000000000E+0002	 1.16704175019099E-0001	
 9.06500000000000E+0002	 1.18005788480241E-0001	
 9.08500000000000E+0002	 1.19688401941383E-0001	
 9.10500000000000E+0002	 1.21509515402525E-0001	
 9.12500000000000E+0002	 1.23161628863667E-0001	
 9.14500000000000E+0002	 1.24415242324809E-0001	
 9.16500000000000E+0002	 1.25118355785951E-0001	
 9.18500000000000E+0002	 1.25233469247093E-0001	
 9.20500000000000E+0002	 1.24777082708235E-0001	
 9.22500000000000E+0002	 1.23900696169377E-0001	
 9.24500000000000E+0002	 1.22727309630519E-0001	
 9.26500000000000E+0002	 1.21426423091661E-0001	
 9.28500000000000E+0002	 1.20110536552803E-0001	
 9.30500000000000E+0002	 1.18941650013945E-0001	
 9.32500000000000E+0002	 1.17940763475087E-0001	
 9.34500000000000E+0002	 1.17177376936229E-0001	
 9.36500000000000E+0002	 1.16589490397371E-0001	
 9.38500000000000E+0002	 1.16209103858513E-0001	
 9.40500000000000E+0002	 1.15985217319655E-0001	
 9.42500000000000E+0002	 1.15999830780797E-0001	
 9.44500000000000E+0002	 1.16241444241939E-0001	
 9.46500000000000E+0002	 1.16790057703081E-0001	
 9.48500000000000E+0002	 1.17599671164223E-0001	
 9.50500000000000E+0002	 1.18722284625365E-0001	
 9.52500000000000E+0002	 1.20105398086507E-0001	
 9.54500000000000E+0002	 1.21791011547649E-0001	
 9.56500000000000E+0002	 1.23699125008791E-0001	
 9.58500000000000E+0002	 1.25811238469933E-0001	
 9.60500000000000E+0002	 1.28012351931075E-0001	
 9.62500000000000E+0002	 1.30252965392217E-0001	
 9.64500000000000E+0002	 1.32426578853360E-0001	
 9.66500000000000E+0002	 1.34562692314502E-0001	
 9.68500000000000E+0002	 1.36666805775644E-0001	
 9.70500000000000E+0002	 1.38859919236786E-0001	
 9.72500000000000E+0002	 1.41276032697928E-0001	
 9.74500000000000E+0002	 1.44164146159070E-0001	
 9.76500000000000E+0002	 1.47781759620212E-0001	
 9.78500000000000E+0002	 1.52412373081354E-0001	
 9.80500000000000E+0002	 1.58154986542496E-0001	
 9.82500000000000E+0002	 1.64861100003638E-0001	
 9.84500000000000E+0002	 1.72065213464780E-0001	
 9.86500000000000E+0002	 1.79113826925922E-0001	
 9.88500000000000E+0002	 1.85398440387064E-0001	
 9.90500000000000E+0002	 1.90608053848206E-0001	
 9.92500000000000E+0002	 1.94876167309348E-0001	
 9.94500000000000E+0002	 1.98663780770490E-0001	
 9.96500000000000E+0002	 2.02587894231632E-0001	
 9.98500000000000E+0002	 2.07165507692774E-0001	
 1.00050000000000E+0003	 2.12643121153916E-0001	
 1.00250000000000E+0003	 2.18870734615058E-0001	
 1.00450000000000E+0003	 2.25527348076200E-0001	
 1.00650000000000E+0003	 2.32216961537342E-0001	
 1.00850000000000E+0003	 2.38659574998484E-0001	
 1.01050000000000E+0003	 2.44679688459626E-0001	
 1.01250000000000E+0003	 2.50259301920768E-0001	
 1.01450000000000E+0003	 2.55341415381910E-0001	
 1.01650000000000E+0003	 2.59822528843052E-0001	
 1.01850000000000E+0003	 2.63460642304194E-0001	
 1.02050000000000E+0003	 2.66185255765336E-0001	
 1.02250000000000E+0003	 2.68110869226478E-0001	
 1.02450000000000E+0003	 2.69569982687621E-0001	
 1.02650000000000E+0003	 2.70909096148763E-0001	
 1.02850000000000E+0003	 2.72385709609905E-0001	
 1.03050000000000E+0003	 2.73941323071047E-0001	
 1.03250000000000E+0003	 2.75468436532189E-0001	
 1.03450000000000E+0003	 2.76937549993331E-0001	
 1.03650000000000E+0003	 2.78163663454473E-0001	
 1.03850000000000E+0003	 2.78899276915615E-0001	
 1.04050000000000E+0003	 2.79315890376757E-0001	
 1.04250000000000E+0003	 2.79707503837899E-0001	
 1.04450000000000E+0003	 2.80395617299041E-0001	
 1.04650000000000E+0003	 2.81548230760183E-0001	
 1.04850000000000E+0003	 2.83184344221325E-0001	
 1.05050000000000E+0003	 2.85036457682467E-0001	
 1.05250000000000E+0003	 2.86604571143609E-0001	
 1.05450000000000E+0003	 2.87398684604751E-0001	
 1.05650000000000E+0003	 2.87243298065893E-0001	
 1.05850000000000E+0003	 2.86213911527035E-0001	
 1.06050000000000E+0003	 2.84590024988177E-0001	
 1.06250000000000E+0003	 2.82861138449319E-0001	
 1.06450000000000E+0003	 2.81683751910461E-0001	
 1.06650000000000E+0003	 2.81671865371603E-0001	
 1.06850000000000E+0003	 2.83126478832745E-0001	
 1.07050000000000E+0003	 2.85909592293887E-0001	
 1.07250000000000E+0003	 2.89517205755029E-0001	
 1.07450000000000E+0003	 2.93275319216171E-0001	
 1.07650000000000E+0003	 2.96496932677313E-0001	
 1.07850000000000E+0003	 2.98687046138455E-0001	
 1.08050000000000E+0003	 2.99556659599597E-0001	
 1.08250000000000E+0003	 2.98967773060739E-0001	
 1.08450000000000E+0003	 2.96779386521881E-0001	
 1.08650000000000E+0003	 2.92932499983024E-0001	
 1.08850000000000E+0003	 2.87522613444166E-0001	
 1.09050000000000E+0003	 2.81065726905308E-0001	
 1.09250000000000E+0003	 2.74473840366450E-0001	
 1.09450000000000E+0003	 2.68635453827592E-0001	
 1.09650000000000E+0003	 2.63888567288734E-0001	
 1.09850000000000E+0003	 2.60060180749876E-0001	
 1.10050000000000E+0003	 2.56698794211018E-0001	
 1.10250000000000E+0003	 2.53421907672160E-0001	
 1.10450000000000E+0003	 2.50016021133302E-0001	
 1.10650000000000E+0003	 2.46516134594444E-0001	
 1.10850000000000E+0003	 2.43043248055586E-0001	
 1.11050000000000E+0003	 2.39777361516728E-0001	
 1.11250000000000E+0003	 2.36761974977870E-0001	
 1.11450000000000E+0003	 2.33941588439012E-0001	
 1.11650000000000E+0003	 2.31144701900154E-0001	
 1.11850000000000E+0003	 2.28281815361296E-0001	
 1.12050000000000E+0003	 2.25274428822438E-0001	
 1.12250000000000E+0003	 2.22145042283580E-0001	
 1.12450000000000E+0003	 2.18926155744722E-0001	
 1.12650000000000E+0003	 2.15724769205864E-0001	
 1.12850000000000E+0003	 2.12563882667006E-0001	
 1.13050000000000E+0003	 2.09403996128148E-0001	
 1.13250000000000E+0003	 2.06372609589290E-0001	
 1.13450000000000E+0003	 2.03701223050432E-0001	
 1.13650000000000E+0003	 2.01463336511574E-0001	
 1.13850000000000E+0003	 1.99744949972716E-0001	
 1.14050000000000E+0003	 1.98589563433858E-0001	
 1.14250000000000E+0003	 1.97993676895000E-0001	
 1.14450000000000E+0003	 1.97802290356142E-0001	
 1.14650000000000E+0003	 1.97712903817284E-0001	
 1.14850000000000E+0003	 1.97314017278427E-0001	
 1.15050000000000E+0003	 1.96193630739569E-0001	
 1.15250000000000E+0003	 1.94122744200711E-0001	
 1.15450000000000E+0003	 1.91132357661853E-0001	
 1.15650000000000E+0003	 1.87540471122995E-0001	
 1.15850000000000E+0003	 1.83665084584137E-0001	
 1.16050000000000E+0003	 1.79731698045279E-0001	
 1.16250000000000E+0003	 1.75719811506421E-0001	
 1.16450000000000E+0003	 1.71613424967563E-0001	
 1.16650000000000E+0003	 1.67399538428705E-0001	
 1.16850000000000E+0003	 1.63253151889847E-0001	
 1.17050000000000E+0003	 1.59273265350989E-0001	
 1.17250000000000E+0003	 1.55567378812131E-0001	
 1.17450000000000E+0003	 1.52110992273273E-0001	
 1.17650000000000E+0003	 1.49008605734415E-0001	
 1.17850000000000E+0003	 1.46326219195557E-0001	
 1.18050000000000E+0003	 1.44224832656699E-0001	
 1.18250000000000E+0003	 1.42710446117841E-0001	
 1.18450000000000E+0003	 1.41869059578983E-0001	
 1.18650000000000E+0003	 1.41664673040125E-0001	
 1.18850000000000E+0003	 1.42135786501267E-0001	
 1.19050000000000E+0003	 1.43190399962409E-0001	
 1.19250000000000E+0003	 1.44800513423551E-0001	
 1.19450000000000E+0003	 1.46822126884693E-0001	
 1.19650000000000E+0003	 1.49155740345835E-0001	
 1.19850000000000E+0003	 1.51624853806977E-0001	
 1.20050000000000E+0003	 1.54155467268119E-0001	
 1.20250000000000E+0003	 1.56631080729261E-0001	
 1.20450000000000E+0003	 1.59049694190403E-0001	
 1.20650000000000E+0003	 1.61419307651545E-0001	
 1.20850000000000E+0003	 1.63791421112687E-0001	
 1.21050000000000E+0003	 1.66182034573830E-0001	
 1.21250000000000E+0003	 1.68644148034972E-0001	
 1.21450000000000E+0003	 1.71185261496114E-0001	
 1.21650000000000E+0003	 1.74147374957256E-0001	
 1.21850000000000E+0003	 1.78150988418398E-0001	
 1.22050000000000E+0003	 1.82472601879540E-0001	
 1.22250000000000E+0003	 1.85247715340682E-0001	
 1.22450000000000E+0003	 1.86049828801824E-0001	
 1.22650000000000E+0003	 1.85929942262966E-0001	
 1.22850000000000E+0003	 1.85694055724108E-0001	
 1.23050000000000E+0003	 1.85535169185250E-0001	
 1.23250000000000E+0003	 1.85321282646392E-0001	
 1.23450000000000E+0003	 1.85018396107534E-0001	
 1.23650000000000E+0003	 1.84586009568676E-0001	
 1.23850000000000E+0003	 1.84012123029818E-0001	
 1.24050000000000E+0003	 1.83237236490960E-0001	
 1.24250000000000E+0003	 1.82271349952102E-0001	
 1.24450000000000E+0003	 1.81117963413244E-0001	
 1.24650000000000E+0003	 1.79872576874386E-0001	
 1.24850000000000E+0003	 1.78557190335528E-0001	
 1.25050000000000E+0003	 1.77194803796670E-0001	
 1.25250000000000E+0003	 1.75766917257812E-0001	
 1.25450000000000E+0003	 1.74306530718954E-0001	
 1.25650000000000E+0003	 1.72829144180096E-0001	
 1.25850000000000E+0003	 1.71344757641238E-0001	
 1.26050000000000E+0003	 1.69868871102380E-0001	
 1.26250000000000E+0003	 1.68420484563522E-0001	
 1.26450000000000E+0003	 1.67012098024664E-0001	
 1.26650000000000E+0003	 1.65641211485806E-0001	
 1.26850000000000E+0003	 1.64345324946948E-0001	
 1.27050000000000E+0003	 1.63139938408091E-0001	
 1.27250000000000E+0003	 1.62077051869233E-0001	
 1.27450000000000E+0003	 1.61106165330375E-0001	
 1.27650000000000E+0003	 1.60250278791517E-0001	
 1.27850000000000E+0003	 1.59474892252659E-0001	
 1.28050000000000E+0003	 1.58795505713801E-0001	
 1.28250000000000E+0003	 1.58123119174943E-0001	
 1.28450000000000E+0003	 1.57471732636085E-0001	
 1.28650000000000E+0003	 1.56810846097227E-0001	
 1.28850000000000E+0003	 1.56275959558369E-0001	
 1.29050000000000E+0003	 1.55909073019511E-0001	
 1.29250000000000E+0003	 1.55761186480653E-0001	
 1.29450000000000E+0003	 1.55727799941795E-0001	
 1.29650000000000E+0003	 1.55859913402937E-0001	
 1.29850000000000E+0003	 1.56167026864079E-0001	
 1.30050000000000E+0003	 1.56672140325221E-0001	
 1.30250000000000E+0003	 1.57239753786363E-0001	
 1.30450000000000E+0003	 1.57848867247505E-0001	
 1.30650000000000E+0003	 1.58423480708647E-0001	
 1.30850000000000E+0003	 1.58990094169789E-0001	
 1.31050000000000E+0003	 1.59436207630931E-0001	
 1.31250000000000E+0003	 1.59727321092073E-0001	
 1.31450000000000E+0003	 1.59859934553215E-0001	
 1.31650000000000E+0003	 1.59799048014357E-0001	
 1.31850000000000E+0003	 1.59574161475499E-0001	
 1.32050000000000E+0003	 1.59316774936641E-0001	
 1.32250000000000E+0003	 1.59060388397783E-0001	
 1.32450000000000E+0003	 1.58928001858925E-0001	
 1.32650000000000E+0003	 1.58966115320067E-0001	
 1.32850000000000E+0003	 1.59197728781209E-0001	
 1.33050000000000E+0003	 1.59624842242351E-0001	
 1.33250000000000E+0003	 1.60188955703494E-0001	
 1.33450000000000E+0003	 1.60727069164636E-0001	
 1.33650000000000E+0003	 1.61057682625778E-0001	
 1.33850000000000E+0003	 1.61234796086920E-0001	
 1.34050000000000E+0003	 1.61571409548062E-0001	
 1.34250000000000E+0003	 1.62028523009204E-0001	
 1.34450000000000E+0003	 1.62340136470346E-0001	
 1.34650000000000E+0003	 1.62599249931488E-0001	
 1.34850000000000E+0003	 1.63030363392630E-0001	
 1.35050000000000E+0003	 1.63887976853772E-0001	
 1.35250000000000E+0003	 1.65182090314914E-0001	
 1.35450000000000E+0003	 1.66897703776056E-0001	
 1.35650000000000E+0003	 1.68800817237198E-0001	
 1.35850000000000E+0003	 1.70449430698340E-0001	
 1.36050000000000E+0003	 1.71546544159482E-0001	
 1.36250000000000E+0003	 1.72502657620624E-0001	
 1.36450000000000E+0003	 1.73647271081766E-0001	
 1.36650000000000E+0003	 1.74759384542908E-0001	
 1.36850000000000E+0003	 1.75414998004050E-0001	
 1.37050000000000E+0003	 1.75178611465192E-0001	
 1.37250000000000E+0003	 1.74438724926334E-0001	
 1.37450000000000E+0003	 1.73879838387476E-0001	
 1.37650000000000E+0003	 1.73655951848618E-0001	
 1.37850000000000E+0003	 1.73500565309760E-0001	
 1.38050000000000E+0003	 1.73671178770902E-0001	
 1.38250000000000E+0003	 1.74179792232044E-0001	
 1.38450000000000E+0003	 1.74669905693186E-0001	
 1.38650000000000E+0003	 1.74527019154328E-0001	
 1.38850000000000E+0003	 1.74541632615470E-0001	
 1.39050000000000E+0003	 1.75289746076612E-0001	
 1.39250000000000E+0003	 1.76159859537754E-0001	
 1.39450000000000E+0003	 1.76669472998897E-0001	
 1.39650000000000E+0003	 1.77553086460039E-0001	
 1.39850000000000E+0003	 1.78663199921181E-0001	
 1.40050000000000E+0003	 1.79950813382323E-0001	
 1.40250000000000E+0003	 1.80764426843465E-0001	
 1.40450000000000E+0003	 1.81258540304607E-0001	
 1.40650000000000E+0003	 1.81534153765749E-0001	
 1.40850000000000E+0003	 1.81622767226891E-0001	
 1.41050000000000E+0003	 1.81610880688033E-0001	
 1.41250000000000E+0003	 1.81545994149175E-0001	
 1.41450000000000E+0003	 1.81265607610317E-0001	
 1.41650000000000E+0003	 1.80467221071459E-0001	
 1.41850000000000E+0003	 1.78846834532601E-0001	
 1.42050000000000E+0003	 1.77362447993743E-0001	
 1.42250000000000E+0003	 1.76764561454885E-0001	
 1.42450000000000E+0003	 1.76458174916027E-0001	
 1.42650000000000E+0003	 1.75321288377169E-0001	
 1.42850000000000E+0003	 1.73963901838311E-0001	
 1.43050000000000E+0003	 1.73050515299453E-0001	
 1.43250000000000E+0003	 1.72502628760595E-0001	
 1.43450000000000E+0003	 1.71950242221737E-0001	
 1.43650000000000E+0003	 1.71201355682879E-0001	
 1.43850000000000E+0003	 1.71582969144021E-0001	
 1.44050000000000E+0003	 1.73082082605163E-0001	
 1.44250000000000E+0003	 1.74523696066305E-0001	
 1.44450000000000E+0003	 1.75126809527447E-0001	
 1.44650000000000E+0003	 1.75440922988589E-0001	
 1.44850000000000E+0003	 1.75679536449731E-0001	
 1.45050000000000E+0003	 1.76093149910873E-0001	
 1.45250000000000E+0003	 1.76341263372015E-0001	
 1.45450000000000E+0003	 1.75526876833158E-0001	
 1.45650000000000E+0003	 1.72597490294300E-0001	
 1.45850000000000E+0003	 1.70333103755442E-0001	
 1.46050000000000E+0003	 1.69736717216584E-0001	
 1.46250000000000E+0003	 1.69027830677726E-0001	
 1.46450000000000E+0003	 1.66902944138868E-0001	
 1.46650000000000E+0003	 1.64563557600010E-0001	
 1.46850000000000E+0003	 1.62346171061152E-0001	
 1.47050000000000E+0003	 1.59419284522294E-0001	
 1.47250000000000E+0003	 1.55013897983436E-0001	
 1.47450000000000E+0003	 1.51075511444578E-0001	
 1.47650000000000E+0003	 1.48828624905720E-0001	
 1.47850000000000E+0003	 1.47729238366862E-0001	
 1.48050000000000E+0003	 1.46770851828004E-0001	
 1.48250000000000E+0003	 1.46209965289146E-0001	
 1.48450000000000E+0003	 1.45789078750288E-0001	
 1.48650000000000E+0003	 1.45670692211430E-0001	
 1.48850000000000E+0003	 1.45897805672572E-0001	
 1.49050000000000E+0003	 1.46933919133714E-0001	
 1.49250000000000E+0003	 1.48702532594856E-0001	
 1.49450000000000E+0003	 1.50457146055998E-0001	
 1.49650000000000E+0003	 1.52175759517140E-0001	
 1.49850000000000E+0003	 1.54524372978282E-0001	
 1.50050000000000E+0003	 1.57503986439424E-0001	
 1.50250000000000E+0003	 1.60487099900566E-0001	
 1.50450000000000E+0003	 1.62304213361708E-0001	
 1.50650000000000E+0003	 1.64188326822850E-0001	
 1.50850000000000E+0003	 1.68691440283992E-0001	
 1.51050000000000E+0003	 1.73799553745134E-0001	
 1.51250000000000E+0003	 1.79719667206276E-0001	
 1.51450000000000E+0003	 1.84687280667418E-0001	
 1.51650000000000E+0003	 1.89043894128561E-0001	
 1.51850000000000E+0003	 1.92576007589703E-0001	
 1.52050000000000E+0003	 1.94257621050845E-0001	
 1.52250000000000E+0003	 1.97392234511987E-0001	
 1.52450000000000E+0003	 2.01384347973129E-0001	
 1.52650000000000E+0003	 2.05973461434271E-0001	
 1.52850000000000E+0003	 2.10705574895413E-0001	
 1.53050000000000E+0003	 2.14779688356555E-0001	
 1.53250000000000E+0003	 2.18313301817697E-0001	
 1.53450000000000E+0003	 2.22503915278839E-0001	
 1.53650000000000E+0003	 2.25487528739981E-0001	
 1.53850000000000E+0003	 2.27292642201123E-0001	
 1.54050000000000E+0003	 2.29727255662265E-0001	
 1.54250000000000E+0003	 2.32353369123407E-0001	
 1.54450000000000E+0003	 2.34767982584549E-0001	
 1.54650000000000E+0003	 2.36776596045691E-0001	
 1.54850000000000E+0003	 2.36945709506833E-0001	
 1.55050000000000E+0003	 2.35628322967975E-0001	
 1.55250000000000E+0003	 2.32656936429117E-0001	
 1.55450000000000E+0003	 2.28133049890259E-0001	
 1.55650000000000E+0003	 2.23132163351401E-0001	
 1.55850000000000E+0003	 2.16720776812543E-0001	
 1.56050000000000E+0003	 2.10874390273685E-0001	
 1.56250000000000E+0003	 2.07357503734827E-0001	
 1.56450000000000E+0003	 2.06739117195969E-0001	
 1.56650000000000E+0003	 2.04519730657111E-0001	
 1.56850000000000E+0003	 2.01123844118253E-0001	
 1.57050000000000E+0003	 1.98016957579395E-0001	
 1.57250000000000E+0003	 1.95360071040537E-0001	
 1.57450000000000E+0003	 1.92679184501679E-0001	
 1.57650000000000E+0003	 1.89346297962821E-0001	
 1.57850000000000E+0003	 1.86964411423964E-0001	
 1.58050000000000E+0003	 1.86271524885106E-0001	
 1.58250000000000E+0003	 1.85587138346248E-0001	
 1.58450000000000E+0003	 1.84646751807390E-0001	
 1.58650000000000E+0003	 1.84100865268532E-0001	
 1.58850000000000E+0003	 1.84206478729674E-0001	
 1.59050000000000E+0003	 1.84882592190816E-0001	
 1.59250000000000E+0003	 1.86192705651958E-0001	
 1.59450000000000E+0003	 1.87950319113100E-0001	
 1.59650000000000E+0003	 1.90185932574242E-0001	
 1.59850000000000E+0003	 1.92584546035384E-0001	
 1.60050000000000E+0003	 1.95428659496526E-0001	
 1.60250000000000E+0003	 1.98715772957668E-0001	
 1.60450000000000E+0003	 2.02469886418810E-0001	
 1.60650000000000E+0003	 2.06514999879952E-0001	
 1.60850000000000E+0003	 2.11308113341094E-0001	
 1.61050000000000E+0003	 2.16761726802236E-0001	
 1.61250000000000E+0003	 2.22672340263378E-0001	
 1.61450000000000E+0003	 2.28388453724520E-0001	
 1.61650000000000E+0003	 2.34865567185662E-0001	
 1.61850000000000E+0003	 2.42740180646804E-0001	
 1.62050000000000E+0003	 2.50713294107946E-0001	
 1.62250000000000E+0003	 2.59854407569088E-0001	
 1.62450000000000E+0003	 2.69902021030230E-0001	
 1.62650000000000E+0003	 2.79294134491372E-0001	
 1.62850000000000E+0003	 2.89600247952514E-0001	
 1.63050000000000E+0003	 2.99796861413656E-0001	
 1.63250000000000E+0003	 3.08364974874798E-0001	
 1.63450000000000E+0003	 3.15988088335940E-0001	
 1.63650000000000E+0003	 3.24188201797082E-0001	
 1.63850000000000E+0003	 3.30810815258225E-0001	
 1.64050000000000E+0003	 3.35961428719367E-0001	
 1.64250000000000E+0003	 3.40097542180509E-0001	
 1.64450000000000E+0003	 3.42402155641651E-0001	
 1.64650000000000E+0003	 3.44560769102793E-0001	
 1.64850000000000E+0003	 3.48046382563935E-0001	
 1.65050000000000E+0003	 3.49922996025077E-0001	
 1.65250000000000E+0003	 3.49290609486219E-0001	
 1.65450000000000E+0003	 3.49611222947361E-0001	
 1.65650000000000E+0003	 3.49767836408503E-0001	
 1.65850000000000E+0003	 3.49748449869645E-0001	
 1.66050000000000E+0003	 3.46235563330787E-0001	
 1.66250000000000E+0003	 3.40019176791929E-0001	
 1.66450000000000E+0003	 3.32843290253071E-0001	
 1.66650000000000E+0003	 3.25867403714213E-0001	
 1.66850000000000E+0003	 3.18498517175355E-0001	
 1.67050000000000E+0003	 3.10775630636497E-0001	
 1.67250000000000E+0003	 3.03850744097639E-0001	
 1.67450000000000E+0003	 2.96951857558781E-0001	
 1.67650000000000E+0003	 2.89827971019923E-0001	
 1.67850000000000E+0003	 2.83817584481065E-0001	
 1.68050000000000E+0003	 2.78531197942207E-0001	
 1.68250000000000E+0003	 2.72439311403349E-0001	
 1.68450000000000E+0003	 2.64369924864491E-0001	
 1.68650000000000E+0003	 2.57062038325633E-0001	
 1.68850000000000E+0003	 2.52057651786775E-0001	
 1.69050000000000E+0003	 2.47535765247917E-0001	
 1.69250000000000E+0003	 2.41731878709059E-0001	
 1.69450000000000E+0003	 2.34909492170201E-0001	
 1.69650000000000E+0003	 2.27404605631343E-0001	
 1.69850000000000E+0003	 2.21960219092485E-0001	
 1.70050000000000E+0003	 2.17420332553628E-0001	
 1.70250000000000E+0003	 2.14498946014770E-0001	
 1.70450000000000E+0003	 2.13482059475912E-0001	
 1.70650000000000E+0003	 2.13243672937054E-0001	
 1.70850000000000E+0003	 2.11639286398196E-0001	
 1.71050000000000E+0003	 2.09726399859338E-0001	
 1.71250000000000E+0003	 2.07266513320480E-0001	
 1.71450000000000E+0003	 2.03278626781622E-0001	
 1.71650000000000E+0003	 1.96825240242764E-0001	
 1.71850000000000E+0003	 1.88180853703906E-0001	
 1.72050000000000E+0003	 1.80485467165048E-0001	
 1.72250000000000E+0003	 1.73953080626190E-0001	
 1.72450000000000E+0003	 1.67368194087332E-0001	
 1.72650000000000E+0003	 1.61283307548474E-0001	
 1.72850000000000E+0003	 1.56116921009616E-0001	
 1.73050000000000E+0003	 1.51999534470758E-0001	
 1.73250000000000E+0003	 1.47634147931900E-0001	
 1.73450000000000E+0003	 1.42742761393042E-0001	
 1.73650000000000E+0003	 1.40048374854184E-0001	
 1.73850000000000E+0003	 1.39324488315326E-0001	
 1.74050000000000E+0003	 1.38845601776468E-0001	
 1.74250000000000E+0003	 1.37432215237610E-0001	
 1.74450000000000E+0003	 1.36095328698752E-0001	
 1.74650000000000E+0003	 1.34726442159894E-0001	
 1.74850000000000E+0003	 1.32900555621036E-0001	
 1.75050000000000E+0003	 1.30360669082178E-0001	
 1.75250000000000E+0003	 1.27540282543320E-0001	
 1.75450000000000E+0003	 1.25707896004462E-0001	
 1.75650000000000E+0003	 1.24216009465604E-0001	
 1.75850000000000E+0003	 1.22517622926746E-0001	
 1.76050000000000E+0003	 1.20496236387888E-0001	
 1.76250000000000E+0003	 1.18868349849031E-0001	
 1.76450000000000E+0003	 1.17616963310173E-0001	
 1.76650000000000E+0003	 1.16330076771315E-0001	
 1.76850000000000E+0003	 1.15000690232457E-0001	
 1.77050000000000E+0003	 1.13723803693599E-0001	
 1.77250000000000E+0003	 1.12753917154741E-0001	
 1.77450000000000E+0003	 1.11947030615883E-0001	
 1.77650000000000E+0003	 1.11497644077025E-0001	
 1.77850000000000E+0003	 1.11460757538167E-0001	
 1.78050000000000E+0003	 1.10948870999309E-0001	
 1.78250000000000E+0003	 1.10428984460451E-0001	
 1.78450000000000E+0003	 1.09808097921593E-0001	
 1.78650000000000E+0003	 1.09237711382735E-0001	
 1.78850000000000E+0003	 1.08312824843877E-0001	
 1.79050000000000E+0003	 1.07581438305019E-0001	
 1.79250000000000E+0003	 1.06795051766161E-0001	
 1.79450000000000E+0003	 1.06255665227303E-0001	
 1.79650000000000E+0003	 1.05989778688445E-0001	
 1.79850000000000E+0003	 1.05965392149587E-0001	
 1.80050000000000E+0003	 1.05521505610729E-0001	
 1.80250000000000E+0003	 1.04955119071871E-0001	
 1.80450000000000E+0003	 1.04559732533013E-0001	
 1.80650000000000E+0003	 1.04367845994155E-0001	
 1.80850000000000E+0003	 1.04045959455297E-0001	
 1.81050000000000E+0003	 1.03692572916439E-0001	
 1.81250000000000E+0003	 1.03404186377581E-0001	
 1.81450000000000E+0003	 1.02992299838723E-0001	
 1.81650000000000E+0003	 1.02593413299865E-0001	
 1.81850000000000E+0003	 1.02300526761007E-0001	
 1.82050000000000E+0003	 1.01992140222149E-0001	
 1.82250000000000E+0003	 1.01703753683291E-0001	
 1.82450000000000E+0003	 1.01385867144434E-0001	
 1.82650000000000E+0003	 1.01114480605576E-0001	
 1.82850000000000E+0003	 1.00881594066718E-0001	
 1.83050000000000E+0003	 1.00632707527860E-0001	
 1.83250000000000E+0003	 1.00341320989002E-0001	
 1.83450000000000E+0003	 1.00089934450144E-0001	
 1.83650000000000E+0003	 9.98340479112857E-0002	
 1.83850000000000E+0003	 9.96011613724278E-0002	
 1.84050000000000E+0003	 9.93402748335698E-0002	
 1.84250000000000E+0003	 9.91093882947118E-0002	
 1.84450000000000E+0003	 9.89125017558539E-0002	
 1.84650000000000E+0003	 9.87051152169959E-0002	
 1.84850000000000E+0003	 9.84982286781379E-0002	
 1.85050000000000E+0003	 9.83608421392800E-0002	
 1.85250000000000E+0003	 9.81954556004220E-0002	
 1.85450000000000E+0003	 9.80245690615640E-0002	
 1.85650000000000E+0003	 9.78301825227061E-0002	
 1.85850000000000E+0003	 9.76492959838481E-0002	
 1.86050000000000E+0003	 9.74639094449901E-0002	
 1.86250000000000E+0003	 9.73040229061321E-0002	
 1.86450000000000E+0003	 9.71241363672742E-0002	
 1.86650000000000E+0003	 9.68597498284162E-0002	
 1.86850000000000E+0003	 9.66108632895582E-0002	
 1.87050000000000E+0003	 9.64914767507003E-0002	
 1.87250000000000E+0003	 9.62765902118423E-0002	
 1.87450000000000E+0003	 9.63782036729843E-0002	
 1.87650000000000E+0003	 9.64848171341264E-0002	
 1.87850000000000E+0003	 9.63859305952684E-0002	
 1.88050000000000E+0003	 9.62800440564104E-0002	
 1.88250000000000E+0003	 9.61806575175525E-0002	
 1.88450000000000E+0003	 9.60997709786945E-0002	
 1.88650000000000E+0003	 9.59818844398365E-0002	
 1.88850000000000E+0003	 9.58249979009786E-0002	
 1.89050000000000E+0003	 9.58036113621206E-0002	
 1.89250000000000E+0003	 9.57487248232626E-0002	
 1.89450000000000E+0003	 9.56643382844047E-0002	
 1.89650000000000E+0003	 9.55989517455467E-0002	
 1.89850000000000E+0003	 9.55405652066887E-0002	
 1.90050000000000E+0003	 9.54831786678308E-0002	
 1.90250000000000E+0003	 9.54077921289728E-0002	
 1.90450000000000E+0003	 9.53604055901148E-0002	
 1.90650000000000E+0003	 9.52755190512569E-0002	
 1.90850000000000E+0003	 9.51851325123989E-0002	
 1.91050000000000E+0003	 9.51832459735409E-0002	
 1.91250000000000E+0003	 9.51673594346830E-0002	
 1.91450000000000E+0003	 9.51229728958250E-0002	
 1.91650000000000E+0003	 9.50650863569670E-0002	
 1.91850000000000E+0003	 9.50331998181091E-0002	
 1.92050000000000E+0003	 9.50038132792511E-0002	
 1.92250000000000E+0003	 9.49569267403931E-0002	
 1.92450000000000E+0003	 9.49595402015352E-0002	
 1.92650000000000E+0003	 9.49841536626772E-0002	
 1.92850000000000E+0003	 9.49657671238192E-0002	
 1.93050000000000E+0003	 9.49478805849613E-0002	
 1.93250000000000E+0003	 9.49214940461033E-0002	
 1.93450000000000E+0003	 9.49086075072453E-0002	
 1.93650000000000E+0003	 9.48902209683874E-0002	
 1.93850000000000E+0003	 9.48788344295294E-0002	
 1.94050000000000E+0003	 9.47454478906714E-0002	
 1.94250000000000E+0003	 9.46655613518135E-0002	
 1.94450000000000E+0003	 9.47631748129555E-0002	
 1.94650000000000E+0003	 9.47757882740975E-0002	
 1.94850000000000E+0003	 9.48489017352396E-0002	
 1.95050000000000E+0003	 9.48850151963816E-0002	
 1.95250000000000E+0003	 9.48831286575236E-0002	
 1.95450000000000E+0003	 9.48907421186656E-0002	
 1.95650000000000E+0003	 9.49088555798077E-0002	
 1.95850000000000E+0003	 9.49354690409497E-0002	
 1.96050000000000E+0003	 9.49435825020917E-0002	
 1.96250000000000E+0003	 9.49621959632338E-0002	
 1.96450000000000E+0003	 9.49293094243758E-0002	
 1.96650000000000E+0003	 9.48824228855178E-0002	
 1.96850000000000E+0003	 9.49470363466599E-0002	
 1.97050000000000E+0003	 9.49736498078019E-0002	
 1.97250000000000E+0003	 9.49907632689439E-0002	
 1.97450000000000E+0003	 9.50478767300860E-0002	
 1.97650000000000E+0003	 9.50714901912280E-0002	
 1.97850000000000E+0003	 9.50861036523700E-0002	
 1.98050000000000E+0003	 9.50972171135121E-0002	
 1.98250000000000E+0003	 9.51118305746541E-0002	
 1.98450000000000E+0003	 9.51304440357961E-0002	
 1.98650000000000E+0003	 9.51155574969382E-0002	
 1.98850000000000E+0003	 9.51066709580802E-0002	
 1.99050000000000E+0003	 9.50457844192222E-0002	
 1.99250000000000E+0003	 9.50508978803643E-0002	
 1.99450000000000E+0003	 9.51510113415063E-0002	
 1.99650000000000E+0003	 9.51966248026483E-0002	
 1.99850000000000E+0003	 9.52907382637904E-0002	
 2.00050000000000E+0003	 9.53613517249324E-0002	
 2.00250000000000E+0003	 9.53924651860744E-0002	
 2.00450000000000E+0003	 9.54320786472165E-0002	
 2.00650000000000E+0003	 9.54661921083585E-0002	
 2.00850000000000E+0003	 9.55138055695005E-0002	
 2.01050000000000E+0003	 9.55649190306426E-0002	
 2.01250000000000E+0003	 9.56220324917846E-0002	
 2.01450000000000E+0003	 9.56456459529266E-0002	
 2.01650000000000E+0003	 9.56537594140687E-0002	
 2.01850000000000E+0003	 9.57313728752107E-0002	
 2.02050000000000E+0003	 9.58119863363527E-0002	
 2.02250000000000E+0003	 9.58875997974948E-0002	
 2.02450000000000E+0003	 9.59822132586368E-0002	
 2.02650000000000E+0003	 9.60563267197788E-0002	
 2.02850000000000E+0003	 9.61254401809209E-0002	
 2.03050000000000E+0003	 9.61855536420629E-0002	
 2.03250000000000E+0003	 9.62381671032049E-0002	
 2.03450000000000E+0003	 9.62997805643470E-0002	
 2.03650000000000E+0003	 9.63568940254890E-0002	
 2.03850000000000E+0003	 9.64085074866310E-0002	
 2.04050000000000E+0003	 9.64326209477730E-0002	
 2.04250000000000E+0003	 9.64882344089151E-0002	
 2.04450000000000E+0003	 9.65443478700571E-0002	
 2.04650000000000E+0003	 9.65994613311991E-0002	
 2.04850000000000E+0003	 9.66500747923412E-0002	
 2.05050000000000E+0003	 9.66961882534832E-0002	
 2.05250000000000E+0003	 9.67253017146252E-0002	
 2.05450000000000E+0003	 9.67614151757673E-0002	
 2.05650000000000E+0003	 9.67900286369093E-0002	
 2.05850000000000E+0003	 9.68236420980513E-0002	
 2.06050000000000E+0003	 9.68427555591934E-0002	
 2.06250000000000E+0003	 9.68588690203354E-0002	
 2.06450000000000E+0003	 9.68474824814774E-0002	
 2.06650000000000E+0003	 9.68890959426195E-0002	
 2.06850000000000E+0003	 9.69262094037615E-0002	
 2.07050000000000E+0003	 9.69658228649035E-0002	
 2.07250000000000E+0003	 9.70014363260456E-0002	
 2.07450000000000E+0003	 9.70250497871876E-0002	
 2.07650000000000E+0003	 9.70401632483296E-0002	
 2.07850000000000E+0003	 9.70537767094717E-0002	
 2.08050000000000E+0003	 9.70733901706137E-0002	
 2.08250000000000E+0003	 9.70905036317557E-0002	
 2.08450000000000E+0003	 9.71056170928978E-0002	
 2.08650000000000E+0003	 9.71102305540398E-0002	
 2.08850000000000E+0003	 9.71068440151818E-0002	
 2.09050000000000E+0003	 9.71064574763239E-0002	
 2.09250000000000E+0003	 9.71245709374659E-0002	
 2.09450000000000E+0003	 9.71366843986079E-0002	
 2.09650000000000E+0003	 9.71612978597500E-0002	
 2.09850000000000E+0003	 9.71744113208920E-0002	
 2.10050000000000E+0003	 9.71860247820340E-0002	
 2.10250000000000E+0003	 9.71886382431761E-0002	
 2.10450000000000E+0003	 9.71942517043181E-0002	
 2.10650000000000E+0003	 9.71928651654601E-0002	
 2.10850000000000E+0003	 9.71954786266022E-0002	
 2.11050000000000E+0003	 9.71945920877442E-0002	
 2.11250000000000E+0003	 9.71937055488862E-0002	
 2.11450000000000E+0003	 9.71813190100283E-0002	
 2.11650000000000E+0003	 9.71774324711703E-0002	
 2.11850000000000E+0003	 9.71725459323123E-0002	
 2.12050000000000E+0003	 9.71721593934544E-0002	
 2.12250000000000E+0003	 9.71717728545964E-0002	
 2.12450000000000E+0003	 9.71668863157384E-0002	
 2.12650000000000E+0003	 9.71614997768804E-0002	
 2.12850000000000E+0003	 9.71556132380225E-0002	
 2.13050000000000E+0003	 9.71547266991645E-0002	
 2.13250000000000E+0003	 9.71568401603065E-0002	
 2.13450000000000E+0003	 9.71509536214486E-0002	
 2.13650000000000E+0003	 9.71370670825906E-0002	
 2.13850000000000E+0003	 9.71366805437326E-0002	
 2.14050000000000E+0003	 9.71342940048747E-0002	
 2.14250000000000E+0003	 9.71339074660167E-0002	
 2.14450000000000E+0003	 9.71180209271587E-0002	
 2.14650000000000E+0003	 9.71091343883008E-0002	
 2.14850000000000E+0003	 9.70957478494428E-0002	
 2.15050000000000E+0003	 9.70788613105848E-0002	
 2.15250000000000E+0003	 9.70504747717269E-0002	
 2.15450000000000E+0003	 9.70260882328689E-0002	
 2.15650000000000E+0003	 9.69907016940109E-0002	
 2.15850000000000E+0003	 9.69618151551530E-0002	
 2.16050000000000E+0003	 9.69239286162950E-0002	
 2.16250000000000E+0003	 9.68850420774370E-0002	
 2.16450000000000E+0003	 9.68426555385791E-0002	
 2.16650000000000E+0003	 9.68147689997211E-0002	
 2.16850000000000E+0003	 9.67853824608631E-0002	
 2.17050000000000E+0003	 9.67454959220052E-0002	
 2.17250000000000E+0003	 9.66856093831472E-0002	
 2.17450000000000E+0003	 9.66332228442892E-0002	
 2.17650000000000E+0003	 9.65853363054313E-0002	
 2.17850000000000E+0003	 9.65424497665733E-0002	
 2.18050000000000E+0003	 9.64975632277153E-0002	
 2.18250000000000E+0003	 9.64546766888574E-0002	
 2.18450000000000E+0003	 9.64097901499994E-0002	
 2.18650000000000E+0003	 9.63694036111414E-0002	
 2.18850000000000E+0003	 9.63325170722835E-0002	
 2.19050000000000E+0003	 9.62966305334255E-0002	
 2.19250000000000E+0003	 9.62582439945675E-0002	
 2.19450000000000E+0003	 9.62183574557096E-0002	
 2.19650000000000E+0003	 9.61814709168516E-0002	
 2.19850000000000E+0003	 9.61480843779936E-0002	
 2.20050000000000E+0003	 9.61111978391357E-0002	
 2.20250000000000E+0003	 9.60703113002777E-0002	
 2.20450000000000E+0003	 9.60309247614197E-0002	
 2.20650000000000E+0003	 9.59965382225618E-0002	
 2.20850000000000E+0003	 9.59651516837038E-0002	
 2.21050000000000E+0003	 9.59322651448458E-0002	
 2.21250000000000E+0003	 9.59043786059878E-0002	
 2.21450000000000E+0003	 9.58754920671299E-0002	
 2.21650000000000E+0003	 9.58441055282719E-0002	
 2.21850000000000E+0003	 9.58122189894139E-0002	
 2.22050000000000E+0003	 9.57818324505560E-0002	
 2.22250000000000E+0003	 9.57509459116980E-0002	
 2.22450000000000E+0003	 9.57240593728400E-0002	
 2.22650000000000E+0003	 9.56966728339821E-0002	
 2.22850000000000E+0003	 9.56692862951241E-0002	
 2.23050000000000E+0003	 9.56418997562661E-0002	
 2.23250000000000E+0003	 9.56160132174082E-0002	
 2.23450000000000E+0003	 9.55906266785502E-0002	
 2.23650000000000E+0003	 9.55672401396922E-0002	
 2.23850000000000E+0003	 9.55438536008343E-0002	
 2.24050000000000E+0003	 9.55199670619763E-0002	
 2.24250000000000E+0003	 9.54930805231183E-0002	
 2.24450000000000E+0003	 9.54636939842604E-0002	
 2.24650000000000E+0003	 9.54363074454024E-0002	
 2.24850000000000E+0003	 9.54124209065444E-0002	
 2.25050000000000E+0003	 9.53880343676865E-0002	
 2.25250000000000E+0003	 9.53616478288285E-0002	
 2.25450000000000E+0003	 9.53352612899705E-0002	
 2.25650000000000E+0003	 9.53193747511126E-0002	
 2.25850000000000E+0003	 9.53104882122546E-0002	
 2.26050000000000E+0003	 9.53046016733966E-0002	
 2.26250000000000E+0003	 9.52972151345387E-0002	
 2.26450000000000E+0003	 9.52993285956807E-0002	
 2.26650000000000E+0003	 9.53064420568227E-0002	
 2.26850000000000E+0003	 9.53135555179648E-0002	
 2.27050000000000E+0003	 9.53146689791068E-0002	
 2.27250000000000E+0003	 9.53082824402488E-0002	
 2.27450000000000E+0003	 9.52853959013909E-0002	
 2.27650000000000E+0003	 9.52450093625329E-0002	
 2.27850000000000E+0003	 9.51906228236749E-0002	
 2.28050000000000E+0003	 9.51312362848170E-0002	
 2.28250000000000E+0003	 9.50698497459590E-0002	
 2.28450000000000E+0003	 9.49789632071010E-0002	
 2.28650000000000E+0003	 9.48230766682431E-0002	
 2.28850000000000E+0003	 9.46101901293851E-0002	
 2.29050000000000E+0003	 9.43588035905271E-0002	
 2.29250000000000E+0003	 9.40459170516692E-0002	
 2.29450000000000E+0003	 9.36985305128112E-0002	
 2.29650000000000E+0003	 9.33886439739532E-0002	
 2.29850000000000E+0003	 9.31642574350953E-0002	
 2.30050000000000E+0003	 9.30648708962373E-0002	
 2.30250000000000E+0003	 9.31579843573793E-0002	
 2.30450000000000E+0003	 9.32275978185213E-0002	
 2.30650000000000E+0003	 9.30807112796634E-0002	
 2.30850000000000E+0003	 9.29598247408054E-0002	
 2.31050000000000E+0003	 9.31179382019474E-0002	
 2.31250000000000E+0003	 9.35860516630895E-0002	
 2.31450000000000E+0003	 9.39681651242315E-0002	
 2.31650000000000E+0003	 9.39272785853735E-0002	
 2.31850000000000E+0003	 9.37703920465156E-0002	
 2.32050000000000E+0003	 9.35475055076576E-0002	
 2.32250000000000E+0003	 9.32821189687996E-0002	
 2.32450000000000E+0003	 9.32267324299417E-0002	
 2.32650000000000E+0003	 9.34788458910837E-0002	
 2.32850000000000E+0003	 9.39564593522257E-0002	
 2.33050000000000E+0003	 9.44245728133678E-0002	
 2.33250000000000E+0003	 9.48816862745098E-0002	
 2.33450000000000E+0003	 9.54122997356518E-0002	
 2.33650000000000E+0003	 9.57669131967939E-0002	
 2.33850000000000E+0003	 9.58220266579359E-0002	
 2.34050000000000E+0003	 9.54326401190779E-0002	
 2.34250000000000E+0003	 9.49817535802200E-0002	
 2.34450000000000E+0003	 9.52638670413620E-0002	
 2.34650000000000E+0003	 9.56164805025040E-0002	
 2.34850000000000E+0003	 9.55540939636461E-0002	
 2.35050000000000E+0003	 9.59192074247881E-0002	
 2.35250000000000E+0003	 9.64353208859301E-0002	
 2.35450000000000E+0003	 9.62919343470722E-0002	
 2.35650000000000E+0003	 9.58300478082142E-0002	
 2.35850000000000E+0003	 9.58371612693562E-0002	
 2.36050000000000E+0003	 9.62827747304983E-0002	
 2.36250000000000E+0003	 9.65593881916403E-0002	
 2.36450000000000E+0003	 9.65295016527823E-0002	
 2.36650000000000E+0003	 9.64516151139244E-0002	
 2.36850000000000E+0003	 9.64167285750664E-0002	
 2.37050000000000E+0003	 9.66718420362084E-0002	
 2.37250000000000E+0003	 9.75044554973505E-0002	
 2.37450000000000E+0003	 9.85195689584925E-0002	
 2.37650000000000E+0003	 9.87201824196345E-0002	
 2.37850000000000E+0003	 9.77022958807766E-0002	
 2.38050000000000E+0003	 9.63684093419186E-0002	
 2.38250000000000E+0003	 9.58130228030606E-0002	
 2.38450000000000E+0003	 9.62261362642027E-0002	
 2.38650000000000E+0003	 9.70157497253447E-0002	
 2.38850000000000E+0003	 9.76833631864867E-0002	
 2.39050000000000E+0003	 9.80839766476287E-0002	
 2.39250000000000E+0003	 9.83090901087708E-0002	
 2.39450000000000E+0003	 9.84432035699128E-0002	
 2.39650000000000E+0003	 9.85563170310548E-0002	
 2.39850000000000E+0003	 9.86629304921969E-0002	
 2.40050000000000E+0003	 9.87740439533389E-0002	
 2.40250000000000E+0003	 9.88861574144809E-0002	
 2.40450000000000E+0003	 9.90037708756230E-0002	
 2.40650000000000E+0003	 9.91203843367650E-0002	
 2.40850000000000E+0003	 9.92399977979070E-0002	
 2.41050000000000E+0003	 9.93621112590491E-0002	
 2.41250000000000E+0003	 9.94892247201911E-0002	
 2.41450000000000E+0003	 9.96243381813331E-0002	
 2.41650000000000E+0003	 9.97599516424752E-0002	
 2.41850000000000E+0003	 9.99020651036172E-0002	
 2.42050000000000E+0003	 1.00041178564759E-0001	
 2.42250000000000E+0003	 1.00189792025901E-0001	
 2.42450000000000E+0003	 1.00340905487043E-0001	
 2.42650000000000E+0003	 1.00496518948185E-0001	
 2.42850000000000E+0003	 1.00645632409327E-0001	
 2.43050000000000E+0003	 1.00806245870469E-0001	
 2.43250000000000E+0003	 1.00962859331611E-0001	
 2.43450000000000E+0003	 1.01126472792753E-0001	
 2.43650000000000E+0003	 1.01288086253895E-0001	
 2.43850000000000E+0003	 1.01460199715038E-0001	
 2.44050000000000E+0003	 1.01621813176180E-0001	
 2.44250000000000E+0003	 1.01787926637322E-0001	
 2.44450000000000E+0003	 1.01948540098464E-0001	
 2.44650000000000E+0003	 1.02116153559606E-0001	
 2.44850000000000E+0003	 1.02271767020748E-0001	
 2.45050000000000E+0003	 1.02433880481890E-0001	
 2.45250000000000E+0003	 1.02597493943032E-0001	
 2.45450000000000E+0003	 1.02767607404174E-0001	
 2.45650000000000E+0003	 1.02937220865316E-0001	
 2.45850000000000E+0003	 1.03106834326458E-0001	
 2.46050000000000E+0003	 1.03274447787600E-0001	
 2.46250000000000E+0003	 1.03447561248742E-0001	
 2.46450000000000E+0003	 1.03625674709884E-0001	
 2.46650000000000E+0003	 1.03804788171026E-0001	
 2.46850000000000E+0003	 1.03987401632168E-0001	
 2.47050000000000E+0003	 1.04171015093310E-0001	
 2.47250000000000E+0003	 1.04355628554452E-0001	
 2.47450000000000E+0003	 1.04533742015594E-0001	
 2.47650000000000E+0003	 1.04716355476736E-0001	
 2.47850000000000E+0003	 1.04896968937878E-0001	
 2.48050000000000E+0003	 1.05082582399020E-0001	
 2.48250000000000E+0003	 1.05259695860162E-0001	
 2.48450000000000E+0003	 1.05442309321304E-0001	
 2.48650000000000E+0003	 1.05617922782446E-0001	
 2.48850000000000E+0003	 1.05798536243588E-0001	
 2.49050000000000E+0003	 1.05970149704730E-0001	
 2.49250000000000E+0003	 1.06149763165872E-0001	
 2.49450000000000E+0003	 1.06317876627014E-0001	
 2.49650000000000E+0003	 1.06492490088156E-0001	
 2.49850000000000E+0003	 1.06659603549299E-0001	
 2.50050000000000E+0003	 1.06834717010441E-0001	
 2.50250000000000E+0003	 1.07003830471583E-0001	
 2.50450000000000E+0003	 1.07182943932725E-0001	
 2.50650000000000E+0003	 1.07351057393867E-0001	
 2.50850000000000E+0003	 1.07519670855009E-0001	
 2.51050000000000E+0003	 1.07680784316151E-0001	
 2.51250000000000E+0003	 1.07847397777293E-0001	
 2.51450000000000E+0003	 1.08012011238435E-0001	
 2.51650000000000E+0003	 1.08176124699577E-0001	
 2.51850000000000E+0003	 1.08335238160719E-0001	
 2.52050000000000E+0003	 1.08497851621861E-0001	
 2.52250000000000E+0003	 1.08657965083003E-0001	
 2.52450000000000E+0003	 1.08815078544145E-0001	
 2.52650000000000E+0003	 1.08974192005287E-0001	
 2.52850000000000E+0003	 1.09132805466429E-0001	
 2.53050000000000E+0003	 1.09292918927571E-0001	
 2.53250000000000E+0003	 1.09449532388713E-0001	
 2.53450000000000E+0003	 1.09611645849855E-0001	
 2.53650000000000E+0003	 1.09771259310997E-0001	
 2.53850000000000E+0003	 1.09934372772139E-0001	
 2.54050000000000E+0003	 1.10093986233281E-0001	
 2.54250000000000E+0003	 1.10259099694423E-0001	
 2.54450000000000E+0003	 1.10418713155565E-0001	
 2.54650000000000E+0003	 1.10582326616707E-0001	
 2.54850000000000E+0003	 1.10745940077849E-0001	
 2.55050000000000E+0003	 1.10914553538991E-0001	
 2.55250000000000E+0003	 1.11081167000133E-0001	
 2.55450000000000E+0003	 1.11251780461275E-0001	
 2.55650000000000E+0003	 1.11415893922417E-0001	
 2.55850000000000E+0003	 1.11583007383559E-0001	
 2.56050000000000E+0003	 1.11749120844702E-0001	
 2.56250000000000E+0003	 1.11919234305844E-0001	
 2.56450000000000E+0003	 1.12089347766986E-0001	
 2.56650000000000E+0003	 1.12266461228128E-0001	
 2.56850000000000E+0003	 1.12443574689270E-0001	
 2.57050000000000E+0003	 1.12622188150412E-0001	
 2.57250000000000E+0003	 1.12803801611554E-0001	
 2.57450000000000E+0003	 1.12990415072696E-0001	
 2.57650000000000E+0003	 1.13181028533838E-0001	
 2.57850000000000E+0003	 1.13375641994980E-0001	
 2.58050000000000E+0003	 1.13576255456122E-0001	
 2.58250000000000E+0003	 1.13773868917264E-0001	
 2.58450000000000E+0003	 1.13976982378406E-0001	
 2.58650000000000E+0003	 1.14184595839548E-0001	
 2.58850000000000E+0003	 1.14399209300690E-0001	
 2.59050000000000E+0003	 1.14612322761832E-0001	
 2.59250000000000E+0003	 1.14832936222974E-0001	
 2.59450000000000E+0003	 1.15054549684116E-0001	
 2.59650000000000E+0003	 1.15287663145258E-0001	
 2.59850000000000E+0003	 1.15520276606400E-0001	
 2.60050000000000E+0003	 1.15761390067542E-0001	
 2.60250000000000E+0003	 1.16005003528684E-0001	
 2.60450000000000E+0003	 1.16252616989826E-0001	
 2.60650000000000E+0003	 1.16494230450968E-0001	
 2.60850000000000E+0003	 1.16741843912110E-0001	
 2.61050000000000E+0003	 1.16994457373252E-0001	
 2.61250000000000E+0003	 1.17255070834394E-0001	
 2.61450000000000E+0003	 1.17516184295536E-0001	
 2.61650000000000E+0003	 1.17785297756678E-0001	
 2.61850000000000E+0003	 1.18048411217820E-0001	
 2.62050000000000E+0003	 1.18313524678962E-0001	
 2.62250000000000E+0003	 1.18583138140105E-0001	
 2.62450000000000E+0003	 1.18858751601247E-0001	
 2.62650000000000E+0003	 1.19134865062389E-0001	
 2.62850000000000E+0003	 1.19413478523531E-0001	
 2.63050000000000E+0003	 1.19696091984673E-0001	
 2.63250000000000E+0003	 1.19982205445815E-0001	
 2.63450000000000E+0003	 1.20269318906957E-0001	
 2.63650000000000E+0003	 1.20557932368099E-0001	
 2.63850000000000E+0003	 1.20848045829241E-0001	
 2.64050000000000E+0003	 1.21134159290383E-0001	
 2.64250000000000E+0003	 1.21423772751525E-0001	
 2.64450000000000E+0003	 1.21719886212667E-0001	
 2.64650000000000E+0003	 1.22015999673809E-0001	
 2.64850000000000E+0003	 1.22309113134951E-0001	
 2.65050000000000E+0003	 1.22602226596093E-0001	
 2.65250000000000E+0003	 1.22897840057235E-0001	
 2.65450000000000E+0003	 1.23192453518377E-0001	
 2.65650000000000E+0003	 1.23486566979519E-0001	
 2.65850000000000E+0003	 1.23781680440661E-0001	
 2.66050000000000E+0003	 1.24078293901803E-0001	
 2.66250000000000E+0003	 1.24370907362945E-0001	
 2.66450000000000E+0003	 1.24661020824087E-0001	
 2.66650000000000E+0003	 1.24950634285229E-0001	
 2.66850000000000E+0003	 1.25242247746371E-0001	
 2.67050000000000E+0003	 1.25532861207513E-0001	
 2.67250000000000E+0003	 1.25828474668655E-0001	
 2.67450000000000E+0003	 1.26121588129797E-0001	
 2.67650000000000E+0003	 1.26411201590939E-0001	
 2.67850000000000E+0003	 1.26697815052081E-0001	
 2.68050000000000E+0003	 1.26981428513223E-0001	
 2.68250000000000E+0003	 1.27255041974366E-0001	
 2.68450000000000E+0003	 1.27525655435508E-0001	
 2.68650000000000E+0003	 1.27797768896650E-0001	
 2.68850000000000E+0003	 1.28071882357792E-0001	
 2.69050000000000E+0003	 1.28343995818934E-0001	
 2.69250000000000E+0003	 1.28615609280076E-0001	
 2.69450000000000E+0003	 1.28888222741218E-0001	
 2.69650000000000E+0003	 1.29164336202360E-0001	
 2.69850000000000E+0003	 1.29443949663502E-0001	
 2.70050000000000E+0003	 1.29727063124644E-0001	
 2.70250000000000E+0003	 1.30015676585786E-0001	
 2.70450000000000E+0003	 1.30312790046928E-0001	
 2.70650000000000E+0003	 1.30616903508070E-0001	
 2.70850000000000E+0003	 1.30924516969212E-0001	
 2.71050000000000E+0003	 1.31240630430354E-0001	
 2.71250000000000E+0003	 1.31564743891496E-0001	
 2.71450000000000E+0003	 1.31900857352638E-0001	
 2.71650000000000E+0003	 1.32240970813780E-0001	
 2.71850000000000E+0003	 1.32587084274922E-0001	
 2.72050000000000E+0003	 1.32938197736064E-0001	
 2.72250000000000E+0003	 1.33294811197206E-0001	
 2.72450000000000E+0003	 1.33646424658348E-0001	
 2.72650000000000E+0003	 1.34002538119490E-0001	
 2.72850000000000E+0003	 1.34340651580632E-0001	
 2.73050000000000E+0003	 1.34671765041774E-0001	
 2.73250000000000E+0003	 1.35008378502916E-0001	
 2.73450000000000E+0003	 1.35345491964058E-0001	
 2.73650000000000E+0003	 1.35678605425200E-0001	
 2.73850000000000E+0003	 1.36005218886342E-0001	
 2.74050000000000E+0003	 1.36324332347484E-0001	
 2.74250000000000E+0003	 1.36640445808626E-0001	
 2.74450000000000E+0003	 1.36954059269769E-0001	
 2.74650000000000E+0003	 1.37276672730911E-0001	
 2.74850000000000E+0003	 1.37605286192053E-0001	
 2.75050000000000E+0003	 1.37927899653195E-0001	
 2.75250000000000E+0003	 1.38245013114337E-0001	
 2.75450000000000E+0003	 1.38569626575479E-0001	
 2.75650000000000E+0003	 1.38906240036621E-0001	
 2.75850000000000E+0003	 1.39251853497763E-0001	
 2.76050000000000E+0003	 1.39604966958905E-0001	
 2.76250000000000E+0003	 1.39964080420047E-0001	
 2.76450000000000E+0003	 1.40333693881189E-0001	
 2.76650000000000E+0003	 1.40708807342331E-0001	
 2.76850000000000E+0003	 1.41089420803473E-0001	
 2.77050000000000E+0003	 1.41475034264615E-0001	
 2.77250000000000E+0003	 1.41875147725757E-0001	
 2.77450000000000E+0003	 1.42289761186899E-0001	
 2.77650000000000E+0003	 1.42699374648041E-0001	
 2.77850000000000E+0003	 1.43100488109183E-0001	
 2.78050000000000E+0003	 1.43524101570325E-0001	
 2.78250000000000E+0003	 1.43960715031467E-0001	
 2.78450000000000E+0003	 1.44405328492609E-0001	
 2.78650000000000E+0003	 1.44869941953751E-0001	
 2.78850000000000E+0003	 1.45364555414893E-0001	
 2.79050000000000E+0003	 1.45851668876035E-0001	
 2.79250000000000E+0003	 1.46323282337177E-0001	
 2.79450000000000E+0003	 1.46803895798319E-0001	
 2.79650000000000E+0003	 1.47315509259461E-0001	
 2.79850000000000E+0003	 1.47844122720603E-0001	
 2.80050000000000E+0003	 1.48360236181745E-0001	
 2.80250000000000E+0003	 1.48875849642887E-0001	
 2.80450000000000E+0003	 1.49415963104029E-0001	
 2.80650000000000E+0003	 1.49971576565172E-0001	
 2.80850000000000E+0003	 1.50546190026314E-0001	
 2.81050000000000E+0003	 1.51137803487456E-0001	
 2.81250000000000E+0003	 1.51724416948598E-0001	
 2.81450000000000E+0003	 1.52320030409740E-0001	
 2.81650000000000E+0003	 1.52938643870882E-0001	
 2.81850000000000E+0003	 1.53580757332024E-0001	
 2.82050000000000E+0003	 1.54247370793166E-0001	
 2.82250000000000E+0003	 1.54942484254308E-0001	
 2.82450000000000E+0003	 1.55660597715450E-0001	
 2.82650000000000E+0003	 1.56404711176592E-0001	
 2.82850000000000E+0003	 1.57189324637734E-0001	
 2.83050000000000E+0003	 1.58024938098876E-0001	
 2.83250000000000E+0003	 1.58917551560018E-0001	
 2.83450000000000E+0003	 1.59880665021160E-0001	
 2.83650000000000E+0003	 1.60945278482302E-0001	
 2.83850000000000E+0003	 1.62152891943444E-0001	
 2.84050000000000E+0003	 1.63496005404586E-0001	
 2.84250000000000E+0003	 1.65058618865728E-0001	
 2.84450000000000E+0003	 1.66972232326870E-0001	
 2.84650000000000E+0003	 1.69253345788012E-0001	
 2.84850000000000E+0003	 1.71766459249154E-0001	
 2.85050000000000E+0003	 1.74242572710296E-0001	
 2.85250000000000E+0003	 1.76371686171438E-0001	
 2.85450000000000E+0003	 1.77897299632580E-0001	
 2.85650000000000E+0003	 1.78805913093722E-0001	
 2.85850000000000E+0003	 1.79347526554864E-0001	
 2.86050000000000E+0003	 1.79819640016006E-0001	
 2.86250000000000E+0003	 1.80422253477148E-0001	
 2.86450000000000E+0003	 1.81295366938290E-0001	
 2.86650000000000E+0003	 1.82458980399433E-0001	
 2.86850000000000E+0003	 1.83819593860575E-0001	
 2.87050000000000E+0003	 1.85244707321717E-0001	
 2.87250000000000E+0003	 1.86564820782859E-0001	
 2.87450000000000E+0003	 1.87543934244001E-0001	
 2.87650000000000E+0003	 1.88118547705143E-0001	
 2.87850000000000E+0003	 1.88456661166285E-0001	
 2.88050000000000E+0003	 1.88691274627427E-0001	
 2.88250000000000E+0003	 1.88904388088569E-0001	
 2.88450000000000E+0003	 1.89183501549711E-0001	
 2.88650000000000E+0003	 1.89573115010853E-0001	
 2.88850000000000E+0003	 1.90085228471995E-0001	
 2.89050000000000E+0003	 1.90714841933137E-0001	
 2.89250000000000E+0003	 1.91462955394279E-0001	
 2.89450000000000E+0003	 1.92336568855421E-0001	
 2.89650000000000E+0003	 1.93293682316563E-0001	
 2.89850000000000E+0003	 1.94295795777705E-0001	
 2.90050000000000E+0003	 1.95401409238847E-0001	
 2.90250000000000E+0003	 1.96657022699989E-0001	
 2.90450000000000E+0003	 1.98072136161131E-0001	
 2.90650000000000E+0003	 1.99661249622273E-0001	
 2.90850000000000E+0003	 2.01478363083415E-0001	
 2.91050000000000E+0003	 2.03571476544557E-0001	
 2.91250000000000E+0003	 2.05945590005699E-0001	
 2.91450000000000E+0003	 2.08510203466841E-0001	
 2.91650000000000E+0003	 2.11157316927983E-0001	
 2.91850000000000E+0003	 2.13806930389125E-0001	
 2.92050000000000E+0003	 2.16284043850267E-0001	
 2.92250000000000E+0003	 2.18417157311409E-0001	
 2.92450000000000E+0003	 2.20066270772551E-0001	
 2.92650000000000E+0003	 2.21192884233693E-0001	
 2.92850000000000E+0003	 2.21849497694836E-0001	
 2.93050000000000E+0003	 2.22026111155978E-0001	
 2.93250000000000E+0003	 2.21705224617120E-0001	
 2.93450000000000E+0003	 2.20973338078262E-0001	
 2.93650000000000E+0003	 2.19843451539404E-0001	
 2.93850000000000E+0003	 2.18324565000546E-0001	
 2.94050000000000E+0003	 2.16530678461688E-0001	
 2.94250000000000E+0003	 2.14664791922830E-0001	
 2.94450000000000E+0003	 2.12864405383972E-0001	
 2.94650000000000E+0003	 2.11235018845114E-0001	
 2.94850000000000E+0003	 2.09912132306256E-0001	
 2.95050000000000E+0003	 2.09052245767398E-0001	
 2.95250000000000E+0003	 2.08663859228540E-0001	
 2.95450000000000E+0003	 2.08523972689682E-0001	
 2.95650000000000E+0003	 2.08474586150824E-0001	
 2.95850000000000E+0003	 2.08384199611966E-0001	
 2.96050000000000E+0003	 2.08094813073108E-0001	
 2.96250000000000E+0003	 2.07480926534250E-0001	
 2.96450000000000E+0003	 2.06478539995392E-0001	
 2.96650000000000E+0003	 2.05087153456534E-0001	
 2.96850000000000E+0003	 2.03370766917676E-0001	
 2.97050000000000E+0003	 2.01638880378818E-0001	
 2.97250000000000E+0003	 2.00205493839960E-0001	
 2.97450000000000E+0003	 1.98894107301102E-0001	
 2.97650000000000E+0003	 1.97496720762244E-0001	
 2.97850000000000E+0003	 1.96082334223386E-0001	
 2.98050000000000E+0003	 1.94706447684528E-0001	
 2.98250000000000E+0003	 1.93346561145670E-0001	
 2.98450000000000E+0003	 1.92072674606812E-0001	
 2.98650000000000E+0003	 1.90943288067954E-0001	
 2.98850000000000E+0003	 1.89970401529096E-0001	
 2.99050000000000E+0003	 1.89169514990239E-0001	
 2.99250000000000E+0003	 1.88531128451381E-0001	
 2.99450000000000E+0003	 1.87991741912523E-0001	
 2.99650000000000E+0003	 1.87632855373665E-0001	
 2.99850000000000E+0003	 1.87463468834807E-0001	
 3.00050000000000E+0003	 1.87425082295949E-0001	
 3.00250000000000E+0003	 1.87538195757091E-0001	
 3.00450000000000E+0003	 1.87777809218233E-0001	
 3.00650000000000E+0003	 1.88092922679375E-0001	
 3.00850000000000E+0003	 1.88502536140517E-0001	
 3.01050000000000E+0003	 1.89033149601659E-0001	
 3.01250000000000E+0003	 1.89612263062801E-0001	
 3.01450000000000E+0003	 1.90168376523943E-0001	
 3.01650000000000E+0003	 1.90750989985085E-0001	
 3.01850000000000E+0003	 1.91457603446227E-0001	
 3.02050000000000E+0003	 1.92269216907369E-0001	
 3.02250000000000E+0003	 1.93156830368511E-0001	
 3.02450000000000E+0003	 1.94129943829653E-0001	
 3.02650000000000E+0003	 1.95132057290795E-0001	
 3.02850000000000E+0003	 1.96164670751937E-0001	
 3.03050000000000E+0003	 1.97246784213079E-0001	
 3.03250000000000E+0003	 1.98371397674221E-0001	
 3.03450000000000E+0003	 1.99521011135363E-0001	
 3.03650000000000E+0003	 2.00633624596505E-0001	
 3.03850000000000E+0003	 2.01773238057647E-0001	
 3.04050000000000E+0003	 2.03009351518789E-0001	
 3.04250000000000E+0003	 2.04268464979931E-0001	
 3.04450000000000E+0003	 2.05479078441073E-0001	
 3.04650000000000E+0003	 2.06661191902215E-0001	
 3.04850000000000E+0003	 2.07873805363357E-0001	
 3.05050000000000E+0003	 2.09152418824499E-0001	
 3.05250000000000E+0003	 2.10424532285642E-0001	
 3.05450000000000E+0003	 2.11676645746784E-0001	
 3.05650000000000E+0003	 2.12923759207926E-0001	
 3.05850000000000E+0003	 2.14126872669068E-0001	
 3.06050000000000E+0003	 2.15292486130210E-0001	
 3.06250000000000E+0003	 2.16433099591352E-0001	
 3.06450000000000E+0003	 2.17535713052494E-0001	
 3.06650000000000E+0003	 2.18605326513636E-0001	
 3.06850000000000E+0003	 2.19609939974778E-0001	
 3.07050000000000E+0003	 2.20536553435920E-0001	
 3.07250000000000E+0003	 2.21452666897062E-0001	
 3.07450000000000E+0003	 2.22382780358204E-0001	
 3.07650000000000E+0003	 2.23354893819346E-0001	
 3.07850000000000E+0003	 2.24333007280488E-0001	
 3.08050000000000E+0003	 2.25237120741630E-0001	
 3.08250000000000E+0003	 2.26090234202772E-0001	
 3.08450000000000E+0003	 2.26948347663914E-0001	
 3.08650000000000E+0003	 2.27775461125056E-0001	
 3.08850000000000E+0003	 2.28597074586198E-0001	
 3.09050000000000E+0003	 2.29424688047340E-0001	
 3.09250000000000E+0003	 2.30207801508482E-0001	
 3.09450000000000E+0003	 2.30977914969624E-0001	
 3.09650000000000E+0003	 2.31786028430766E-0001	
 3.09850000000000E+0003	 2.32625641891908E-0001	
 3.10050000000000E+0003	 2.33478755353050E-0001	
 3.10250000000000E+0003	 2.34314868814192E-0001	
 3.10450000000000E+0003	 2.35169482275334E-0001	
 3.10650000000000E+0003	 2.36093595736476E-0001	
 3.10850000000000E+0003	 2.37076709197618E-0001	
 3.11050000000000E+0003	 2.38030322658760E-0001	
 3.11250000000000E+0003	 2.39004436119903E-0001	
 3.11450000000000E+0003	 2.40102049581045E-0001	
 3.11650000000000E+0003	 2.41265663042187E-0001	
 3.11850000000000E+0003	 2.42410276503329E-0001	
 3.12050000000000E+0003	 2.43528389964471E-0001	
 3.12250000000000E+0003	 2.44610003425613E-0001	
 3.12450000000000E+0003	 2.45746116886755E-0001	
 3.12650000000000E+0003	 2.46994230347897E-0001	
 3.12850000000000E+0003	 2.48324843809039E-0001	
 3.13050000000000E+0003	 2.49674957270181E-0001	
 3.13250000000000E+0003	 2.51019570731323E-0001	
 3.13450000000000E+0003	 2.52412184192465E-0001	
 3.13650000000000E+0003	 2.53893297653607E-0001	
 3.13850000000000E+0003	 2.55437911114749E-0001	
 3.14050000000000E+0003	 2.56936024575891E-0001	
 3.14250000000000E+0003	 2.58389138037033E-0001	
 3.14450000000000E+0003	 2.59912251498175E-0001	
 3.14650000000000E+0003	 2.61510864959317E-0001	
 3.14850000000000E+0003	 2.63176478420459E-0001	
 3.15050000000000E+0003	 2.64955091881601E-0001	
 3.15250000000000E+0003	 2.66750705342743E-0001	
 3.15450000000000E+0003	 2.68412318803885E-0001	
 3.15650000000000E+0003	 2.70055932265027E-0001	
 3.15850000000000E+0003	 2.71798045726169E-0001	
 3.16050000000000E+0003	 2.73607659187311E-0001	
 3.16250000000000E+0003	 2.75441772648453E-0001	
 3.16450000000000E+0003	 2.77293386109595E-0001	
 3.16650000000000E+0003	 2.79166499570737E-0001	
 3.16850000000000E+0003	 2.81056613031879E-0001	
 3.17050000000000E+0003	 2.82957726493021E-0001	
 3.17250000000000E+0003	 2.84865339954163E-0001	
 3.17450000000000E+0003	 2.86772953415306E-0001	
 3.17650000000000E+0003	 2.88690566876448E-0001	
 3.17850000000000E+0003	 2.90620180337590E-0001	
 3.18050000000000E+0003	 2.92540793798732E-0001	
 3.18250000000000E+0003	 2.94445907259874E-0001	
 3.18450000000000E+0003	 2.96345520721016E-0001	
 3.18650000000000E+0003	 2.98245134182158E-0001	
 3.18850000000000E+0003	 3.00139247643300E-0001	
 3.19050000000000E+0003	 3.02006861104442E-0001	
 3.19250000000000E+0003	 3.03849974565584E-0001	
 3.19450000000000E+0003	 3.05678088026726E-0001	
 3.19650000000000E+0003	 3.07496201487868E-0001	
 3.19850000000000E+0003	 3.09305314949010E-0001	
 3.20050000000000E+0003	 3.11100928410152E-0001	
 3.20250000000000E+0003	 3.12870541871294E-0001	
 3.20450000000000E+0003	 3.14618155332436E-0001	
 3.20650000000000E+0003	 3.16347268793578E-0001	
 3.20850000000000E+0003	 3.18049882254720E-0001	
 3.21050000000000E+0003	 3.19743995715862E-0001	
 3.21250000000000E+0003	 3.21447109177004E-0001	
 3.21450000000000E+0003	 3.23150222638146E-0001	
 3.21650000000000E+0003	 3.24847836099288E-0001	
 3.21850000000000E+0003	 3.26546949560430E-0001	
 3.22050000000000E+0003	 3.28242063021572E-0001	
 3.22250000000000E+0003	 3.29936176482714E-0001	
 3.22450000000000E+0003	 3.31650289943856E-0001	
 3.22650000000000E+0003	 3.33384903404998E-0001	
 3.22850000000000E+0003	 3.35152016866140E-0001	
 3.23050000000000E+0003	 3.36992130327282E-0001	
 3.23250000000000E+0003	 3.38916243788424E-0001	
 3.23450000000000E+0003	 3.40757857249566E-0001	
 3.23650000000000E+0003	 3.42507470710709E-0001	
 3.23850000000000E+0003	 3.44336084171851E-0001	
 3.24050000000000E+0003	 3.46261197632993E-0001	
 3.24250000000000E+0003	 3.48238311094135E-0001	
 3.24450000000000E+0003	 3.50296924555277E-0001	
 3.24650000000000E+0003	 3.52408038016419E-0001	
 3.24850000000000E+0003	 3.54464651477561E-0001	
 3.25050000000000E+0003	 3.56497764938703E-0001	
 3.25250000000000E+0003	 3.58614378399845E-0001	
 3.25450000000000E+0003	 3.60807991860987E-0001	
 3.25650000000000E+0003	 3.63000605322129E-0001	
 3.25850000000000E+0003	 3.65153218783271E-0001	
 3.26050000000000E+0003	 3.67319332244413E-0001	
 3.26250000000000E+0003	 3.69497945705555E-0001	
 3.26450000000000E+0003	 3.71667059166697E-0001	
 3.26650000000000E+0003	 3.73817172627839E-0001	
 3.26850000000000E+0003	 3.75981786088981E-0001	
 3.27050000000000E+0003	 3.78115899550123E-0001	
 3.27250000000000E+0003	 3.80090513011265E-0001	
 3.27450000000000E+0003	 3.81939126472407E-0001	
 3.27650000000000E+0003	 3.83744239933549E-0001	
 3.27850000000000E+0003	 3.85480853394691E-0001	
 3.28050000000000E+0003	 3.87148466855833E-0001	
 3.28250000000000E+0003	 3.88742580316975E-0001	
 3.28450000000000E+0003	 3.90257693778117E-0001	
 3.28650000000000E+0003	 3.91684807239259E-0001	
 3.28850000000000E+0003	 3.93041920700401E-0001	
 3.29050000000000E+0003	 3.94360034161543E-0001	
 3.29250000000000E+0003	 3.95603647622685E-0001	
 3.29450000000000E+0003	 3.96721261083827E-0001	
 3.29650000000000E+0003	 3.97732874544970E-0001	
 3.29850000000000E+0003	 3.98654988006112E-0001	
 3.30050000000000E+0003	 3.99544101467254E-0001	
 3.30250000000000E+0003	 4.00460714928396E-0001	
 3.30450000000000E+0003	 4.01400328389538E-0001	
 3.30650000000000E+0003	 4.02239441850680E-0001	
 3.30850000000000E+0003	 4.02930055311822E-0001	
 3.31050000000000E+0003	 4.03548168772964E-0001	
 3.31250000000000E+0003	 4.04174282234106E-0001	
 3.31450000000000E+0003	 4.04833895695248E-0001	
 3.31650000000000E+0003	 4.05510009156390E-0001	
 3.31850000000000E+0003	 4.06184122617532E-0001	
 3.32050000000000E+0003	 4.06868736078674E-0001	
 3.32250000000000E+0003	 4.07580849539816E-0001	
 3.32450000000000E+0003	 4.08339963000958E-0001	
 3.32650000000000E+0003	 4.09080576462100E-0001	
 3.32850000000000E+0003	 4.09778689923242E-0001	
 3.33050000000000E+0003	 4.10508303384384E-0001	
 3.33250000000000E+0003	 4.11295416845526E-0001	
 3.33450000000000E+0003	 4.12126030306668E-0001	
 3.33650000000000E+0003	 4.13033143767810E-0001	
 3.33850000000000E+0003	 4.13957757228952E-0001	
 3.34050000000000E+0003	 4.14821870690094E-0001	
 3.34250000000000E+0003	 4.15680484151236E-0001	
 3.34450000000000E+0003	 4.16553097612378E-0001	
 3.34650000000000E+0003	 4.17447211073520E-0001	
 3.34850000000000E+0003	 4.18457824534662E-0001	
 3.35050000000000E+0003	 4.19500937995804E-0001	
 3.35250000000000E+0003	 4.20415051456946E-0001	
 3.35450000000000E+0003	 4.21283164918088E-0001	
 3.35650000000000E+0003	 4.22243778379230E-0001	
 3.35850000000000E+0003	 4.23277391840373E-0001	
 3.36050000000000E+0003	 4.24321005301515E-0001	
 3.36250000000000E+0003	 4.25323618762657E-0001	
 3.36450000000000E+0003	 4.26391732223799E-0001	
 3.36650000000000E+0003	 4.27571845684941E-0001	
 3.36850000000000E+0003	 4.28702959146083E-0001	
 3.37050000000000E+0003	 4.29587072607225E-0001	
 3.37250000000000E+0003	 4.30326186068367E-0001	
 3.37450000000000E+0003	 4.31153799529509E-0001	
 3.37650000000000E+0003	 4.32055412990651E-0001	
 3.37850000000000E+0003	 4.32918526451793E-0001	
 3.38050000000000E+0003	 4.33728139912935E-0001	
 3.38250000000000E+0003	 4.34470753374077E-0001	
 3.38450000000000E+0003	 4.35196366835219E-0001	
 3.38650000000000E+0003	 4.35941480296361E-0001	
 3.38850000000000E+0003	 4.36782093757503E-0001	
 3.39050000000000E+0003	 4.37700707218645E-0001	
 3.39250000000000E+0003	 4.38390820679787E-0001	
 3.39450000000000E+0003	 4.38806934140929E-0001	
 3.39650000000000E+0003	 4.39321547602071E-0001	
 3.39850000000000E+0003	 4.40108661063213E-0001	
 3.40050000000000E+0003	 4.40850274524355E-0001	
 3.40250000000000E+0003	 4.41146387985497E-0001	
 3.40450000000000E+0003	 4.41268501446639E-0001	
 3.40650000000000E+0003	 4.41591614907781E-0001	
 3.40850000000000E+0003	 4.42033728368923E-0001	
 3.41050000000000E+0003	 4.42395841830065E-0001	
 3.41250000000000E+0003	 4.42658955291207E-0001	
 3.41450000000000E+0003	 4.42777568752349E-0001	
 3.41650000000000E+0003	 4.42819182213491E-0001	
 3.41850000000000E+0003	 4.42881295674633E-0001	
 3.42050000000000E+0003	 4.42906909135776E-0001	
 3.42250000000000E+0003	 4.42828522596918E-0001	
 3.42450000000000E+0003	 4.42713136058060E-0001	
 3.42650000000000E+0003	 4.42623749519202E-0001	
 3.42850000000000E+0003	 4.42527362980344E-0001	
 3.43050000000000E+0003	 4.42279476441486E-0001	
 3.43250000000000E+0003	 4.41951089902628E-0001	
 3.43450000000000E+0003	 4.41656203363770E-0001	
 3.43650000000000E+0003	 4.41156316824912E-0001	
 3.43850000000000E+0003	 4.40331930286054E-0001	
 3.44050000000000E+0003	 4.39432043747196E-0001	
 3.44250000000000E+0003	 4.38611157208338E-0001	
 3.44450000000000E+0003	 4.37826270669480E-0001	
 3.44650000000000E+0003	 4.36979384130622E-0001	
 3.44850000000000E+0003	 4.36026497591764E-0001	
 3.45050000000000E+0003	 4.35018611052906E-0001	
 3.45250000000000E+0003	 4.33983724514048E-0001	
 3.45450000000000E+0003	 4.32899337975190E-0001	
 3.45650000000000E+0003	 4.31806451436332E-0001	
 3.45850000000000E+0003	 4.30736064897474E-0001	
 3.46050000000000E+0003	 4.29553178358616E-0001	
 3.46250000000000E+0003	 4.28212291819758E-0001	
 3.46450000000000E+0003	 4.27005405280900E-0001	
 3.46650000000000E+0003	 4.25980018742042E-0001	
 3.46850000000000E+0003	 4.24728132203184E-0001	
 3.47050000000000E+0003	 4.22996245664326E-0001	
 3.47250000000000E+0003	 4.21141359125468E-0001	
 3.47450000000000E+0003	 4.19482472586610E-0001	
 3.47650000000000E+0003	 4.17995586047752E-0001	
 3.47850000000000E+0003	 4.16595199508894E-0001	
 3.48050000000000E+0003	 4.14985312970036E-0001	
 3.48250000000000E+0003	 4.13132426431179E-0001	
 3.48450000000000E+0003	 4.11413039892321E-0001	
 3.48650000000000E+0003	 4.09780153353463E-0001	
 3.48850000000000E+0003	 4.08006766814605E-0001	
 3.49050000000000E+0003	 4.06184380275747E-0001	
 3.49250000000000E+0003	 4.04438993736889E-0001	
 3.49450000000000E+0003	 4.02719607198031E-0001	
 3.49650000000000E+0003	 4.00960720659173E-0001	
 3.49850000000000E+0003	 3.99120834120315E-0001	
 3.50050000000000E+0003	 3.97316947581457E-0001	
 3.50250000000000E+0003	 3.95456061042599E-0001	
 3.50450000000000E+0003	 3.93334174503741E-0001	
 3.50650000000000E+0003	 3.91196287964883E-0001	
 3.50850000000000E+0003	 3.89189401426025E-0001	
 3.51050000000000E+0003	 3.87250514887167E-0001	
 3.51250000000000E+0003	 3.85393128348309E-0001	
 3.51450000000000E+0003	 3.83421741809451E-0001	
 3.51650000000000E+0003	 3.81282355270593E-0001	
 3.51850000000000E+0003	 3.79148968731735E-0001	
 3.52050000000000E+0003	 3.77147082192877E-0001	
 3.52250000000000E+0003	 3.75228195654019E-0001	
 3.52450000000000E+0003	 3.73096809115161E-0001	
 3.52650000000000E+0003	 3.70744422576303E-0001	
 3.52850000000000E+0003	 3.68447036037445E-0001	
 3.53050000000000E+0003	 3.66239149498587E-0001	
 3.53250000000000E+0003	 3.64094762959729E-0001	
 3.53450000000000E+0003	 3.62020376420871E-0001	
 3.53650000000000E+0003	 3.59826989882013E-0001	
 3.53850000000000E+0003	 3.57425103343155E-0001	
 3.54050000000000E+0003	 3.55127216804297E-0001	
 3.54250000000000E+0003	 3.52996830265440E-0001	
 3.54450000000000E+0003	 3.50738943726582E-0001	
 3.54650000000000E+0003	 3.48105557187724E-0001	
 3.54850000000000E+0003	 3.45369670648866E-0001	
 3.55050000000000E+0003	 3.42840784110008E-0001	
 3.55250000000000E+0003	 3.40289897571150E-0001	
 3.55450000000000E+0003	 3.37658011032292E-0001	
 3.55650000000000E+0003	 3.35095624493434E-0001	
 3.55850000000000E+0003	 3.32562737954576E-0001	
 3.56050000000000E+0003	 3.29981851415718E-0001	
 3.56250000000000E+0003	 3.27296964876860E-0001	
 3.56450000000000E+0003	 3.24543578338002E-0001	
 3.56650000000000E+0003	 3.21698691799144E-0001	
 3.56850000000000E+0003	 3.18829805260286E-0001	
 3.57050000000000E+0003	 3.16094418721428E-0001	
 3.57250000000000E+0003	 3.13341532182570E-0001	
 3.57450000000000E+0003	 3.10486645643712E-0001	
 3.57650000000000E+0003	 3.07604759104854E-0001	
 3.57850000000000E+0003	 3.04740372565996E-0001	
 3.58050000000000E+0003	 3.01907986027138E-0001	
 3.58250000000000E+0003	 2.99110599488280E-0001	
 3.58450000000000E+0003	 2.96310712949422E-0001	
 3.58650000000000E+0003	 2.93217326410564E-0001	
 3.58850000000000E+0003	 2.89808939871706E-0001	
 3.59050000000000E+0003	 2.86674053332848E-0001	
 3.59250000000000E+0003	 2.83777666793990E-0001	
 3.59450000000000E+0003	 2.80755780255132E-0001	
 3.59650000000000E+0003	 2.77741893716274E-0001	
 3.59850000000000E+0003	 2.74837507177416E-0001	
 3.60050000000000E+0003	 2.71855120638558E-0001	
 3.60250000000000E+0003	 2.68836734099700E-0001	
 3.60450000000000E+0003	 2.65875347560843E-0001	
 3.60650000000000E+0003	 2.62842961021985E-0001	
 3.60850000000000E+0003	 2.59723574483127E-0001	
 3.61050000000000E+0003	 2.56734687944269E-0001	
 3.61250000000000E+0003	 2.53890801405411E-0001	
 3.61450000000000E+0003	 2.51036914866553E-0001	
 3.61650000000000E+0003	 2.48296028327695E-0001	
 3.61850000000000E+0003	 2.45608141788837E-0001	
 3.62050000000000E+0003	 2.42709755249979E-0001	
 3.62250000000000E+0003	 2.39723368711121E-0001	
 3.62450000000000E+0003	 2.36867982172263E-0001	
 3.62650000000000E+0003	 2.34112095633405E-0001	
 3.62850000000000E+0003	 2.31193709094547E-0001	
 3.63050000000000E+0003	 2.28280322555689E-0001	
 3.63250000000000E+0003	 2.25800936016831E-0001	
 3.63450000000000E+0003	 2.23408049477973E-0001	
 3.63650000000000E+0003	 2.20955162939115E-0001	
 3.63850000000000E+0003	 2.18544776400257E-0001	
 3.64050000000000E+0003	 2.16176889861399E-0001	
 3.64250000000000E+0003	 2.13854003322541E-0001	
 3.64450000000000E+0003	 2.11619616783683E-0001	
 3.64650000000000E+0003	 2.09456730244825E-0001	
 3.64850000000000E+0003	 2.07283843705967E-0001	
 3.65050000000000E+0003	 2.05079457167109E-0001	
 3.65250000000000E+0003	 2.02949570628251E-0001	
 3.65450000000000E+0003	 2.01010184089393E-0001	
 3.65650000000000E+0003	 1.99123297550535E-0001	
 3.65850000000000E+0003	 1.97298911011677E-0001	
 3.66050000000000E+0003	 1.95525524472819E-0001	
 3.66250000000000E+0003	 1.93673637933961E-0001	
 3.66450000000000E+0003	 1.91870251395103E-0001	
 3.66650000000000E+0003	 1.90221364856246E-0001	
 3.66850000000000E+0003	 1.88643478317388E-0001	
 3.67050000000000E+0003	 1.87045091778530E-0001	
 3.67250000000000E+0003	 1.85614205239672E-0001	
 3.67450000000000E+0003	 1.84324818700814E-0001	
 3.67650000000000E+0003	 1.82955432161956E-0001	
 3.67850000000000E+0003	 1.81710045623098E-0001	
 3.68050000000000E+0003	 1.80584159084240E-0001	
 3.68250000000000E+0003	 1.79468772545382E-0001	
 3.68450000000000E+0003	 1.78426386006524E-0001	
 3.68650000000000E+0003	 1.77581999467666E-0001	
 3.68850000000000E+0003	 1.76753612928808E-0001	
 3.69050000000000E+0003	 1.75590726389950E-0001	
 3.69250000000000E+0003	 1.74445339851092E-0001	
 3.69450000000000E+0003	 1.73603953312234E-0001	
 3.69650000000000E+0003	 1.72854566773376E-0001	
 3.69850000000000E+0003	 1.72104680234518E-0001	
 3.70050000000000E+0003	 1.71402793695660E-0001	
 3.70250000000000E+0003	 1.70701407156802E-0001	
 3.70450000000000E+0003	 1.70006020617944E-0001	
 3.70650000000000E+0003	 1.69329134079086E-0001	
 3.70850000000000E+0003	 1.68641247540228E-0001	
 3.71050000000000E+0003	 1.68039361001370E-0001	
 3.71250000000000E+0003	 1.67653974462512E-0001	
 3.71450000000000E+0003	 1.67334087923654E-0001	
 3.71650000000000E+0003	 1.66943201384796E-0001	
 3.71850000000000E+0003	 1.66490314845938E-0001	
 3.72050000000000E+0003	 1.65992928307080E-0001	
 3.72250000000000E+0003	 1.65504041768222E-0001	
 3.72450000000000E+0003	 1.65022155229364E-0001	
 3.72650000000000E+0003	 1.64533768690507E-0001	
 3.72850000000000E+0003	 1.64129882151649E-0001	
 3.73050000000000E+0003	 1.63876495612791E-0001	
 3.73250000000000E+0003	 1.63634109073933E-0001	
 3.73450000000000E+0003	 1.63189222535075E-0001	
 3.73650000000000E+0003	 1.62734335996217E-0001	
 3.73850000000000E+0003	 1.62455449457359E-0001	
 3.74050000000000E+0003	 1.62152562918501E-0001	
 3.74250000000000E+0003	 1.61801176379643E-0001	
 3.74450000000000E+0003	 1.61545289840785E-0001	
 3.74650000000000E+0003	 1.61358903301927E-0001	
 3.74850000000000E+0003	 1.61152016763069E-0001	
 3.75050000000000E+0003	 1.60985630224211E-0001	
 3.75250000000000E+0003	 1.60854743685353E-0001	
 3.75450000000000E+0003	 1.60682357146495E-0001	
 3.75650000000000E+0003	 1.60474470607637E-0001	
 3.75850000000000E+0003	 1.60256084068779E-0001	
 3.76050000000000E+0003	 1.60039197529921E-0001	
 3.76250000000000E+0003	 1.59831810991063E-0001	
 3.76450000000000E+0003	 1.59621424452205E-0001	
 3.76650000000000E+0003	 1.59411537913347E-0001	
 3.76850000000000E+0003	 1.59214151374489E-0001	
 3.77050000000000E+0003	 1.59032764835631E-0001	
 3.77250000000000E+0003	 1.58852378296773E-0001	
 3.77450000000000E+0003	 1.58665491757915E-0001	
 3.77650000000000E+0003	 1.58502105219057E-0001	
 3.77850000000000E+0003	 1.58367218680199E-0001	
 3.78050000000000E+0003	 1.58200832141341E-0001	
 3.78250000000000E+0003	 1.57991945602483E-0001	
 3.78450000000000E+0003	 1.57807559063625E-0001	
 3.78650000000000E+0003	 1.57656172524767E-0001	
 3.78850000000000E+0003	 1.57517285985910E-0001	
 3.79050000000000E+0003	 1.57370399447052E-0001	
 3.79250000000000E+0003	 1.57199012908194E-0001	
 3.79450000000000E+0003	 1.57012626369336E-0001	
 3.79650000000000E+0003	 1.56833739830478E-0001	
 3.79850000000000E+0003	 1.56672353291620E-0001	
 3.80050000000000E+0003	 1.56521466752762E-0001	
 3.80250000000000E+0003	 1.56405580213904E-0001	
 3.80450000000000E+0003	 1.56311693675046E-0001	
 3.80650000000000E+0003	 1.56210807136188E-0001	
 3.80850000000000E+0003	 1.56114420597330E-0001	
 3.81050000000000E+0003	 1.55998534058472E-0001	
 3.81250000000000E+0003	 1.55874647519614E-0001	
 3.81450000000000E+0003	 1.55758260980756E-0001	
 3.81650000000000E+0003	 1.55648874441898E-0001	
 3.81850000000000E+0003	 1.55552487903040E-0001	
 3.82050000000000E+0003	 1.55463601364182E-0001	
 3.82250000000000E+0003	 1.55382714825324E-0001	
 3.82450000000000E+0003	 1.55292828286466E-0001	
 3.82650000000000E+0003	 1.55198441747608E-0001	
 3.82850000000000E+0003	 1.55107555208750E-0001	
 3.83050000000000E+0003	 1.55008168669892E-0001	
 3.83250000000000E+0003	 1.54919782131034E-0001	
 3.83450000000000E+0003	 1.54888395592176E-0001	
 3.83650000000000E+0003	 1.54865509053318E-0001	
 3.83850000000000E+0003	 1.54770122514460E-0001	
 3.84050000000000E+0003	 1.54661235975602E-0001	
 3.84250000000000E+0003	 1.54602349436744E-0001	
 3.84450000000000E+0003	 1.54572962897886E-0001	
 3.84650000000000E+0003	 1.54503576359028E-0001	
 3.84850000000000E+0003	 1.54375189820170E-0001	
 3.85050000000000E+0003	 1.54253803281313E-0001	
 3.85250000000000E+0003	 1.54179916742455E-0001	
 3.85450000000000E+0003	 1.54156530203597E-0001	
 3.85650000000000E+0003	 1.54150643664739E-0001	
 3.85850000000000E+0003	 1.54120257125881E-0001	
 3.86050000000000E+0003	 1.54083870587023E-0001	
 3.86250000000000E+0003	 1.54035484048165E-0001	
 3.86450000000000E+0003	 1.53979597509307E-0001	
 3.86650000000000E+0003	 1.53931210970449E-0001	
 3.86850000000000E+0003	 1.53899324431591E-0001	
 3.87050000000000E+0003	 1.53876437892733E-0001	
 3.87250000000000E+0003	 1.53849551353875E-0001	
 3.87450000000000E+0003	 1.53813164815017E-0001	
 3.87650000000000E+0003	 1.53780778276159E-0001	
 3.87850000000000E+0003	 1.53759891737301E-0001	
 3.88050000000000E+0003	 1.53731505198443E-0001	
 3.88250000000000E+0003	 1.53719118659585E-0001	
 3.88450000000000E+0003	 1.53745732120727E-0001	
 3.88650000000000E+0003	 1.53725345581869E-0001	
 3.88850000000000E+0003	 1.53667459043011E-0001	
 3.89050000000000E+0003	 1.53648572504153E-0001	
 3.89250000000000E+0003	 1.53625685965295E-0001	
 3.89450000000000E+0003	 1.53583799426437E-0001	
 3.89650000000000E+0003	 1.53562912887579E-0001	
 3.89850000000000E+0003	 1.53554026348721E-0001	
 3.90050000000000E+0003	 1.53536639809863E-0001	
 3.90250000000000E+0003	 1.53532753271005E-0001	
 3.90450000000000E+0003	 1.53546866732147E-0001	
 3.90650000000000E+0003	 1.53554480193289E-0001	
 3.90850000000000E+0003	 1.53559593654431E-0001	
 3.91050000000000E+0003	 1.53565707115574E-0001	
 3.91250000000000E+0003	 1.53567820576716E-0001	
 3.91450000000000E+0003	 1.53576934037858E-0001	
 3.91650000000000E+0003	 1.53590047499000E-0001	
 3.91850000000000E+0003	 1.53590660960142E-0001	
 3.92050000000000E+0003	 1.53590774421284E-0001	
 3.92250000000000E+0003	 1.53599387882426E-0001	
 3.92450000000000E+0003	 1.53606501343568E-0001	
 3.92650000000000E+0003	 1.53601614804710E-0001	
 3.92850000000000E+0003	 1.53610728265852E-0001	
 3.93050000000000E+0003	 1.53637341726994E-0001	
 3.93250000000000E+0003	 1.53651455188136E-0001	
 3.93450000000000E+0003	 1.53652068649278E-0001	
 3.93650000000000E+0003	 1.53648682110420E-0001	
 3.93850000000000E+0003	 1.53641295571562E-0001	
 3.94050000000000E+0003	 1.53643409032704E-0001	
 3.94250000000000E+0003	 1.53646022493846E-0001	
 3.94450000000000E+0003	 1.53635635954988E-0001	
 3.94650000000000E+0003	 1.53636249416130E-0001	
 3.94850000000000E+0003	 1.53641362877272E-0001	
 3.95050000000000E+0003	 1.53633976338414E-0001	
 3.95250000000000E+0003	 1.53633589799556E-0001	
 3.95450000000000E+0003	 1.53642203260698E-0001	
 3.95650000000000E+0003	 1.53644816721840E-0001	
 3.95850000000000E+0003	 1.53639430182982E-0001	
 3.96050000000000E+0003	 1.53639543644124E-0001	
 3.96250000000000E+0003	 1.53641657105266E-0001	
 3.96450000000000E+0003	 1.53642770566408E-0001	
 3.96650000000000E+0003	 1.53647884027550E-0001	
 3.96850000000000E+0003	 1.53654497488692E-0001	
 3.97050000000000E+0003	 1.53657110949834E-0001	
 3.97250000000000E+0003	 1.53661224410977E-0001	
 3.97450000000000E+0003	 1.53668837872119E-0001	
 3.97650000000000E+0003	 1.53678951333261E-0001	
 3.97850000000000E+0003	 1.53686564794403E-0001	
 3.98050000000000E+0003	 1.53695678255545E-0001	
 3.98250000000000E+0003	 1.53717791716687E-0001	
 3.98450000000000E+0003	 1.53739405177829E-0001	
 3.98650000000000E+0003	 1.53733518638971E-0001	
 3.98850000000000E+0003	 1.53719132100113E-0001	
 3.99050000000000E+0003	 1.53714245561255E-0001	
 3.99250000000000E+0003	 1.53716359022397E-0001	
 3.99450000000000E+0003	 1.53726472483539E-0001	
 3.99650000000000E+0003	 1.53737585944681E-0001	
 3.99850000000000E+0003	 1.53720286764706E-0001	

>1	DATALINE
