*CPCWIN*

>1	DATALINE
DATALINE
1
Operator:

Description:

Remarks:





15.9.2008
11:8


_x	_y
	
	
UNIT	UNIT
 4.50500000000000E+0002	 2.30496587800454E-0001	
 4.52500000000000E+0002	 2.31327430653474E-0001	
 4.54500000000000E+0002	 2.32330773506494E-0001	
 4.56500000000000E+0002	 2.33201116359514E-0001	
 4.58500000000000E+0002	 2.33896459212533E-0001	
 4.60500000000000E+0002	 2.35398302065553E-0001	
 4.62500000000000E+0002	 2.36932144918573E-0001	
 4.64500000000000E+0002	 2.38449987771593E-0001	
 4.66500000000000E+0002	 2.39183330624613E-0001	
 4.68500000000000E+0002	 2.40080673477633E-0001	
 4.70500000000000E+0002	 2.41247016330653E-0001	
 4.72500000000000E+0002	 2.42370359183673E-0001	
 4.74500000000000E+0002	 2.43742702036693E-0001	
 4.76500000000000E+0002	 2.45424544889713E-0001	
 4.78500000000000E+0002	 2.47071387742733E-0001	
 4.80500000000000E+0002	 2.48605230595753E-0001	
 4.82500000000000E+0002	 2.49793073448773E-0001	
 4.84500000000000E+0002	 2.51179916301793E-0001	
 4.86500000000000E+0002	 2.52772259154813E-0001	
 4.88500000000000E+0002	 2.54623102007833E-0001	
 4.90500000000000E+0002	 2.56248444860853E-0001	
 4.92500000000000E+0002	 2.58070787713873E-0001	
 4.94500000000000E+0002	 2.60229130566893E-0001	
 4.96500000000000E+0002	 2.62469973419913E-0001	
 4.98500000000000E+0002	 2.64486816272933E-0001	
 5.00500000000000E+0002	 2.66189159125953E-0001	
 5.02500000000000E+0002	 2.67804001978973E-0001	
 5.04500000000000E+0002	 2.69846344831993E-0001	
 5.06500000000000E+0002	 2.71667187685013E-0001	
 5.08500000000000E+0002	 2.73430030538033E-0001	
 5.10500000000000E+0002	 2.75264373391053E-0001	
 5.12500000000000E+0002	 2.77271716244073E-0001	
 5.14500000000000E+0002	 2.79187059097093E-0001	
 5.16500000000000E+0002	 2.80940401950113E-0001	
 5.18500000000000E+0002	 2.82798244803133E-0001	
 5.20500000000000E+0002	 2.84997087656153E-0001	
 5.22500000000000E+0002	 2.87002430509173E-0001	
 5.24500000000000E+0002	 2.88461273362193E-0001	
 5.26500000000000E+0002	 2.89814116215213E-0001	
 5.28500000000000E+0002	 2.91697959068233E-0001	
 5.30500000000000E+0002	 2.93510801921253E-0001	
 5.32500000000000E+0002	 2.94810144774273E-0001	
 5.34500000000000E+0002	 2.95548987627293E-0001	
 5.36500000000000E+0002	 2.95881830480313E-0001	
 5.38500000000000E+0002	 2.95919173333333E-0001	
 5.40500000000000E+0002	 2.95743016186353E-0001	
 5.42500000000000E+0002	 2.95386359039373E-0001	
 5.44500000000000E+0002	 2.94964201892393E-0001	
 5.46500000000000E+0002	 2.94634044745413E-0001	
 5.48500000000000E+0002	 2.94525387598433E-0001	
 5.50500000000000E+0002	 2.94532730451453E-0001	
 5.52500000000000E+0002	 2.94578073304473E-0001	
 5.54500000000000E+0002	 2.94353916157493E-0001	
 5.56500000000000E+0002	 2.93965759010513E-0001	
 5.58500000000000E+0002	 2.93439601863533E-0001	
 5.60500000000000E+0002	 2.92695444716553E-0001	
 5.62500000000000E+0002	 2.91751787569573E-0001	
 5.64500000000000E+0002	 2.90833130422593E-0001	
 5.66500000000000E+0002	 2.89925473275613E-0001	
 5.68500000000000E+0002	 2.89107816128633E-0001	
 5.70500000000000E+0002	 2.88467158981653E-0001	
 5.72500000000000E+0002	 2.88016501834673E-0001	
 5.74500000000000E+0002	 2.87518344687693E-0001	
 5.76500000000000E+0002	 2.87038687540713E-0001	
 5.78500000000000E+0002	 2.86711530393733E-0001	
 5.80500000000000E+0002	 2.86299373246753E-0001	
 5.82500000000000E+0002	 2.85829216099773E-0001	
 5.84500000000000E+0002	 2.85328558952793E-0001	
 5.86500000000000E+0002	 2.84803401805813E-0001	
 5.88500000000000E+0002	 2.84341244658833E-0001	
 5.90500000000000E+0002	 2.83785087511853E-0001	
 5.92500000000000E+0002	 2.83518930364873E-0001	
 5.94500000000000E+0002	 2.83785273217893E-0001	
 5.96500000000000E+0002	 2.84203616070913E-0001	
 5.98500000000000E+0002	 2.84459458923933E-0001	
 6.00500000000000E+0002	 2.84606801776953E-0001	
 6.02500000000000E+0002	 2.84740644629973E-0001	
 6.04500000000000E+0002	 2.84672987482993E-0001	
 6.06500000000000E+0002	 2.84377330336013E-0001	
 6.08500000000000E+0002	 2.83974673189033E-0001	
 6.10500000000000E+0002	 2.83465016042053E-0001	
 6.12500000000000E+0002	 2.82941358895073E-0001	
 6.14500000000000E+0002	 2.82408701748093E-0001	
 6.16500000000000E+0002	 2.81866544601113E-0001	
 6.18500000000000E+0002	 2.81314387454133E-0001	
 6.20500000000000E+0002	 2.80826230307153E-0001	
 6.22500000000000E+0002	 2.80322573160173E-0001	
 6.24500000000000E+0002	 2.79689916013193E-0001	
 6.26500000000000E+0002	 2.79015258866213E-0001	
 6.28500000000000E+0002	 2.78430101719233E-0001	
 6.30500000000000E+0002	 2.77761444572253E-0001	
 6.32500000000000E+0002	 2.76977287425273E-0001	
 6.34500000000000E+0002	 2.76129630278293E-0001	
 6.36500000000000E+0002	 2.75403473131313E-0001	
 6.38500000000000E+0002	 2.74762315984333E-0001	
 6.40500000000000E+0002	 2.74083658837353E-0001	
 6.42500000000000E+0002	 2.73355001690373E-0001	
 6.44500000000000E+0002	 2.72508344543393E-0001	
 6.46500000000000E+0002	 2.71624687396413E-0001	
 6.48500000000000E+0002	 2.70733030249433E-0001	
 6.50500000000000E+0002	 2.69772873102453E-0001	
 6.52500000000000E+0002	 2.68846215955473E-0001	
 6.54500000000000E+0002	 2.67946558808493E-0001	
 6.56500000000000E+0002	 2.67106901661513E-0001	
 6.58500000000000E+0002	 2.66309744514533E-0001	
 6.60500000000000E+0002	 2.65623587367553E-0001	
 6.62500000000000E+0002	 2.64981930220573E-0001	
 6.64500000000000E+0002	 2.64586273073593E-0001	
 6.66500000000000E+0002	 2.64795115926613E-0001	
 6.68500000000000E+0002	 2.63457458779633E-0001	
 6.70500000000000E+0002	 2.61185801632653E-0001	
 6.72500000000000E+0002	 2.60402644485673E-0001	
 6.74500000000000E+0002	 2.59487987338693E-0001	
 6.76500000000000E+0002	 2.58485830191713E-0001	
 6.78500000000000E+0002	 2.57468673044733E-0001	
 6.80500000000000E+0002	 2.56499515897753E-0001	
 6.82500000000000E+0002	 2.55510358750773E-0001	
 6.84500000000000E+0002	 2.54592201603793E-0001	
 6.86500000000000E+0002	 2.53682044456813E-0001	
 6.88500000000000E+0002	 2.52815387309833E-0001	
 6.90500000000000E+0002	 2.52122230162853E-0001	
 6.92500000000000E+0002	 2.51642573015873E-0001	
 6.94500000000000E+0002	 2.51230415868893E-0001	
 6.96500000000000E+0002	 2.50912258721913E-0001	
 6.98500000000000E+0002	 2.50590601574933E-0001	
 7.00500000000000E+0002	 2.50122944427953E-0001	
 7.02500000000000E+0002	 2.49265287280973E-0001	
 7.04500000000000E+0002	 2.48101630133993E-0001	
 7.06500000000000E+0002	 2.46792472987013E-0001	
 7.08500000000000E+0002	 2.45503315840033E-0001	
 7.10500000000000E+0002	 2.44284658693053E-0001	
 7.12500000000000E+0002	 2.43080501546073E-0001	
 7.14500000000000E+0002	 2.41691844399093E-0001	
 7.16500000000000E+0002	 2.40265687252113E-0001	
 7.18500000000000E+0002	 2.38822530105133E-0001	
 7.20500000000000E+0002	 2.37300872958153E-0001	
 7.22500000000000E+0002	 2.35648715811173E-0001	
 7.24500000000000E+0002	 2.33732558664193E-0001	
 7.26500000000000E+0002	 2.31375401517213E-0001	
 7.28500000000000E+0002	 2.28772744370233E-0001	
 7.30500000000000E+0002	 2.26132587223253E-0001	
 7.32500000000000E+0002	 2.23757430076273E-0001	
 7.34500000000000E+0002	 2.21679272929293E-0001	
 7.36500000000000E+0002	 2.19930115782313E-0001	
 7.38500000000000E+0002	 2.18411458635333E-0001	
 7.40500000000000E+0002	 2.17071801488353E-0001	
 7.42500000000000E+0002	 2.15845144341373E-0001	
 7.44500000000000E+0002	 2.14757987194393E-0001	
 7.46500000000000E+0002	 2.13733330047413E-0001	
 7.48500000000000E+0002	 2.12825172900433E-0001	
 7.50500000000000E+0002	 2.12012515753453E-0001	
 7.52500000000000E+0002	 2.11389858606473E-0001	
 7.54500000000000E+0002	 2.10991701459493E-0001	
 7.56500000000000E+0002	 2.10856544312513E-0001	
 7.58500000000000E+0002	 2.10935387165533E-0001	
 7.60500000000000E+0002	 2.11308730018553E-0001	
 7.62500000000000E+0002	 2.11812072871573E-0001	
 7.64500000000000E+0002	 2.11991915724593E-0001	
 7.66500000000000E+0002	 2.11148758577613E-0001	
 7.68500000000000E+0002	 2.09175601430633E-0001	
 7.70500000000000E+0002	 2.06713944283653E-0001	
 7.72500000000000E+0002	 2.04716287136673E-0001	
 7.74500000000000E+0002	 2.03841129989693E-0001	
 7.76500000000000E+0002	 2.04595972842713E-0001	
 7.78500000000000E+0002	 2.06311315695733E-0001	
 7.80500000000000E+0002	 2.06991658548753E-0001	
 7.82500000000000E+0002	 2.05698501401773E-0001	
 7.84500000000000E+0002	 2.03673844254793E-0001	
 7.86500000000000E+0002	 2.01776187107813E-0001	
 7.88500000000000E+0002	 1.99969529960833E-0001	
 7.90500000000000E+0002	 1.98296872813853E-0001	
 7.92500000000000E+0002	 1.97366215666873E-0001	
 7.94500000000000E+0002	 1.97222558519893E-0001	
 7.96500000000000E+0002	 1.97005401372913E-0001	
 7.98500000000000E+0002	 1.95943744225933E-0001	
 8.00500000000000E+0002	 1.94398587078953E-0001	
 8.02500000000000E+0002	 1.93036929931973E-0001	
 8.04500000000000E+0002	 1.92226772784993E-0001	
 8.06500000000000E+0002	 1.91827115638013E-0001	
 8.08500000000000E+0002	 1.91657958491033E-0001	
 8.10500000000000E+0002	 1.91438801344053E-0001	
 8.12500000000000E+0002	 1.90986644197073E-0001	
 8.14500000000000E+0002	 1.90156487050093E-0001	
 8.16500000000000E+0002	 1.89056829903113E-0001	
 8.18500000000000E+0002	 1.87815172756133E-0001	
 8.20500000000000E+0002	 1.86678015609153E-0001	
 8.22500000000000E+0002	 1.85730358462173E-0001	
 8.24500000000000E+0002	 1.85109201315193E-0001	
 8.26500000000000E+0002	 1.84705544168213E-0001	
 8.28500000000000E+0002	 1.84493387021233E-0001	
 8.30500000000000E+0002	 1.84401229874253E-0001	
 8.32500000000000E+0002	 1.84503572727273E-0001	
 8.34500000000000E+0002	 1.84739415580293E-0001	
 8.36500000000000E+0002	 1.85079258433313E-0001	
 8.38500000000000E+0002	 1.85425101286333E-0001	
 8.40500000000000E+0002	 1.85801444139353E-0001	
 8.42500000000000E+0002	 1.86087286992373E-0001	
 8.44500000000000E+0002	 1.86286629845393E-0001	
 8.46500000000000E+0002	 1.86360472698413E-0001	
 8.48500000000000E+0002	 1.86456815551433E-0001	
 8.50500000000000E+0002	 1.86686158404453E-0001	
 8.52500000000000E+0002	 1.87204001257473E-0001	
 8.54500000000000E+0002	 1.87902344110493E-0001	
 8.56500000000000E+0002	 1.88657686963513E-0001	
 8.58500000000000E+0002	 1.89175529816533E-0001	
 8.60500000000000E+0002	 1.89251872669553E-0001	
 8.62500000000000E+0002	 1.88726715522573E-0001	
 8.64500000000000E+0002	 1.87664058375593E-0001	
 8.66500000000000E+0002	 1.86160901228613E-0001	
 8.68500000000000E+0002	 1.84644744081633E-0001	
 8.70500000000000E+0002	 1.83677086934653E-0001	
 8.72500000000000E+0002	 1.83016429787673E-0001	
 8.74500000000000E+0002	 1.81673272640693E-0001	
 8.76500000000000E+0002	 1.80118615493713E-0001	
 8.78500000000000E+0002	 1.79022958346733E-0001	
 8.80500000000000E+0002	 1.78342801199753E-0001	
 8.82500000000000E+0002	 1.77775644052773E-0001	
 8.84500000000000E+0002	 1.77186486905793E-0001	
 8.86500000000000E+0002	 1.76444329758813E-0001	
 8.88500000000000E+0002	 1.75619172611833E-0001	
 8.90500000000000E+0002	 1.74744515464853E-0001	
 8.92500000000000E+0002	 1.73924858317873E-0001	
 8.94500000000000E+0002	 1.73182701170893E-0001	
 8.96500000000000E+0002	 1.72663544023913E-0001	
 8.98500000000000E+0002	 1.72475886876933E-0001	
 9.00500000000000E+0002	 1.72818229729953E-0001	
 9.02500000000000E+0002	 1.73841072582973E-0001	
 9.04500000000000E+0002	 1.75691415435993E-0001	
 9.06500000000000E+0002	 1.78304758289013E-0001	
 9.08500000000000E+0002	 1.81457101142033E-0001	
 9.10500000000000E+0002	 1.84656943995053E-0001	
 9.12500000000000E+0002	 1.87403286848073E-0001	
 9.14500000000000E+0002	 1.89162129701093E-0001	
 9.16500000000000E+0002	 1.89640972554113E-0001	
 9.18500000000000E+0002	 1.88802315407133E-0001	
 9.20500000000000E+0002	 1.86978158260153E-0001	
 9.22500000000000E+0002	 1.84589001113173E-0001	
 9.24500000000000E+0002	 1.82130343966193E-0001	
 9.26500000000000E+0002	 1.79891686819213E-0001	
 9.28500000000000E+0002	 1.78078029672233E-0001	
 9.30500000000000E+0002	 1.76659872525253E-0001	
 9.32500000000000E+0002	 1.75603215378273E-0001	
 9.34500000000000E+0002	 1.74772058231293E-0001	
 9.36500000000000E+0002	 1.74134401084313E-0001	
 9.38500000000000E+0002	 1.73629743937333E-0001	
 9.40500000000000E+0002	 1.73346586790353E-0001	
 9.42500000000000E+0002	 1.73314929643373E-0001	
 9.44500000000000E+0002	 1.73646272496392E-0001	
 9.46500000000000E+0002	 1.74369615349412E-0001	
 9.48500000000000E+0002	 1.75560458202432E-0001	
 9.50500000000000E+0002	 1.77220301055452E-0001	
 9.52500000000000E+0002	 1.79450143908472E-0001	
 9.54500000000000E+0002	 1.82289486761492E-0001	
 9.56500000000000E+0002	 1.85757329614512E-0001	
 9.58500000000000E+0002	 1.89696672467532E-0001	
 9.60500000000000E+0002	 1.93885015320552E-0001	
 9.62500000000000E+0002	 1.98027358173572E-0001	
 9.64500000000000E+0002	 2.01893201026592E-0001	
 9.66500000000000E+0002	 2.05253543879612E-0001	
 9.68500000000000E+0002	 2.08030886732632E-0001	
 9.70500000000000E+0002	 2.10264729585652E-0001	
 9.72500000000000E+0002	 2.12227572438672E-0001	
 9.74500000000000E+0002	 2.14384915291692E-0001	
 9.76500000000000E+0002	 2.17415258144712E-0001	
 9.78500000000000E+0002	 2.21958100997732E-0001	
 9.80500000000000E+0002	 2.28450943850752E-0001	
 9.82500000000000E+0002	 2.36782786703772E-0001	
 9.84500000000000E+0002	 2.46352629556792E-0001	
 9.86500000000000E+0002	 2.56172972409812E-0001	
 9.88500000000000E+0002	 2.65244315262832E-0001	
 9.90500000000000E+0002	 2.72888158115852E-0001	
 9.92500000000000E+0002	 2.79073500968872E-0001	
 9.94500000000000E+0002	 2.84228343821892E-0001	
 9.96500000000000E+0002	 2.89112186674912E-0001	
 9.98500000000000E+0002	 2.94476529527932E-0001	
 1.00050000000000E+0003	 3.00848372380952E-0001	
 1.00250000000000E+0003	 3.08269215233972E-0001	
 1.00450000000000E+0003	 3.16462058086992E-0001	
 1.00650000000000E+0003	 3.25021400940012E-0001	
 1.00850000000000E+0003	 3.33626243793032E-0001	
 1.01050000000000E+0003	 3.42012586646052E-0001	
 1.01250000000000E+0003	 3.50133929499072E-0001	
 1.01450000000000E+0003	 3.57999772352092E-0001	
 1.01650000000000E+0003	 3.65534115205112E-0001	
 1.01850000000000E+0003	 3.72505958058132E-0001	
 1.02050000000000E+0003	 3.78741300911152E-0001	
 1.02250000000000E+0003	 3.84246643764172E-0001	
 1.02450000000000E+0003	 3.89307986617192E-0001	
 1.02650000000000E+0003	 3.94271329470212E-0001	
 1.02850000000000E+0003	 3.99351672323232E-0001	
 1.03050000000000E+0003	 4.04448515176252E-0001	
 1.03250000000000E+0003	 4.09395858029272E-0001	
 1.03450000000000E+0003	 4.13980200882292E-0001	
 1.03650000000000E+0003	 4.18038043735312E-0001	
 1.03850000000000E+0003	 4.21462386588332E-0001	
 1.04050000000000E+0003	 4.24369229441352E-0001	
 1.04250000000000E+0003	 4.27067572294372E-0001	
 1.04450000000000E+0003	 4.29978915147392E-0001	
 1.04650000000000E+0003	 4.33344758000412E-0001	
 1.04850000000000E+0003	 4.37064600853432E-0001	
 1.05050000000000E+0003	 4.40630443706452E-0001	
 1.05250000000000E+0003	 4.43369786559472E-0001	
 1.05450000000000E+0003	 4.44701629412492E-0001	
 1.05650000000000E+0003	 4.44409972265512E-0001	
 1.05850000000000E+0003	 4.42758315118532E-0001	
 1.06050000000000E+0003	 4.40396657971552E-0001	
 1.06250000000000E+0003	 4.38233500824572E-0001	
 1.06450000000000E+0003	 4.37156343677592E-0001	
 1.06650000000000E+0003	 4.37741686530612E-0001	
 1.06850000000000E+0003	 4.40068529383632E-0001	
 1.07050000000000E+0003	 4.43737372236652E-0001	
 1.07250000000000E+0003	 4.48085715089672E-0001	
 1.07450000000000E+0003	 4.52370057942692E-0001	
 1.07650000000000E+0003	 4.55941400795712E-0001	
 1.07850000000000E+0003	 4.58263243648732E-0001	
 1.08050000000000E+0003	 4.58967586501752E-0001	
 1.08250000000000E+0003	 4.57742929354772E-0001	
 1.08450000000000E+0003	 4.54300272207792E-0001	
 1.08650000000000E+0003	 4.48422115060812E-0001	
 1.08850000000000E+0003	 4.40256457913832E-0001	
 1.09050000000000E+0003	 4.30639300766852E-0001	
 1.09250000000000E+0003	 4.21155643619872E-0001	
 1.09450000000000E+0003	 4.13194986472892E-0001	
 1.09650000000000E+0003	 4.07168329325912E-0001	
 1.09850000000000E+0003	 4.02489172178932E-0001	
 1.10050000000000E+0003	 3.98318515031952E-0001	
 1.10250000000000E+0003	 3.94046857884972E-0001	
 1.10450000000000E+0003	 3.89494700737992E-0001	
 1.10650000000000E+0003	 3.84810043591012E-0001	
 1.10850000000000E+0003	 3.80404386444032E-0001	
 1.11050000000000E+0003	 3.76590229297052E-0001	
 1.11250000000000E+0003	 3.73422572150072E-0001	
 1.11450000000000E+0003	 3.70557415003092E-0001	
 1.11650000000000E+0003	 3.67514757856112E-0001	
 1.11850000000000E+0003	 3.63918600709132E-0001	
 1.12050000000000E+0003	 3.59604943562152E-0001	
 1.12250000000000E+0003	 3.54602286415172E-0001	
 1.12450000000000E+0003	 3.49147129268192E-0001	
 1.12650000000000E+0003	 3.43469972121212E-0001	
 1.12850000000000E+0003	 3.37745814974232E-0001	
 1.13050000000000E+0003	 3.32012157827252E-0001	
 1.13250000000000E+0003	 3.26411000680272E-0001	
 1.13450000000000E+0003	 3.21104843533292E-0001	
 1.13650000000000E+0003	 3.16259686386312E-0001	
 1.13850000000000E+0003	 3.12041529239332E-0001	
 1.14050000000000E+0003	 3.08651872092352E-0001	
 1.14250000000000E+0003	 3.06161714945372E-0001	
 1.14450000000000E+0003	 3.04494557798392E-0001	
 1.14650000000000E+0003	 3.03280400651412E-0001	
 1.14850000000000E+0003	 3.01977243504432E-0001	
 1.15050000000000E+0003	 2.99969586357452E-0001	
 1.15250000000000E+0003	 2.96879429210472E-0001	
 1.15450000000000E+0003	 2.92665772063492E-0001	
 1.15650000000000E+0003	 2.87678614916512E-0001	
 1.15850000000000E+0003	 2.82324957769532E-0001	
 1.16050000000000E+0003	 2.76864300622552E-0001	
 1.16250000000000E+0003	 2.71299643475572E-0001	
 1.16450000000000E+0003	 2.65621486328592E-0001	
 1.16650000000000E+0003	 2.59867329181612E-0001	
 1.16850000000000E+0003	 2.54195172034632E-0001	
 1.17050000000000E+0003	 2.48737014887652E-0001	
 1.17250000000000E+0003	 2.43525857740672E-0001	
 1.17450000000000E+0003	 2.38518200593692E-0001	
 1.17650000000000E+0003	 2.33851043446712E-0001	
 1.17850000000000E+0003	 2.29722386299732E-0001	
 1.18050000000000E+0003	 2.26376729152752E-0001	
 1.18250000000000E+0003	 2.23995572005772E-0001	
 1.18450000000000E+0003	 2.22683414858792E-0001	
 1.18650000000000E+0003	 2.22435757711812E-0001	
 1.18850000000000E+0003	 2.23265100564832E-0001	
 1.19050000000000E+0003	 2.25108443417852E-0001	
 1.19250000000000E+0003	 2.27888286270872E-0001	
 1.19450000000000E+0003	 2.31490129123892E-0001	
 1.19650000000000E+0003	 2.35776471976912E-0001	
 1.19850000000000E+0003	 2.40572314829932E-0001	
 1.20050000000000E+0003	 2.45706157682952E-0001	
 1.20250000000000E+0003	 2.50961500535972E-0001	
 1.20450000000000E+0003	 2.56189343388992E-0001	
 1.20650000000000E+0003	 2.61298686242012E-0001	
 1.20850000000000E+0003	 2.66238529095032E-0001	
 1.21050000000000E+0003	 2.70968871948052E-0001	
 1.21250000000000E+0003	 2.75517214801072E-0001	
 1.21450000000000E+0003	 2.79843557654092E-0001	
 1.21650000000000E+0003	 2.84034900507112E-0001	
 1.21850000000000E+0003	 2.88432743360132E-0001	
 1.22050000000000E+0003	 2.92762086213152E-0001	
 1.22250000000000E+0003	 2.96200929066172E-0001	
 1.22450000000000E+0003	 2.98823771919192E-0001	
 1.22650000000000E+0003	 3.01206114772212E-0001	
 1.22850000000000E+0003	 3.03602457625232E-0001	
 1.23050000000000E+0003	 3.06000800478252E-0001	
 1.23250000000000E+0003	 3.08297143331272E-0001	
 1.23450000000000E+0003	 3.10339486184292E-0001	
 1.23650000000000E+0003	 3.11982829037312E-0001	
 1.23850000000000E+0003	 3.13083671890332E-0001	
 1.24050000000000E+0003	 3.13548514743352E-0001	
 1.24250000000000E+0003	 3.13295357596372E-0001	
 1.24450000000000E+0003	 3.12307200449392E-0001	
 1.24650000000000E+0003	 3.10659543302412E-0001	
 1.24850000000000E+0003	 3.08419386155432E-0001	
 1.25050000000000E+0003	 3.05630729008452E-0001	
 1.25250000000000E+0003	 3.02397571861472E-0001	
 1.25450000000000E+0003	 2.98819414714492E-0001	
 1.25650000000000E+0003	 2.95013257567512E-0001	
 1.25850000000000E+0003	 2.91054100420532E-0001	
 1.26050000000000E+0003	 2.87034943273552E-0001	
 1.26250000000000E+0003	 2.83129786126572E-0001	
 1.26450000000000E+0003	 2.79417628979592E-0001	
 1.26650000000000E+0003	 2.75863471832612E-0001	
 1.26850000000000E+0003	 2.72546314685632E-0001	
 1.27050000000000E+0003	 2.69489657538652E-0001	
 1.27250000000000E+0003	 2.66780500391672E-0001	
 1.27450000000000E+0003	 2.64428343244692E-0001	
 1.27650000000000E+0003	 2.62360686097712E-0001	
 1.27850000000000E+0003	 2.60499028950732E-0001	
 1.28050000000000E+0003	 2.58821871803752E-0001	
 1.28250000000000E+0003	 2.57249214656772E-0001	
 1.28450000000000E+0003	 2.55749057509792E-0001	
 1.28650000000000E+0003	 2.54286400362812E-0001	
 1.28850000000000E+0003	 2.53010243215832E-0001	
 1.29050000000000E+0003	 2.52131586068852E-0001	
 1.29250000000000E+0003	 2.51625928921872E-0001	
 1.29450000000000E+0003	 2.51334271774892E-0001	
 1.29650000000000E+0003	 2.51262614627912E-0001	
 1.29850000000000E+0003	 2.51501957480932E-0001	
 1.30050000000000E+0003	 2.52011300333952E-0001	
 1.30250000000000E+0003	 2.52583143186972E-0001	
 1.30450000000000E+0003	 2.53099986039992E-0001	
 1.30650000000000E+0003	 2.53515328893012E-0001	
 1.30850000000000E+0003	 2.53852671746032E-0001	
 1.31050000000000E+0003	 2.54056014599052E-0001	
 1.31250000000000E+0003	 2.53955357452072E-0001	
 1.31450000000000E+0003	 2.53636700305092E-0001	
 1.31650000000000E+0003	 2.53173543158112E-0001	
 1.31850000000000E+0003	 2.52436386011132E-0001	
 1.32050000000000E+0003	 2.51687728864152E-0001	
 1.32250000000000E+0003	 2.51149571717172E-0001	
 1.32450000000000E+0003	 2.50768914570192E-0001	
 1.32650000000000E+0003	 2.50568757423212E-0001	
 1.32850000000000E+0003	 2.50635600276232E-0001	
 1.33050000000000E+0003	 2.50952943129252E-0001	
 1.33250000000000E+0003	 2.51472285982272E-0001	
 1.33450000000000E+0003	 2.51932128835292E-0001	
 1.33650000000000E+0003	 2.51967971688312E-0001	
 1.33850000000000E+0003	 2.51446314541332E-0001	
 1.34050000000000E+0003	 2.51060657394352E-0001	
 1.34250000000000E+0003	 2.51265500247372E-0001	
 1.34450000000000E+0003	 2.51189343100392E-0001	
 1.34650000000000E+0003	 2.50595685953412E-0001	
 1.34850000000000E+0003	 2.50015028806432E-0001	
 1.35050000000000E+0003	 2.49724871659452E-0001	
 1.35250000000000E+0003	 2.49808714512472E-0001	
 1.35450000000000E+0003	 2.50149057365492E-0001	
 1.35650000000000E+0003	 2.50769900218512E-0001	
 1.35850000000000E+0003	 2.51546243071532E-0001	
 1.36050000000000E+0003	 2.52200085924552E-0001	
 1.36250000000000E+0003	 2.53100928777572E-0001	
 1.36450000000000E+0003	 2.55321771630592E-0001	
 1.36650000000000E+0003	 2.58849114483612E-0001	
 1.36850000000000E+0003	 2.62431457336632E-0001	
 1.37050000000000E+0003	 2.65321300189652E-0001	
 1.37250000000000E+0003	 2.67787643042672E-0001	
 1.37450000000000E+0003	 2.69956985895692E-0001	
 1.37650000000000E+0003	 2.72044328748712E-0001	
 1.37850000000000E+0003	 2.73994671601732E-0001	
 1.38050000000000E+0003	 2.75813014454752E-0001	
 1.38250000000000E+0003	 2.77797857307772E-0001	
 1.38450000000000E+0003	 2.79594700160792E-0001	
 1.38650000000000E+0003	 2.80566043013812E-0001	
 1.38850000000000E+0003	 2.81714385866832E-0001	
 1.39050000000000E+0003	 2.83961728719852E-0001	
 1.39250000000000E+0003	 2.86129071572872E-0001	
 1.39450000000000E+0003	 2.87746414425892E-0001	
 1.39650000000000E+0003	 2.89349757278912E-0001	
 1.39850000000000E+0003	 2.91376100131932E-0001	
 1.40050000000000E+0003	 2.93167942984952E-0001	
 1.40250000000000E+0003	 2.94083285837972E-0001	
 1.40450000000000E+0003	 2.94224128690992E-0001	
 1.40650000000000E+0003	 2.93542471544012E-0001	
 1.40850000000000E+0003	 2.92772314397032E-0001	
 1.41050000000000E+0003	 2.91707657250052E-0001	
 1.41250000000000E+0003	 2.90386500103072E-0001	
 1.41450000000000E+0003	 2.88997342956092E-0001	
 1.41650000000000E+0003	 2.86807185809112E-0001	
 1.41850000000000E+0003	 2.83147028662132E-0001	
 1.42050000000000E+0003	 2.79701371515152E-0001	
 1.42250000000000E+0003	 2.78215214368172E-0001	
 1.42450000000000E+0003	 2.76350557221192E-0001	
 1.42650000000000E+0003	 2.73574400074212E-0001	
 1.42850000000000E+0003	 2.71367742927231E-0001	
 1.43050000000000E+0003	 2.69593085780251E-0001	
 1.43250000000000E+0003	 2.68608428633271E-0001	
 1.43450000000000E+0003	 2.68342271486291E-0001	
 1.43650000000000E+0003	 2.68701614339311E-0001	
 1.43850000000000E+0003	 2.70270957192331E-0001	
 1.44050000000000E+0003	 2.73129300045351E-0001	
 1.44250000000000E+0003	 2.75756642898371E-0001	
 1.44450000000000E+0003	 2.77487985751391E-0001	
 1.44650000000000E+0003	 2.79011828604411E-0001	
 1.44850000000000E+0003	 2.80357171457431E-0001	
 1.45050000000000E+0003	 2.81458514310451E-0001	
 1.45250000000000E+0003	 2.82349357163471E-0001	
 1.45450000000000E+0003	 2.81210700016491E-0001	
 1.45650000000000E+0003	 2.77036042869511E-0001	
 1.45850000000000E+0003	 2.73173885722531E-0001	
 1.46050000000000E+0003	 2.72438728575551E-0001	
 1.46250000000000E+0003	 2.70946571428571E-0001	
 1.46450000000000E+0003	 2.67684414281591E-0001	
 1.46650000000000E+0003	 2.63847257134611E-0001	
 1.46850000000000E+0003	 2.60542099987631E-0001	
 1.47050000000000E+0003	 2.56275942840651E-0001	
 1.47250000000000E+0003	 2.49544285693671E-0001	
 1.47450000000000E+0003	 2.43287628546691E-0001	
 1.47650000000000E+0003	 2.40722471399711E-0001	
 1.47850000000000E+0003	 2.39238814252731E-0001	
 1.48050000000000E+0003	 2.38174157105751E-0001	
 1.48250000000000E+0003	 2.38013499958771E-0001	
 1.48450000000000E+0003	 2.38606342811791E-0001	
 1.48650000000000E+0003	 2.40104185664811E-0001	
 1.48850000000000E+0003	 2.41874028517831E-0001	
 1.49050000000000E+0003	 2.44906371370851E-0001	
 1.49250000000000E+0003	 2.49264214223871E-0001	
 1.49450000000000E+0003	 2.53225557076891E-0001	
 1.49650000000000E+0003	 2.57464899929911E-0001	
 1.49850000000000E+0003	 2.63530242782931E-0001	
 1.50050000000000E+0003	 2.70291085635951E-0001	
 1.50250000000000E+0003	 2.76340928488971E-0001	
 1.50450000000000E+0003	 2.80854771341991E-0001	
 1.50650000000000E+0003	 2.87117114195011E-0001	
 1.50850000000000E+0003	 2.96021457048031E-0001	
 1.51050000000000E+0003	 3.08195799901051E-0001	
 1.51250000000000E+0003	 3.20557642754071E-0001	
 1.51450000000000E+0003	 3.31220485607091E-0001	
 1.51650000000000E+0003	 3.40496328460111E-0001	
 1.51850000000000E+0003	 3.47178671313131E-0001	
 1.52050000000000E+0003	 3.51384014166151E-0001	
 1.52250000000000E+0003	 3.58068857019171E-0001	
 1.52450000000000E+0003	 3.67051199872191E-0001	
 1.52650000000000E+0003	 3.76450042725211E-0001	
 1.52850000000000E+0003	 3.85414385578231E-0001	
 1.53050000000000E+0003	 3.93452728431251E-0001	
 1.53250000000000E+0003	 4.00853071284271E-0001	
 1.53450000000000E+0003	 4.08096414137291E-0001	
 1.53650000000000E+0003	 4.13226256990311E-0001	
 1.53850000000000E+0003	 4.16406599843331E-0001	
 1.54050000000000E+0003	 4.19922442696351E-0001	
 1.54250000000000E+0003	 4.24655285549371E-0001	
 1.54450000000000E+0003	 4.29397128402391E-0001	
 1.54650000000000E+0003	 4.32031971255411E-0001	
 1.54850000000000E+0003	 4.31764314108431E-0001	
 1.55050000000000E+0003	 4.27837656961451E-0001	
 1.55250000000000E+0003	 4.21112499814471E-0001	
 1.55450000000000E+0003	 4.12287842667491E-0001	
 1.55650000000000E+0003	 4.02890185520511E-0001	
 1.55850000000000E+0003	 3.91052028373531E-0001	
 1.56050000000000E+0003	 3.76312371226551E-0001	
 1.56250000000000E+0003	 3.70397214079571E-0001	
 1.56450000000000E+0003	 3.67721556932591E-0001	
 1.56650000000000E+0003	 3.61333399785611E-0001	
 1.56850000000000E+0003	 3.54588742638631E-0001	
 1.57050000000000E+0003	 3.47513085491651E-0001	
 1.57250000000000E+0003	 3.41375428344671E-0001	
 1.57450000000000E+0003	 3.35160271197691E-0001	
 1.57650000000000E+0003	 3.26998614050711E-0001	
 1.57850000000000E+0003	 3.22345956903731E-0001	
 1.58050000000000E+0003	 3.21459299756751E-0001	
 1.58250000000000E+0003	 3.19144142609771E-0001	
 1.58450000000000E+0003	 3.16876485462791E-0001	
 1.58650000000000E+0003	 3.15737828315811E-0001	
 1.58850000000000E+0003	 3.16063671168831E-0001	
 1.59050000000000E+0003	 3.17610514021851E-0001	
 1.59250000000000E+0003	 3.20516356874871E-0001	
 1.59450000000000E+0003	 3.24312199727891E-0001	
 1.59650000000000E+0003	 3.28926042580911E-0001	
 1.59850000000000E+0003	 3.34062885433931E-0001	
 1.60050000000000E+0003	 3.39895728286951E-0001	
 1.60250000000000E+0003	 3.46217571139971E-0001	
 1.60450000000000E+0003	 3.53339413992991E-0001	
 1.60650000000000E+0003	 3.61104756846011E-0001	
 1.60850000000000E+0003	 3.69985099699031E-0001	
 1.61050000000000E+0003	 3.79996942552051E-0001	
 1.61250000000000E+0003	 3.91085785405071E-0001	
 1.61450000000000E+0003	 4.01472628258091E-0001	
 1.61650000000000E+0003	 4.12914471111111E-0001	
 1.61850000000000E+0003	 4.27868313964131E-0001	
 1.62050000000000E+0003	 4.44384156817151E-0001	
 1.62250000000000E+0003	 4.61847999670171E-0001	
 1.62450000000000E+0003	 4.80293842523191E-0001	
 1.62650000000000E+0003	 4.98207685376211E-0001	
 1.62850000000000E+0003	 5.17401028229231E-0001	
 1.63050000000000E+0003	 5.36013871082251E-0001	
 1.63250000000000E+0003	 5.52658713935271E-0001	
 1.63450000000000E+0003	 5.67742056788291E-0001	
 1.63650000000000E+0003	 5.81842399641311E-0001	
 1.63850000000000E+0003	 5.93496742494331E-0001	
 1.64050000000000E+0003	 6.03577085347351E-0001	
 1.64250000000000E+0003	 6.11128928200371E-0001	
 1.64450000000000E+0003	 6.16002771053391E-0001	
 1.64650000000000E+0003	 6.20431613906411E-0001	
 1.64850000000000E+0003	 6.25838456759431E-0001	
 1.65050000000000E+0003	 6.30086299612451E-0001	
 1.65250000000000E+0003	 6.30069142465471E-0001	
 1.65450000000000E+0003	 6.30280985318491E-0001	
 1.65650000000000E+0003	 6.33651828171511E-0001	
 1.65850000000000E+0003	 6.35246171024531E-0001	
 1.66050000000000E+0003	 6.30282013877551E-0001	
 1.66250000000000E+0003	 6.21087856730571E-0001	
 1.66450000000000E+0003	 6.09553699583591E-0001	
 1.66650000000000E+0003	 5.99552042436611E-0001	
 1.66850000000000E+0003	 5.88521385289631E-0001	
 1.67050000000000E+0003	 5.75084728142651E-0001	
 1.67250000000000E+0003	 5.63529570995671E-0001	
 1.67450000000000E+0003	 5.53043413848691E-0001	
 1.67650000000000E+0003	 5.40471756701711E-0001	
 1.67850000000000E+0003	 5.29821599554731E-0001	
 1.68050000000000E+0003	 5.20146942407751E-0001	
 1.68250000000000E+0003	 5.09031285260771E-0001	
 1.68450000000000E+0003	 4.92452128113791E-0001	
 1.68650000000000E+0003	 4.77624970966811E-0001	
 1.68850000000000E+0003	 4.70318313819831E-0001	
 1.69050000000000E+0003	 4.60365156672851E-0001	
 1.69250000000000E+0003	 4.48173499525871E-0001	
 1.69450000000000E+0003	 4.33802342378891E-0001	
 1.69650000000000E+0003	 4.15943685231911E-0001	
 1.69850000000000E+0003	 4.03056528084931E-0001	
 1.70050000000000E+0003	 3.92033370937951E-0001	
 1.70250000000000E+0003	 3.80402713790971E-0001	
 1.70450000000000E+0003	 3.73816556643991E-0001	
 1.70650000000000E+0003	 3.66424899497011E-0001	
 1.70850000000000E+0003	 3.58109242350031E-0001	
 1.71050000000000E+0003	 3.50795585203051E-0001	
 1.71250000000000E+0003	 3.43299428056071E-0001	
 1.71450000000000E+0003	 3.34507770909091E-0001	
 1.71650000000000E+0003	 3.22721113762111E-0001	
 1.71850000000000E+0003	 3.11291956615131E-0001	
 1.72050000000000E+0003	 3.03946799468151E-0001	
 1.72250000000000E+0003	 2.97442642321171E-0001	
 1.72450000000000E+0003	 2.89424485174191E-0001	
 1.72650000000000E+0003	 2.81672828027211E-0001	
 1.72850000000000E+0003	 2.74836170880231E-0001	
 1.73050000000000E+0003	 2.68172013733251E-0001	
 1.73250000000000E+0003	 2.60319356586271E-0001	
 1.73450000000000E+0003	 2.53196199439291E-0001	
 1.73650000000000E+0003	 2.49466542292311E-0001	
 1.73850000000000E+0003	 2.48650885145331E-0001	
 1.74050000000000E+0003	 2.46450227998351E-0001	
 1.74250000000000E+0003	 2.42668570851371E-0001	
 1.74450000000000E+0003	 2.39153413704391E-0001	
 1.74650000000000E+0003	 2.35670756557411E-0001	
 1.74850000000000E+0003	 2.31529099410431E-0001	
 1.75050000000000E+0003	 2.25862942263451E-0001	
 1.75250000000000E+0003	 2.20558285116471E-0001	
 1.75450000000000E+0003	 2.17279627969491E-0001	
 1.75650000000000E+0003	 2.13995470822511E-0001	
 1.75850000000000E+0003	 2.09404313675531E-0001	
 1.76050000000000E+0003	 2.05095156528551E-0001	
 1.76250000000000E+0003	 2.01377499381571E-0001	
 1.76450000000000E+0003	 1.97816842234591E-0001	
 1.76650000000000E+0003	 1.94878685087611E-0001	
 1.76850000000000E+0003	 1.91772527940631E-0001	
 1.77050000000000E+0003	 1.88752870793651E-0001	
 1.77250000000000E+0003	 1.85885213646671E-0001	
 1.77450000000000E+0003	 1.83300556499691E-0001	
 1.77650000000000E+0003	 1.82531399352711E-0001	
 1.77850000000000E+0003	 1.81713242205731E-0001	
 1.78050000000000E+0003	 1.80225585058751E-0001	
 1.78250000000000E+0003	 1.78500927911771E-0001	
 1.78450000000000E+0003	 1.76867770764791E-0001	
 1.78650000000000E+0003	 1.75564613617811E-0001	
 1.78850000000000E+0003	 1.74299456470831E-0001	
 1.79050000000000E+0003	 1.72839299323851E-0001	
 1.79250000000000E+0003	 1.71175642176871E-0001	
 1.79450000000000E+0003	 1.69599485029891E-0001	
 1.79650000000000E+0003	 1.68790827882911E-0001	
 1.79850000000000E+0003	 1.68393170735931E-0001	
 1.80050000000000E+0003	 1.67444013588951E-0001	
 1.80250000000000E+0003	 1.66024856441971E-0001	
 1.80450000000000E+0003	 1.65143199294991E-0001	
 1.80650000000000E+0003	 1.64577542148011E-0001	
 1.80850000000000E+0003	 1.63732385001031E-0001	
 1.81050000000000E+0003	 1.62878727854051E-0001	
 1.81250000000000E+0003	 1.61962070707071E-0001	
 1.81450000000000E+0003	 1.61189913560091E-0001	
 1.81650000000000E+0003	 1.60601756413111E-0001	
 1.81850000000000E+0003	 1.59877599266131E-0001	
 1.82050000000000E+0003	 1.59193942119151E-0001	
 1.82250000000000E+0003	 1.58418784972171E-0001	
 1.82450000000000E+0003	 1.57708127825191E-0001	
 1.82650000000000E+0003	 1.56918970678211E-0001	
 1.82850000000000E+0003	 1.56108313531231E-0001	
 1.83050000000000E+0003	 1.55868156384251E-0001	
 1.83250000000000E+0003	 1.55006999237271E-0001	
 1.83450000000000E+0003	 1.54532342090291E-0001	
 1.83650000000000E+0003	 1.54266184943311E-0001	
 1.83850000000000E+0003	 1.53766527796331E-0001	
 1.84050000000000E+0003	 1.53135870649351E-0001	
 1.84250000000000E+0003	 1.52096213502371E-0001	
 1.84450000000000E+0003	 1.51342056355391E-0001	
 1.84650000000000E+0003	 1.50631399208411E-0001	
 1.84850000000000E+0003	 1.50642242061431E-0001	
 1.85050000000000E+0003	 1.50922584914451E-0001	
 1.85250000000000E+0003	 1.50793927767471E-0001	
 1.85450000000000E+0003	 1.50523770620491E-0001	
 1.85650000000000E+0003	 1.50131613473511E-0001	
 1.85850000000000E+0003	 1.49721956326531E-0001	
 1.86050000000000E+0003	 1.49321299179551E-0001	
 1.86250000000000E+0003	 1.49010142032571E-0001	
 1.86450000000000E+0003	 1.48697984885591E-0001	
 1.86650000000000E+0003	 1.48213327738611E-0001	
 1.86850000000000E+0003	 1.47732170591631E-0001	
 1.87050000000000E+0003	 1.47326013444651E-0001	
 1.87250000000000E+0003	 1.47113856297671E-0001	
 1.87450000000000E+0003	 1.47340199150691E-0001	
 1.87650000000000E+0003	 1.47285542003711E-0001	
 1.87850000000000E+0003	 1.47037884856731E-0001	
 1.88050000000000E+0003	 1.46796227709751E-0001	
 1.88250000000000E+0003	 1.46592570562771E-0001	
 1.88450000000000E+0003	 1.46378413415791E-0001	
 1.88650000000000E+0003	 1.46087756268811E-0001	
 1.88850000000000E+0003	 1.45850599121831E-0001	
 1.89050000000000E+0003	 1.45678441974851E-0001	
 1.89250000000000E+0003	 1.45324284827871E-0001	
 1.89450000000000E+0003	 1.45229627680891E-0001	
 1.89650000000000E+0003	 1.45123970533911E-0001	
 1.89850000000000E+0003	 1.44990813386931E-0001	
 1.90050000000000E+0003	 1.44938156239951E-0001	
 1.90250000000000E+0003	 1.44814499092971E-0001	
 1.90450000000000E+0003	 1.44660841945991E-0001	
 1.90650000000000E+0003	 1.44466184799011E-0001	
 1.90850000000000E+0003	 1.44214527652031E-0001	
 1.91050000000000E+0003	 1.44049370505051E-0001	
 1.91250000000000E+0003	 1.44000213358071E-0001	
 1.91450000000000E+0003	 1.43965056211090E-0001	
 1.91650000000000E+0003	 1.43751899064110E-0001	
 1.91850000000000E+0003	 1.43656741917130E-0001	
 1.92050000000000E+0003	 1.43295084770150E-0001	
 1.92250000000000E+0003	 1.43169427623170E-0001	
 1.92450000000000E+0003	 1.43237270476190E-0001	
 1.92650000000000E+0003	 1.43326613329210E-0001	
 1.92850000000000E+0003	 1.43472456182230E-0001	
 1.93050000000000E+0003	 1.43446799035250E-0001	
 1.93250000000000E+0003	 1.43357141888270E-0001	
 1.93450000000000E+0003	 1.43290984741290E-0001	
 1.93650000000000E+0003	 1.43252327594310E-0001	
 1.93850000000000E+0003	 1.43207670447330E-0001	
 1.94050000000000E+0003	 1.43024013300350E-0001	
 1.94250000000000E+0003	 1.42891356153370E-0001	
 1.94450000000000E+0003	 1.42739199006390E-0001	
 1.94650000000000E+0003	 1.42778041859410E-0001	
 1.94850000000000E+0003	 1.42961884712430E-0001	
 1.95050000000000E+0003	 1.43019727565450E-0001	
 1.95250000000000E+0003	 1.43027070418470E-0001	
 1.95450000000000E+0003	 1.42987913271490E-0001	
 1.95650000000000E+0003	 1.42959756124510E-0001	
 1.95850000000000E+0003	 1.42968098977530E-0001	
 1.96050000000000E+0003	 1.42981941830550E-0001	
 1.96250000000000E+0003	 1.42978284683570E-0001	
 1.96450000000000E+0003	 1.42913127536590E-0001	
 1.96650000000000E+0003	 1.42793470389610E-0001	
 1.96850000000000E+0003	 1.42726813242630E-0001	
 1.97050000000000E+0003	 1.42810156095650E-0001	
 1.97250000000000E+0003	 1.42962498948670E-0001	
 1.97450000000000E+0003	 1.43010341801690E-0001	
 1.97650000000000E+0003	 1.43016184654710E-0001	
 1.97850000000000E+0003	 1.43022027507730E-0001	
 1.98050000000000E+0003	 1.43031870360750E-0001	
 1.98250000000000E+0003	 1.43041213213770E-0001	
 1.98450000000000E+0003	 1.43048556066790E-0001	
 1.98650000000000E+0003	 1.43012898919810E-0001	
 1.98850000000000E+0003	 1.42930241772830E-0001	
 1.99050000000000E+0003	 1.42822584625850E-0001	
 1.99250000000000E+0003	 1.42812927478870E-0001	
 1.99450000000000E+0003	 1.42848770331890E-0001	
 1.99650000000000E+0003	 1.43035113184910E-0001	
 1.99850000000000E+0003	 1.43189456037930E-0001	
 2.00050000000000E+0003	 1.43231298890950E-0001	
 2.00250000000000E+0003	 1.43282641743970E-0001	
 2.00450000000000E+0003	 1.43341984596990E-0001	
 2.00650000000000E+0003	 1.43381827450010E-0001	
 2.00850000000000E+0003	 1.43425670303030E-0001	
 2.01050000000000E+0003	 1.43495513156050E-0001	
 2.01250000000000E+0003	 1.43583856009070E-0001	
 2.01450000000000E+0003	 1.43616698862090E-0001	
 2.01650000000000E+0003	 1.43591041715110E-0001	
 2.01850000000000E+0003	 1.43591384568130E-0001	
 2.02050000000000E+0003	 1.43730227421150E-0001	
 2.02250000000000E+0003	 1.43938570274170E-0001	
 2.02450000000000E+0003	 1.44075413127190E-0001	
 2.02650000000000E+0003	 1.44186255980210E-0001	
 2.02850000000000E+0003	 1.44290598833230E-0001	
 2.03050000000000E+0003	 1.44388441686250E-0001	
 2.03250000000000E+0003	 1.44481784539270E-0001	
 2.03450000000000E+0003	 1.44569127392290E-0001	
 2.03650000000000E+0003	 1.44654970245310E-0001	
 2.03850000000000E+0003	 1.44726313098330E-0001	
 2.04050000000000E+0003	 1.44757155951350E-0001	
 2.04250000000000E+0003	 1.44796998804370E-0001	
 2.04450000000000E+0003	 1.44904341657390E-0001	
 2.04650000000000E+0003	 1.45035684510410E-0001	
 2.04850000000000E+0003	 1.45128527363430E-0001	
 2.05050000000000E+0003	 1.45205870216450E-0001	
 2.05250000000000E+0003	 1.45272713069470E-0001	
 2.05450000000000E+0003	 1.45334555922490E-0001	
 2.05650000000000E+0003	 1.45388898775510E-0001	
 2.05850000000000E+0003	 1.45438741628530E-0001	
 2.06050000000000E+0003	 1.45485084481550E-0001	
 2.06250000000000E+0003	 1.45505927334570E-0001	
 2.06450000000000E+0003	 1.45493770187590E-0001	
 2.06650000000000E+0003	 1.45512613040610E-0001	
 2.06850000000000E+0003	 1.45614955893630E-0001	
 2.07050000000000E+0003	 1.45737298746650E-0001	
 2.07250000000000E+0003	 1.45796641599670E-0001	
 2.07450000000000E+0003	 1.45836484452690E-0001	
 2.07650000000000E+0003	 1.45873827305710E-0001	
 2.07850000000000E+0003	 1.45910670158730E-0001	
 2.08050000000000E+0003	 1.45949513011750E-0001	
 2.08250000000000E+0003	 1.45986355864770E-0001	
 2.08450000000000E+0003	 1.46017698717790E-0001	
 2.08650000000000E+0003	 1.46037541570810E-0001	
 2.08850000000000E+0003	 1.46035884423830E-0001	
 2.09050000000000E+0003	 1.46033727276850E-0001	
 2.09250000000000E+0003	 1.46069570129870E-0001	
 2.09450000000000E+0003	 1.46126412982890E-0001	
 2.09650000000000E+0003	 1.46161755835910E-0001	
 2.09850000000000E+0003	 1.46171598688930E-0001	
 2.10050000000000E+0003	 1.46177941541950E-0001	
 2.10250000000000E+0003	 1.46180784394970E-0001	
 2.10450000000000E+0003	 1.46185627247990E-0001	
 2.10650000000000E+0003	 1.46182970101010E-0001	
 2.10850000000000E+0003	 1.46180312954030E-0001	
 2.11050000000000E+0003	 1.46178155807050E-0001	
 2.11250000000000E+0003	 1.46165998660070E-0001	
 2.11450000000000E+0003	 1.46139841513090E-0001	
 2.11650000000000E+0003	 1.46123184366110E-0001	
 2.11850000000000E+0003	 1.46125027219130E-0001	
 2.12050000000000E+0003	 1.46127870072150E-0001	
 2.12250000000000E+0003	 1.46114712925170E-0001	
 2.12450000000000E+0003	 1.46101055778190E-0001	
 2.12650000000000E+0003	 1.46091398631210E-0001	
 2.12850000000000E+0003	 1.46081241484230E-0001	
 2.13050000000000E+0003	 1.46066084337250E-0001	
 2.13250000000000E+0003	 1.46050927190270E-0001	
 2.13450000000000E+0003	 1.46027270043290E-0001	
 2.13650000000000E+0003	 1.45999112896310E-0001	
 2.13850000000000E+0003	 1.45979955749330E-0001	
 2.14050000000000E+0003	 1.45976798602350E-0001	
 2.14250000000000E+0003	 1.45971141455370E-0001	
 2.14450000000000E+0003	 1.45951984308390E-0001	
 2.14650000000000E+0003	 1.45925327161410E-0001	
 2.14850000000000E+0003	 1.45901670014430E-0001	
 2.15050000000000E+0003	 1.45880012867450E-0001	
 2.15250000000000E+0003	 1.45853855720470E-0001	
 2.15450000000000E+0003	 1.45824698573490E-0001	
 2.15650000000000E+0003	 1.45794041426510E-0001	
 2.15850000000000E+0003	 1.45757884279530E-0001	
 2.16050000000000E+0003	 1.45714727132550E-0001	
 2.16250000000000E+0003	 1.45667569985570E-0001	
 2.16450000000000E+0003	 1.45623912838590E-0001	
 2.16650000000000E+0003	 1.45582255691610E-0001	
 2.16850000000000E+0003	 1.45544098544630E-0001	
 2.17050000000000E+0003	 1.45494441397650E-0001	
 2.17250000000000E+0003	 1.45430784250670E-0001	
 2.17450000000000E+0003	 1.45367627103690E-0001	
 2.17650000000000E+0003	 1.45310469956710E-0001	
 2.17850000000000E+0003	 1.45250312809730E-0001	
 2.18050000000000E+0003	 1.45192155662750E-0001	
 2.18250000000000E+0003	 1.45135498515770E-0001	
 2.18450000000000E+0003	 1.45081341368790E-0001	
 2.18650000000000E+0003	 1.45026684221810E-0001	
 2.18850000000000E+0003	 1.44975527074830E-0001	
 2.19050000000000E+0003	 1.44923869927850E-0001	
 2.19250000000000E+0003	 1.44872712780870E-0001	
 2.19450000000000E+0003	 1.44817555633890E-0001	
 2.19650000000000E+0003	 1.44763898486910E-0001	
 2.19850000000000E+0003	 1.44707741339930E-0001	
 2.20050000000000E+0003	 1.44652584192950E-0001	
 2.20250000000000E+0003	 1.44601427045970E-0001	
 2.20450000000000E+0003	 1.44550769898990E-0001	
 2.20650000000000E+0003	 1.44494612752010E-0001	
 2.20850000000000E+0003	 1.44442955605030E-0001	
 2.21050000000000E+0003	 1.44393798458050E-0001	
 2.21250000000000E+0003	 1.44348141311070E-0001	
 2.21450000000000E+0003	 1.44299484164090E-0001	
 2.21650000000000E+0003	 1.44249827017110E-0001	
 2.21850000000000E+0003	 1.44199669870130E-0001	
 2.22050000000000E+0003	 1.44154512723150E-0001	
 2.22250000000000E+0003	 1.44109355576170E-0001	
 2.22450000000000E+0003	 1.44065198429190E-0001	
 2.22650000000000E+0003	 1.44023541282210E-0001	
 2.22850000000000E+0003	 1.43986884135230E-0001	
 2.23050000000000E+0003	 1.43954226988250E-0001	
 2.23250000000000E+0003	 1.43925569841270E-0001	
 2.23450000000000E+0003	 1.43899912694290E-0001	
 2.23650000000000E+0003	 1.43877255547310E-0001	
 2.23850000000000E+0003	 1.43854598400330E-0001	
 2.24050000000000E+0003	 1.43837941253350E-0001	
 2.24250000000000E+0003	 1.43819284106370E-0001	
 2.24450000000000E+0003	 1.43799626959390E-0001	
 2.24650000000000E+0003	 1.43783469812410E-0001	
 2.24850000000000E+0003	 1.43770812665430E-0001	
 2.25050000000000E+0003	 1.43757655518450E-0001	
 2.25250000000000E+0003	 1.43742998371470E-0001	
 2.25450000000000E+0003	 1.43730841224490E-0001	
 2.25650000000000E+0003	 1.43725184077510E-0001	
 2.25850000000000E+0003	 1.43719526930530E-0001	
 2.26050000000000E+0003	 1.43716369783550E-0001	
 2.26250000000000E+0003	 1.43714712636570E-0001	
 2.26450000000000E+0003	 1.43719055489590E-0001	
 2.26650000000000E+0003	 1.43724898342610E-0001	
 2.26850000000000E+0003	 1.43734741195630E-0001	
 2.27050000000000E+0003	 1.43744584048650E-0001	
 2.27250000000000E+0003	 1.43758426901670E-0001	
 2.27450000000000E+0003	 1.43773269754690E-0001	
 2.27650000000000E+0003	 1.43787112607710E-0001	
 2.27850000000000E+0003	 1.43797955460730E-0001	
 2.28050000000000E+0003	 1.43813798313750E-0001	
 2.28250000000000E+0003	 1.43835641166770E-0001	
 2.28450000000000E+0003	 1.43860484019790E-0001	
 2.28650000000000E+0003	 1.43871826872810E-0001	
 2.28850000000000E+0003	 1.43870669725830E-0001	
 2.29050000000000E+0003	 1.43864512578850E-0001	
 2.29250000000000E+0003	 1.43853855431870E-0001	
 2.29450000000000E+0003	 1.43839198284890E-0001	
 2.29650000000000E+0003	 1.43839541137910E-0001	
 2.29850000000000E+0003	 1.43859383990930E-0001	
 2.30050000000000E+0003	 1.43905726843950E-0001	
 2.30250000000000E+0003	 1.43991069696970E-0001	
 2.30450000000000E+0003	 1.44081412549990E-0001	
 2.30650000000000E+0003	 1.44122255403010E-0001	
 2.30850000000000E+0003	 1.44161098256030E-0001	
 2.31050000000000E+0003	 1.44232441109050E-0001	
 2.31250000000000E+0003	 1.44336283962070E-0001	
 2.31450000000000E+0003	 1.44410626815090E-0001	
 2.31650000000000E+0003	 1.44435969668110E-0001	
 2.31850000000000E+0003	 1.44470312521130E-0001	
 2.32050000000000E+0003	 1.44489655374150E-0001	
 2.32250000000000E+0003	 1.44469998227170E-0001	
 2.32450000000000E+0003	 1.44489341080190E-0001	
 2.32650000000000E+0003	 1.44583683933210E-0001	
 2.32850000000000E+0003	 1.44747526786230E-0001	
 2.33050000000000E+0003	 1.44886869639250E-0001	
 2.33250000000000E+0003	 1.45013212492270E-0001	
 2.33450000000000E+0003	 1.45188055345290E-0001	
 2.33650000000000E+0003	 1.45352398198310E-0001	
 2.33850000000000E+0003	 1.45413241051330E-0001	
 2.34050000000000E+0003	 1.45342083904350E-0001	
 2.34250000000000E+0003	 1.45244926757370E-0001	
 2.34450000000000E+0003	 1.45322269610390E-0001	
 2.34650000000000E+0003	 1.45449112463410E-0001	
 2.34850000000000E+0003	 1.45580955316430E-0001	
 2.35050000000000E+0003	 1.45821798169450E-0001	
 2.35250000000000E+0003	 1.45997141022470E-0001	
 2.35450000000000E+0003	 1.46002483875490E-0001	
 2.35650000000000E+0003	 1.46019826728510E-0001	
 2.35850000000000E+0003	 1.46135169581530E-0001	
 2.36050000000000E+0003	 1.46308512434550E-0001	
 2.36250000000000E+0003	 1.46430855287570E-0001	
 2.36450000000000E+0003	 1.46484698140590E-0001	
 2.36650000000000E+0003	 1.46512540993610E-0001	
 2.36850000000000E+0003	 1.46559383846630E-0001	
 2.37050000000000E+0003	 1.46692226699650E-0001	
 2.37250000000000E+0003	 1.46994569552670E-0001	
 2.37450000000000E+0003	 1.47377412405690E-0001	
 2.37650000000000E+0003	 1.47622755258710E-0001	
 2.37850000000000E+0003	 1.47609598111730E-0001	
 2.38050000000000E+0003	 1.47504440964750E-0001	
 2.38250000000000E+0003	 1.47521283817770E-0001	
 2.38450000000000E+0003	 1.47709126670790E-0001	
 2.38650000000000E+0003	 1.47971969523810E-0001	
 2.38850000000000E+0003	 1.48221312376830E-0001	
 2.39050000000000E+0003	 1.48425155229850E-0001	
 2.39250000000000E+0003	 1.48604998082870E-0001	
 2.39450000000000E+0003	 1.48774340935890E-0001	
 2.39650000000000E+0003	 1.48945683788910E-0001	
 2.39850000000000E+0003	 1.49119526641929E-0001	
 2.40050000000000E+0003	 1.49303869494949E-0001	
 2.40250000000000E+0003	 1.49491712347969E-0001	
 2.40450000000000E+0003	 1.49688555200989E-0001	
 2.40650000000000E+0003	 1.49884898054009E-0001	
 2.40850000000000E+0003	 1.50091240907029E-0001	
 2.41050000000000E+0003	 1.50302083760049E-0001	
 2.41250000000000E+0003	 1.50520926613069E-0001	
 2.41450000000000E+0003	 1.50743269466089E-0001	
 2.41650000000000E+0003	 1.50970612319109E-0001	
 2.41850000000000E+0003	 1.51196455172129E-0001	
 2.42050000000000E+0003	 1.51434798025149E-0001	
 2.42250000000000E+0003	 1.51679140878169E-0001	
 2.42450000000000E+0003	 1.51929983731189E-0001	
 2.42650000000000E+0003	 1.52183326584209E-0001	
 2.42850000000000E+0003	 1.52441169437229E-0001	
 2.43050000000000E+0003	 1.52698012290249E-0001	
 2.43250000000000E+0003	 1.52958855143269E-0001	
 2.43450000000000E+0003	 1.53223197996289E-0001	
 2.43650000000000E+0003	 1.53495540849309E-0001	
 2.43850000000000E+0003	 1.53767383702329E-0001	
 2.44050000000000E+0003	 1.54040226555349E-0001	
 2.44250000000000E+0003	 1.54309569408369E-0001	
 2.44450000000000E+0003	 1.54583912261389E-0001	
 2.44650000000000E+0003	 1.54858255114409E-0001	
 2.44850000000000E+0003	 1.55133597967429E-0001	
 2.45050000000000E+0003	 1.55409940820449E-0001	
 2.45250000000000E+0003	 1.55692283673469E-0001	
 2.45450000000000E+0003	 1.55975626526489E-0001	
 2.45650000000000E+0003	 1.56267469379509E-0001	
 2.45850000000000E+0003	 1.56561312232529E-0001	
 2.46050000000000E+0003	 1.56858155085549E-0001	
 2.46250000000000E+0003	 1.57159497938569E-0001	
 2.46450000000000E+0003	 1.57469840791589E-0001	
 2.46650000000000E+0003	 1.57778683644609E-0001	
 2.46850000000000E+0003	 1.58094026497629E-0001	
 2.47050000000000E+0003	 1.58408869350649E-0001	
 2.47250000000000E+0003	 1.58723212203669E-0001	
 2.47450000000000E+0003	 1.59037055056689E-0001	
 2.47650000000000E+0003	 1.59355397909709E-0001	
 2.47850000000000E+0003	 1.59668240762729E-0001	
 2.48050000000000E+0003	 1.59979083615749E-0001	
 2.48250000000000E+0003	 1.60287926468769E-0001	
 2.48450000000000E+0003	 1.60598769321789E-0001	
 2.48650000000000E+0003	 1.60903612174809E-0001	
 2.48850000000000E+0003	 1.61205455027829E-0001	
 2.49050000000000E+0003	 1.61504297880849E-0001	
 2.49250000000000E+0003	 1.61802140733869E-0001	
 2.49450000000000E+0003	 1.62097483586889E-0001	
 2.49650000000000E+0003	 1.62396326439909E-0001	
 2.49850000000000E+0003	 1.62691669292929E-0001	
 2.50050000000000E+0003	 1.62985012145949E-0001	
 2.50250000000000E+0003	 1.63272854998969E-0001	
 2.50450000000000E+0003	 1.63564697851989E-0001	
 2.50650000000000E+0003	 1.63857540705009E-0001	
 2.50850000000000E+0003	 1.64147883558029E-0001	
 2.51050000000000E+0003	 1.64434226411049E-0001	
 2.51250000000000E+0003	 1.64719569264069E-0001	
 2.51450000000000E+0003	 1.64998412117089E-0001	
 2.51650000000000E+0003	 1.65272754970109E-0001	
 2.51850000000000E+0003	 1.65546597823129E-0001	
 2.52050000000000E+0003	 1.65821440676149E-0001	
 2.52250000000000E+0003	 1.66093783529169E-0001	
 2.52450000000000E+0003	 1.66367126382189E-0001	
 2.52650000000000E+0003	 1.66639469235209E-0001	
 2.52850000000000E+0003	 1.66910812088229E-0001	
 2.53050000000000E+0003	 1.67182154941249E-0001	
 2.53250000000000E+0003	 1.67454997794269E-0001	
 2.53450000000000E+0003	 1.67728340647289E-0001	
 2.53650000000000E+0003	 1.68003683500309E-0001	
 2.53850000000000E+0003	 1.68278026353329E-0001	
 2.54050000000000E+0003	 1.68557869206349E-0001	
 2.54250000000000E+0003	 1.68840212059369E-0001	
 2.54450000000000E+0003	 1.69121054912389E-0001	
 2.54650000000000E+0003	 1.69402397765409E-0001	
 2.54850000000000E+0003	 1.69687240618429E-0001	
 2.55050000000000E+0003	 1.69972083471449E-0001	
 2.55250000000000E+0003	 1.70259926324469E-0001	
 2.55450000000000E+0003	 1.70548769177489E-0001	
 2.55650000000000E+0003	 1.70839612030509E-0001	
 2.55850000000000E+0003	 1.71129954883529E-0001	
 2.56050000000000E+0003	 1.71420797736549E-0001	
 2.56250000000000E+0003	 1.71706640589569E-0001	
 2.56450000000000E+0003	 1.71990983442589E-0001	
 2.56650000000000E+0003	 1.72279826295609E-0001	
 2.56850000000000E+0003	 1.72577669148629E-0001	
 2.57050000000000E+0003	 1.72880512001649E-0001	
 2.57250000000000E+0003	 1.73191354854669E-0001	
 2.57450000000000E+0003	 1.73508697707689E-0001	
 2.57650000000000E+0003	 1.73841040560709E-0001	
 2.57850000000000E+0003	 1.74185383413729E-0001	
 2.58050000000000E+0003	 1.74539226266749E-0001	
 2.58250000000000E+0003	 1.74902569119769E-0001	
 2.58450000000000E+0003	 1.75274411972789E-0001	
 2.58650000000000E+0003	 1.75649754825809E-0001	
 2.58850000000000E+0003	 1.76039097678829E-0001	
 2.59050000000000E+0003	 1.76439440531849E-0001	
 2.59250000000000E+0003	 1.76847283384869E-0001	
 2.59450000000000E+0003	 1.77255626237889E-0001	
 2.59650000000000E+0003	 1.77672469090909E-0001	
 2.59850000000000E+0003	 1.78097311943929E-0001	
 2.60050000000000E+0003	 1.78529654796949E-0001	
 2.60250000000000E+0003	 1.78962997649969E-0001	
 2.60450000000000E+0003	 1.79397340502989E-0001	
 2.60650000000000E+0003	 1.79836683356009E-0001	
 2.60850000000000E+0003	 1.80282026209029E-0001	
 2.61050000000000E+0003	 1.80724869062049E-0001	
 2.61250000000000E+0003	 1.81166211915069E-0001	
 2.61450000000000E+0003	 1.81605554768089E-0001	
 2.61650000000000E+0003	 1.82048897621109E-0001	
 2.61850000000000E+0003	 1.82493240474129E-0001	
 2.62050000000000E+0003	 1.82939083327149E-0001	
 2.62250000000000E+0003	 1.83384926180169E-0001	
 2.62450000000000E+0003	 1.83836269033189E-0001	
 2.62650000000000E+0003	 1.84288611886209E-0001	
 2.62850000000000E+0003	 1.84743454739229E-0001	
 2.63050000000000E+0003	 1.85197797592249E-0001	
 2.63250000000000E+0003	 1.85654640445269E-0001	
 2.63450000000000E+0003	 1.86113983298289E-0001	
 2.63650000000000E+0003	 1.86576326151309E-0001	
 2.63850000000000E+0003	 1.87040169004329E-0001	
 2.64050000000000E+0003	 1.87503011857349E-0001	
 2.64250000000000E+0003	 1.87964854710369E-0001	
 2.64450000000000E+0003	 1.88435697563389E-0001	
 2.64650000000000E+0003	 1.88905040416409E-0001	
 2.64850000000000E+0003	 1.89374883269429E-0001	
 2.65050000000000E+0003	 1.89847726122449E-0001	
 2.65250000000000E+0003	 1.90327068975469E-0001	
 2.65450000000000E+0003	 1.90801911828489E-0001	
 2.65650000000000E+0003	 1.91275254681509E-0001	
 2.65850000000000E+0003	 1.91751097534529E-0001	
 2.66050000000000E+0003	 1.92230440387549E-0001	
 2.66250000000000E+0003	 1.92707783240569E-0001	
 2.66450000000000E+0003	 1.93188126093589E-0001	
 2.66650000000000E+0003	 1.93670468946609E-0001	
 2.66850000000000E+0003	 1.94152311799629E-0001	
 2.67050000000000E+0003	 1.94631654652649E-0001	
 2.67250000000000E+0003	 1.95113997505669E-0001	
 2.67450000000000E+0003	 1.95598340358689E-0001	
 2.67650000000000E+0003	 1.96082183211709E-0001	
 2.67850000000000E+0003	 1.96563526064729E-0001	
 2.68050000000000E+0003	 1.97043368917749E-0001	
 2.68250000000000E+0003	 1.97517211770769E-0001	
 2.68450000000000E+0003	 1.97987054623789E-0001	
 2.68650000000000E+0003	 1.98458397476809E-0001	
 2.68850000000000E+0003	 1.98935740329829E-0001	
 2.69050000000000E+0003	 1.99414583182849E-0001	
 2.69250000000000E+0003	 1.99900926035869E-0001	
 2.69450000000000E+0003	 2.00391268888889E-0001	
 2.69650000000000E+0003	 2.00891611741909E-0001	
 2.69850000000000E+0003	 2.01400954594929E-0001	
 2.70050000000000E+0003	 2.01920797447949E-0001	
 2.70250000000000E+0003	 2.02449640300969E-0001	
 2.70450000000000E+0003	 2.02993483153989E-0001	
 2.70650000000000E+0003	 2.03556826007009E-0001	
 2.70850000000000E+0003	 2.04142168860029E-0001	
 2.71050000000000E+0003	 2.04742511713049E-0001	
 2.71250000000000E+0003	 2.05359354566069E-0001	
 2.71450000000000E+0003	 2.05990697419089E-0001	
 2.71650000000000E+0003	 2.06641540272109E-0001	
 2.71850000000000E+0003	 2.07298883125129E-0001	
 2.72050000000000E+0003	 2.07965225978149E-0001	
 2.72250000000000E+0003	 2.08636068831169E-0001	
 2.72450000000000E+0003	 2.09310911684189E-0001	
 2.72650000000000E+0003	 2.09985254537209E-0001	
 2.72850000000000E+0003	 2.10645597390229E-0001	
 2.73050000000000E+0003	 2.11290940243249E-0001	
 2.73250000000000E+0003	 2.11938283096269E-0001	
 2.73450000000000E+0003	 2.12576625949289E-0001	
 2.73650000000000E+0003	 2.13207468802309E-0001	
 2.73850000000000E+0003	 2.13827311655329E-0001	
 2.74050000000000E+0003	 2.14436154508349E-0001	
 2.74250000000000E+0003	 2.15033997361369E-0001	
 2.74450000000000E+0003	 2.15623840214389E-0001	
 2.74650000000000E+0003	 2.16211183067409E-0001	
 2.74850000000000E+0003	 2.16805025920429E-0001	
 2.75050000000000E+0003	 2.17388868773449E-0001	
 2.75250000000000E+0003	 2.17966711626469E-0001	
 2.75450000000000E+0003	 2.18552554479489E-0001	
 2.75650000000000E+0003	 2.19155397332509E-0001	
 2.75850000000000E+0003	 2.19767240185529E-0001	
 2.76050000000000E+0003	 2.20391583038549E-0001	
 2.76250000000000E+0003	 2.21025425891569E-0001	
 2.76450000000000E+0003	 2.21664768744589E-0001	
 2.76650000000000E+0003	 2.22307611597609E-0001	
 2.76850000000000E+0003	 2.22960954450629E-0001	
 2.77050000000000E+0003	 2.23620797303649E-0001	
 2.77250000000000E+0003	 2.24296140156669E-0001	
 2.77450000000000E+0003	 2.24996983009689E-0001	
 2.77650000000000E+0003	 2.25710825862709E-0001	
 2.77850000000000E+0003	 2.26424668715729E-0001	
 2.78050000000000E+0003	 2.27158511568749E-0001	
 2.78250000000000E+0003	 2.27914354421769E-0001	
 2.78450000000000E+0003	 2.28684197274789E-0001	
 2.78650000000000E+0003	 2.29470040127809E-0001	
 2.78850000000000E+0003	 2.30289382980829E-0001	
 2.79050000000000E+0003	 2.31121725833849E-0001	
 2.79250000000000E+0003	 2.31948068686869E-0001	
 2.79450000000000E+0003	 2.32781411539889E-0001	
 2.79650000000000E+0003	 2.33642254392909E-0001	
 2.79850000000000E+0003	 2.34526097245929E-0001	
 2.80050000000000E+0003	 2.35410440098949E-0001	
 2.80250000000000E+0003	 2.36298282951969E-0001	
 2.80450000000000E+0003	 2.37209125804989E-0001	
 2.80650000000000E+0003	 2.38136468658009E-0001	
 2.80850000000000E+0003	 2.39081311511029E-0001	
 2.81050000000000E+0003	 2.40055154364049E-0001	
 2.81250000000000E+0003	 2.41042497217069E-0001	
 2.81450000000000E+0003	 2.42038840070089E-0001	
 2.81650000000000E+0003	 2.43060182923109E-0001	
 2.81850000000000E+0003	 2.44107025776129E-0001	
 2.82050000000000E+0003	 2.45183868629149E-0001	
 2.82250000000000E+0003	 2.46291211482169E-0001	
 2.82450000000000E+0003	 2.47433054335189E-0001	
 2.82650000000000E+0003	 2.48610897188209E-0001	
 2.82850000000000E+0003	 2.49840740041229E-0001	
 2.83050000000000E+0003	 2.51135582894249E-0001	
 2.83250000000000E+0003	 2.52514425747269E-0001	
 2.83450000000000E+0003	 2.54000268600289E-0001	
 2.83650000000000E+0003	 2.55642611453309E-0001	
 2.83850000000000E+0003	 2.57524454306329E-0001	
 2.84050000000000E+0003	 2.59713297159349E-0001	
 2.84250000000000E+0003	 2.62333640012369E-0001	
 2.84450000000000E+0003	 2.65557982865389E-0001	
 2.84650000000000E+0003	 2.69412325718409E-0001	
 2.84850000000000E+0003	 2.73705668571429E-0001	
 2.85050000000000E+0003	 2.77976011424449E-0001	
 2.85250000000000E+0003	 2.81589854277469E-0001	
 2.85450000000000E+0003	 2.84048197130489E-0001	
 2.85650000000000E+0003	 2.85383039983509E-0001	
 2.85850000000000E+0003	 2.86102882836529E-0001	
 2.86050000000000E+0003	 2.86780725689549E-0001	
 2.86250000000000E+0003	 2.87800568542569E-0001	
 2.86450000000000E+0003	 2.89387911395589E-0001	
 2.86650000000000E+0003	 2.91540754248609E-0001	
 2.86850000000000E+0003	 2.94061097101629E-0001	
 2.87050000000000E+0003	 2.96648439954649E-0001	
 2.87250000000000E+0003	 2.98953282807669E-0001	
 2.87450000000000E+0003	 3.00600125660689E-0001	
 2.87650000000000E+0003	 3.01486468513709E-0001	
 2.87850000000000E+0003	 3.01855811366729E-0001	
 2.88050000000000E+0003	 3.01990154219749E-0001	
 2.88250000000000E+0003	 3.02113497072769E-0001	
 2.88450000000000E+0003	 3.02408339925788E-0001	
 2.88650000000000E+0003	 3.02978182778808E-0001	
 2.88850000000000E+0003	 3.03849025631828E-0001	
 2.89050000000000E+0003	 3.04991368484848E-0001	
 2.89250000000000E+0003	 3.06382211337868E-0001	
 2.89450000000000E+0003	 3.08000554190888E-0001	
 2.89650000000000E+0003	 3.09788397043908E-0001	
 2.89850000000000E+0003	 3.11699739896928E-0001	
 2.90050000000000E+0003	 3.13787082749948E-0001	
 2.90250000000000E+0003	 3.16106425602968E-0001	
 2.90450000000000E+0003	 3.18702768455988E-0001	
 2.90650000000000E+0003	 3.21617611309008E-0001	
 2.90850000000000E+0003	 3.24920954162028E-0001	
 2.91050000000000E+0003	 3.28670797015048E-0001	
 2.91250000000000E+0003	 3.32890139868068E-0001	
 2.91450000000000E+0003	 3.37488982721088E-0001	
 2.91650000000000E+0003	 3.42301825574108E-0001	
 2.91850000000000E+0003	 3.47121168427128E-0001	
 2.92050000000000E+0003	 3.51615011280148E-0001	
 2.92250000000000E+0003	 3.55448854133168E-0001	
 2.92450000000000E+0003	 3.58408696986188E-0001	
 2.92650000000000E+0003	 3.60482539839208E-0001	
 2.92850000000000E+0003	 3.61812382692228E-0001	
 2.93050000000000E+0003	 3.62446225545248E-0001	
 2.93250000000000E+0003	 3.62374568398268E-0001	
 2.93450000000000E+0003	 3.61649411251288E-0001	
 2.93650000000000E+0003	 3.60247254104308E-0001	
 2.93850000000000E+0003	 3.58176596957328E-0001	
 2.94050000000000E+0003	 3.55626439810348E-0001	
 2.94250000000000E+0003	 3.52918782663368E-0001	
 2.94450000000000E+0003	 3.50347625516388E-0001	
 2.94650000000000E+0003	 3.48156468369408E-0001	
 2.94850000000000E+0003	 3.46594811222428E-0001	
 2.95050000000000E+0003	 3.45877154075448E-0001	
 2.95250000000000E+0003	 3.45991496928468E-0001	
 2.95450000000000E+0003	 3.46591339781488E-0001	
 2.95650000000000E+0003	 3.47328182634508E-0001	
 2.95850000000000E+0003	 3.47872025487528E-0001	
 2.96050000000000E+0003	 3.47914868340548E-0001	
 2.96250000000000E+0003	 3.47258211193568E-0001	
 2.96450000000000E+0003	 3.45838054046588E-0001	
 2.96650000000000E+0003	 3.43720396899608E-0001	
 2.96850000000000E+0003	 3.41072739752628E-0001	
 2.97050000000000E+0003	 3.38251582605648E-0001	
 2.97250000000000E+0003	 3.35611925458668E-0001	
 2.97450000000000E+0003	 3.33083268311688E-0001	
 2.97650000000000E+0003	 3.30528111164708E-0001	
 2.97850000000000E+0003	 3.28019954017728E-0001	
 2.98050000000000E+0003	 3.25589296870748E-0001	
 2.98250000000000E+0003	 3.23202639723768E-0001	
 2.98450000000000E+0003	 3.20925982576788E-0001	
 2.98650000000000E+0003	 3.18842825429808E-0001	
 2.98850000000000E+0003	 3.16981668282828E-0001	
 2.99050000000000E+0003	 3.15367511135848E-0001	
 2.99250000000000E+0003	 3.14000353988868E-0001	
 2.99450000000000E+0003	 3.12851196841888E-0001	
 2.99650000000000E+0003	 3.12000539694908E-0001	
 2.99850000000000E+0003	 3.11474382547928E-0001	
 3.00050000000000E+0003	 3.11224225400948E-0001	
 3.00250000000000E+0003	 3.11274068253968E-0001	
 3.00450000000000E+0003	 3.11593911106988E-0001	
 3.00650000000000E+0003	 3.12129753960008E-0001	
 3.00850000000000E+0003	 3.12883096813028E-0001	
 3.01050000000000E+0003	 3.13861439666048E-0001	
 3.01250000000000E+0003	 3.15001282519068E-0001	
 3.01450000000000E+0003	 3.16225625372088E-0001	
 3.01650000000000E+0003	 3.17546468225108E-0001	
 3.01850000000000E+0003	 3.19030311078128E-0001	
 3.02050000000000E+0003	 3.20677153931148E-0001	
 3.02250000000000E+0003	 3.22441496784168E-0001	
 3.02450000000000E+0003	 3.24319339637188E-0001	
 3.02650000000000E+0003	 3.26243682490208E-0001	
 3.02850000000000E+0003	 3.28185525343228E-0001	
 3.03050000000000E+0003	 3.30143868196248E-0001	
 3.03250000000000E+0003	 3.32107211049268E-0001	
 3.03450000000000E+0003	 3.34086053902288E-0001	
 3.03650000000000E+0003	 3.36061396755308E-0001	
 3.03850000000000E+0003	 3.38057739608328E-0001	
 3.04050000000000E+0003	 3.40136082461348E-0001	
 3.04250000000000E+0003	 3.42259425314368E-0001	
 3.04450000000000E+0003	 3.44381268167388E-0001	
 3.04650000000000E+0003	 3.46495611020408E-0001	
 3.04850000000000E+0003	 3.48621453873428E-0001	
 3.05050000000000E+0003	 3.50796296726448E-0001	
 3.05250000000000E+0003	 3.52981139579468E-0001	
 3.05450000000000E+0003	 3.55133482432488E-0001	
 3.05650000000000E+0003	 3.57248825285508E-0001	
 3.05850000000000E+0003	 3.59285668138528E-0001	
 3.06050000000000E+0003	 3.61223010991548E-0001	
 3.06250000000000E+0003	 3.63051353844568E-0001	
 3.06450000000000E+0003	 3.64762696697588E-0001	
 3.06650000000000E+0003	 3.66377539550608E-0001	
 3.06850000000000E+0003	 3.67909882403628E-0001	
 3.07050000000000E+0003	 3.69342725256648E-0001	
 3.07250000000000E+0003	 3.70712068109668E-0001	
 3.07450000000000E+0003	 3.72036410962688E-0001	
 3.07650000000000E+0003	 3.73335253815708E-0001	
 3.07850000000000E+0003	 3.74622596668728E-0001	
 3.08050000000000E+0003	 3.75858439521748E-0001	
 3.08250000000000E+0003	 3.77028282374768E-0001	
 3.08450000000000E+0003	 3.78182625227788E-0001	
 3.08650000000000E+0003	 3.79295968080808E-0001	
 3.08850000000000E+0003	 3.80360310933828E-0001	
 3.09050000000000E+0003	 3.81402653786848E-0001	
 3.09250000000000E+0003	 3.82408496639868E-0001	
 3.09450000000000E+0003	 3.83376339492888E-0001	
 3.09650000000000E+0003	 3.84345182345908E-0001	
 3.09850000000000E+0003	 3.85349525198928E-0001	
 3.10050000000000E+0003	 3.86393868051948E-0001	
 3.10250000000000E+0003	 3.87454710904968E-0001	
 3.10450000000000E+0003	 3.88554053757988E-0001	
 3.10650000000000E+0003	 3.89722896611008E-0001	
 3.10850000000000E+0003	 3.90986239464028E-0001	
 3.11050000000000E+0003	 3.92305582317048E-0001	
 3.11250000000000E+0003	 3.93678925170068E-0001	
 3.11450000000000E+0003	 3.95181268023088E-0001	
 3.11650000000000E+0003	 3.96807110876108E-0001	
 3.11850000000000E+0003	 3.98492953729128E-0001	
 3.12050000000000E+0003	 4.00234796582148E-0001	
 3.12250000000000E+0003	 4.02006639435168E-0001	
 3.12450000000000E+0003	 4.03853982288188E-0001	
 3.12650000000000E+0003	 4.05816325141208E-0001	
 3.12850000000000E+0003	 4.07883667994228E-0001	
 3.13050000000000E+0003	 4.10011010847248E-0001	
 3.13250000000000E+0003	 4.12162353700268E-0001	
 3.13450000000000E+0003	 4.14377696553288E-0001	
 3.13650000000000E+0003	 4.16698039406308E-0001	
 3.13850000000000E+0003	 4.19103382259328E-0001	
 3.14050000000000E+0003	 4.21507225112348E-0001	
 3.14250000000000E+0003	 4.23899567965368E-0001	
 3.14450000000000E+0003	 4.26380410818388E-0001	
 3.14650000000000E+0003	 4.28957253671408E-0001	
 3.14850000000000E+0003	 4.31618596524428E-0001	
 3.15050000000000E+0003	 4.34398939377448E-0001	
 3.15250000000000E+0003	 4.37228282230468E-0001	
 3.15450000000000E+0003	 4.39976625083488E-0001	
 3.15650000000000E+0003	 4.42738467936508E-0001	
 3.15850000000000E+0003	 4.45605310789528E-0001	
 3.16050000000000E+0003	 4.48546153642548E-0001	
 3.16250000000000E+0003	 4.51524996495568E-0001	
 3.16450000000000E+0003	 4.54539339348588E-0001	
 3.16650000000000E+0003	 4.57575682201608E-0001	
 3.16850000000000E+0003	 4.60627525054628E-0001	
 3.17050000000000E+0003	 4.63689367907648E-0001	
 3.17250000000000E+0003	 4.66758210760668E-0001	
 3.17450000000000E+0003	 4.69825053613688E-0001	
 3.17650000000000E+0003	 4.72886896466708E-0001	
 3.17850000000000E+0003	 4.75932739319728E-0001	
 3.18050000000000E+0003	 4.78966082172748E-0001	
 3.18250000000000E+0003	 4.81974425025768E-0001	
 3.18450000000000E+0003	 4.84955767878788E-0001	
 3.18650000000000E+0003	 4.87908110731808E-0001	
 3.18850000000000E+0003	 4.90823453584828E-0001	
 3.19050000000000E+0003	 4.93679796437848E-0001	
 3.19250000000000E+0003	 4.96492639290868E-0001	
 3.19450000000000E+0003	 4.99260982143888E-0001	
 3.19650000000000E+0003	 5.01981324996908E-0001	
 3.19850000000000E+0003	 5.04650167849928E-0001	
 3.20050000000000E+0003	 5.07286510702948E-0001	
 3.20250000000000E+0003	 5.09882853555968E-0001	
 3.20450000000000E+0003	 5.12440196408988E-0001	
 3.20650000000000E+0003	 5.14962539262008E-0001	
 3.20850000000000E+0003	 5.17442382115028E-0001	
 3.21050000000000E+0003	 5.19896724968048E-0001	
 3.21250000000000E+0003	 5.22366567821068E-0001	
 3.21450000000000E+0003	 5.24823910674088E-0001	
 3.21650000000000E+0003	 5.27277753527108E-0001	
 3.21850000000000E+0003	 5.29731096380128E-0001	
 3.22050000000000E+0003	 5.32170939233148E-0001	
 3.22250000000000E+0003	 5.34615282086168E-0001	
 3.22450000000000E+0003	 5.37099624939188E-0001	
 3.22650000000000E+0003	 5.39622467792208E-0001	
 3.22850000000000E+0003	 5.42199310645228E-0001	
 3.23050000000000E+0003	 5.44864153498248E-0001	
 3.23250000000000E+0003	 5.47619496351268E-0001	
 3.23450000000000E+0003	 5.50333339204288E-0001	
 3.23650000000000E+0003	 5.53005682057308E-0001	
 3.23850000000000E+0003	 5.55778024910328E-0001	
 3.24050000000000E+0003	 5.58693867763348E-0001	
 3.24250000000000E+0003	 5.61711210616368E-0001	
 3.24450000000000E+0003	 5.64816053469388E-0001	
 3.24650000000000E+0003	 5.67994896322408E-0001	
 3.24850000000000E+0003	 5.71196239175428E-0001	
 3.25050000000000E+0003	 5.74425582028448E-0001	
 3.25250000000000E+0003	 5.77748424881468E-0001	
 3.25450000000000E+0003	 5.81150767734488E-0001	
 3.25650000000000E+0003	 5.84592610587508E-0001	
 3.25850000000000E+0003	 5.88021953440528E-0001	
 3.26050000000000E+0003	 5.91468296293548E-0001	
 3.26250000000000E+0003	 5.94920639146568E-0001	
 3.26450000000000E+0003	 5.98335981999588E-0001	
 3.26650000000000E+0003	 6.01686824852608E-0001	
 3.26850000000000E+0003	 6.05001667705628E-0001	
 3.27050000000000E+0003	 6.08247010558648E-0001	
 3.27250000000000E+0003	 6.11317853411668E-0001	
 3.27450000000000E+0003	 6.14200696264688E-0001	
 3.27650000000000E+0003	 6.16962039117708E-0001	
 3.27850000000000E+0003	 6.19584881970728E-0001	
 3.28050000000000E+0003	 6.22071224823748E-0001	
 3.28250000000000E+0003	 6.24389567676768E-0001	
 3.28450000000000E+0003	 6.26538910529788E-0001	
 3.28650000000000E+0003	 6.28516753382808E-0001	
 3.28850000000000E+0003	 6.30340096235828E-0001	
 3.29050000000000E+0003	 6.32010439088848E-0001	
 3.29250000000000E+0003	 6.33524781941868E-0001	
 3.29450000000000E+0003	 6.34870624794888E-0001	
 3.29650000000000E+0003	 6.36070467647908E-0001	
 3.29850000000000E+0003	 6.37111810500928E-0001	
 3.30050000000000E+0003	 6.38042653353948E-0001	
 3.30250000000000E+0003	 6.38885996206968E-0001	
 3.30450000000000E+0003	 6.39671339059988E-0001	
 3.30650000000000E+0003	 6.40366181913008E-0001	
 3.30850000000000E+0003	 6.40928024766028E-0001	
 3.31050000000000E+0003	 6.41381867619048E-0001	
 3.31250000000000E+0003	 6.41791710472068E-0001	
 3.31450000000000E+0003	 6.42170553325088E-0001	
 3.31650000000000E+0003	 6.42535896178108E-0001	
 3.31850000000000E+0003	 6.42876239031128E-0001	
 3.32050000000000E+0003	 6.43219081884148E-0001	
 3.32250000000000E+0003	 6.43558924737168E-0001	
 3.32450000000000E+0003	 6.43912267590188E-0001	
 3.32650000000000E+0003	 6.44256110443208E-0001	
 3.32850000000000E+0003	 6.44586453296228E-0001	
 3.33050000000000E+0003	 6.44933796149248E-0001	
 3.33250000000000E+0003	 6.45333639002268E-0001	
 3.33450000000000E+0003	 6.45756481855288E-0001	
 3.33650000000000E+0003	 6.46209324708308E-0001	
 3.33850000000000E+0003	 6.46679167561328E-0001	
 3.34050000000000E+0003	 6.47136010414348E-0001	
 3.34250000000000E+0003	 6.47588853267368E-0001	
 3.34450000000000E+0003	 6.48060696120388E-0001	
 3.34650000000000E+0003	 6.48546038973408E-0001	
 3.34850000000000E+0003	 6.49109881826428E-0001	
 3.35050000000000E+0003	 6.49691724679448E-0001	
 3.35250000000000E+0003	 6.50199067532468E-0001	
 3.35450000000000E+0003	 6.50661410385488E-0001	
 3.35650000000000E+0003	 6.51163753238508E-0001	
 3.35850000000000E+0003	 6.51719596091528E-0001	
 3.36050000000000E+0003	 6.52298438944548E-0001	
 3.36250000000000E+0003	 6.52837781797568E-0001	
 3.36450000000000E+0003	 6.53419624650588E-0001	
 3.36650000000000E+0003	 6.54068467503608E-0001	
 3.36850000000000E+0003	 6.54695810356627E-0001	
 3.37050000000000E+0003	 6.55164153209647E-0001	
 3.37250000000000E+0003	 6.55520996062667E-0001	
 3.37450000000000E+0003	 6.55941338915687E-0001	
 3.37650000000000E+0003	 6.56452181768707E-0001	
 3.37850000000000E+0003	 6.56937024621727E-0001	
 3.38050000000000E+0003	 6.57381867474747E-0001	
 3.38250000000000E+0003	 6.57798710327767E-0001	
 3.38450000000000E+0003	 6.58204053180787E-0001	
 3.38650000000000E+0003	 6.58617896033807E-0001	
 3.38850000000000E+0003	 6.59148238886827E-0001	
 3.39050000000000E+0003	 6.59763081739847E-0001	
 3.39250000000000E+0003	 6.60154424592867E-0001	
 3.39450000000000E+0003	 6.60307767445887E-0001	
 3.39650000000000E+0003	 6.60568610298907E-0001	
 3.39850000000000E+0003	 6.61059453151927E-0001	
 3.40050000000000E+0003	 6.61522796004947E-0001	
 3.40250000000000E+0003	 6.61565138857967E-0001	
 3.40450000000000E+0003	 6.61429481710987E-0001	
 3.40650000000000E+0003	 6.61484824564007E-0001	
 3.40850000000000E+0003	 6.61658167417027E-0001	
 3.41050000000000E+0003	 6.61752010270047E-0001	
 3.41250000000000E+0003	 6.61754353123067E-0001	
 3.41450000000000E+0003	 6.61596195976087E-0001	
 3.41650000000000E+0003	 6.61375538829107E-0001	
 3.41850000000000E+0003	 6.61185381682127E-0001	
 3.42050000000000E+0003	 6.60911224535147E-0001	
 3.42250000000000E+0003	 6.60517067388167E-0001	
 3.42450000000000E+0003	 6.60144410241187E-0001	
 3.42650000000000E+0003	 6.59807253094207E-0001	
 3.42850000000000E+0003	 6.59450095947227E-0001	
 3.43050000000000E+0003	 6.58917438800247E-0001	
 3.43250000000000E+0003	 6.58303281653267E-0001	
 3.43450000000000E+0003	 6.57740624506287E-0001	
 3.43650000000000E+0003	 6.56961967359307E-0001	
 3.43850000000000E+0003	 6.55820310212327E-0001	
 3.44050000000000E+0003	 6.54600153065347E-0001	
 3.44250000000000E+0003	 6.53472995918367E-0001	
 3.44450000000000E+0003	 6.52428338771387E-0001	
 3.44650000000000E+0003	 6.51248681624407E-0001	
 3.44850000000000E+0003	 6.49903024477427E-0001	
 3.45050000000000E+0003	 6.48586367330447E-0001	
 3.45250000000000E+0003	 6.47269210183467E-0001	
 3.45450000000000E+0003	 6.45860553036487E-0001	
 3.45650000000000E+0003	 6.44432895889507E-0001	
 3.45850000000000E+0003	 6.43036238742527E-0001	
 3.46050000000000E+0003	 6.41501581595547E-0001	
 3.46250000000000E+0003	 6.39761424448567E-0001	
 3.46450000000000E+0003	 6.38192267301587E-0001	
 3.46650000000000E+0003	 6.36817110154607E-0001	
 3.46850000000000E+0003	 6.35155453007627E-0001	
 3.47050000000000E+0003	 6.32954295860647E-0001	
 3.47250000000000E+0003	 6.30620138713667E-0001	
 3.47450000000000E+0003	 6.28470481566687E-0001	
 3.47650000000000E+0003	 6.26532824419707E-0001	
 3.47850000000000E+0003	 6.24723167272727E-0001	
 3.48050000000000E+0003	 6.22604510125747E-0001	
 3.48250000000000E+0003	 6.20137352978767E-0001	
 3.48450000000000E+0003	 6.17889695831787E-0001	
 3.48650000000000E+0003	 6.15755038684807E-0001	
 3.48850000000000E+0003	 6.13395381537827E-0001	
 3.49050000000000E+0003	 6.10994724390847E-0001	
 3.49250000000000E+0003	 6.08729567243867E-0001	
 3.49450000000000E+0003	 6.06472410096887E-0001	
 3.49650000000000E+0003	 6.04116252949907E-0001	
 3.49850000000000E+0003	 6.01705595802927E-0001	
 3.50050000000000E+0003	 5.99392938655947E-0001	
 3.50250000000000E+0003	 5.96894281508967E-0001	
 3.50450000000000E+0003	 5.94019624361987E-0001	
 3.50650000000000E+0003	 5.91243467215007E-0001	
 3.50850000000000E+0003	 5.88608810068027E-0001	
 3.51050000000000E+0003	 5.85964652921047E-0001	
 3.51250000000000E+0003	 5.83465495774067E-0001	
 3.51450000000000E+0003	 5.80867838627087E-0001	
 3.51650000000000E+0003	 5.78050181480107E-0001	
 3.51850000000000E+0003	 5.75232024333127E-0001	
 3.52050000000000E+0003	 5.72609367186147E-0001	
 3.52250000000000E+0003	 5.70045210039167E-0001	
 3.52450000000000E+0003	 5.67157052892187E-0001	
 3.52650000000000E+0003	 5.63972895745207E-0001	
 3.52850000000000E+0003	 5.60812238598227E-0001	
 3.53050000000000E+0003	 5.57788581451247E-0001	
 3.53250000000000E+0003	 5.54923424304267E-0001	
 3.53450000000000E+0003	 5.52138767157287E-0001	
 3.53650000000000E+0003	 5.49110110010307E-0001	
 3.53850000000000E+0003	 5.45821952863327E-0001	
 3.54050000000000E+0003	 5.42754795716347E-0001	
 3.54250000000000E+0003	 5.39932638569367E-0001	
 3.54450000000000E+0003	 5.36832481422387E-0001	
 3.54650000000000E+0003	 5.33090824275407E-0001	
 3.54850000000000E+0003	 5.29310667128427E-0001	
 3.55050000000000E+0003	 5.25887009981447E-0001	
 3.55250000000000E+0003	 5.22310852834467E-0001	
 3.55450000000000E+0003	 5.18628695687487E-0001	
 3.55650000000000E+0003	 5.15143538540507E-0001	
 3.55850000000000E+0003	 5.11678381393527E-0001	
 3.56050000000000E+0003	 5.08122724246547E-0001	
 3.56250000000000E+0003	 5.04553067099567E-0001	
 3.56450000000000E+0003	 5.00955409952587E-0001	
 3.56650000000000E+0003	 4.96896252805607E-0001	
 3.56850000000000E+0003	 4.92586595658627E-0001	
 3.57050000000000E+0003	 4.88735438511647E-0001	
 3.57250000000000E+0003	 4.85029281364667E-0001	
 3.57450000000000E+0003	 4.81111624217687E-0001	
 3.57650000000000E+0003	 4.77130967070707E-0001	
 3.57850000000000E+0003	 4.73184309923727E-0001	
 3.58050000000000E+0003	 4.69306152776747E-0001	
 3.58250000000000E+0003	 4.65585995629767E-0001	
 3.58450000000000E+0003	 4.61934838482787E-0001	
 3.58650000000000E+0003	 4.57613681335807E-0001	
 3.58850000000000E+0003	 4.52630524188827E-0001	
 3.59050000000000E+0003	 4.48289867041847E-0001	
 3.59250000000000E+0003	 4.44437209894867E-0001	
 3.59450000000000E+0003	 4.40188052747887E-0001	
 3.59650000000000E+0003	 4.35856395600907E-0001	
 3.59850000000000E+0003	 4.31766738453927E-0001	
 3.60050000000000E+0003	 4.27552081306947E-0001	
 3.60250000000000E+0003	 4.23266924159967E-0001	
 3.60450000000000E+0003	 4.19225267012987E-0001	
 3.60650000000000E+0003	 4.15099609866007E-0001	
 3.60850000000000E+0003	 4.10579452719027E-0001	
 3.61050000000000E+0003	 4.06113295572047E-0001	
 3.61250000000000E+0003	 4.01914138425067E-0001	
 3.61450000000000E+0003	 3.97765981278087E-0001	
 3.61650000000000E+0003	 3.93750824131107E-0001	
 3.61850000000000E+0003	 3.89454166984127E-0001	
 3.62050000000000E+0003	 3.84891509837147E-0001	
 3.62250000000000E+0003	 3.80714352690167E-0001	
 3.62450000000000E+0003	 3.76946695543187E-0001	
 3.62650000000000E+0003	 3.73157538396207E-0001	
 3.62850000000000E+0003	 3.68535381249227E-0001	
 3.63050000000000E+0003	 3.63618224102247E-0001	
 3.63250000000000E+0003	 3.59768566955267E-0001	
 3.63450000000000E+0003	 3.56069909808287E-0001	
 3.63650000000000E+0003	 3.52126752661307E-0001	
 3.63850000000000E+0003	 3.48249595514327E-0001	
 3.64050000000000E+0003	 3.44415938367347E-0001	
 3.64250000000000E+0003	 3.40715781220367E-0001	
 3.64450000000000E+0003	 3.37265624073387E-0001	
 3.64650000000000E+0003	 3.33873466926407E-0001	
 3.64850000000000E+0003	 3.30081309779427E-0001	
 3.65050000000000E+0003	 3.26084152632447E-0001	
 3.65250000000000E+0003	 3.22485495485467E-0001	
 3.65450000000000E+0003	 3.19290838338487E-0001	
 3.65650000000000E+0003	 3.15929181191507E-0001	
 3.65850000000000E+0003	 3.12646024044527E-0001	
 3.66050000000000E+0003	 3.09645866897547E-0001	
 3.66250000000000E+0003	 3.06566209750567E-0001	
 3.66450000000000E+0003	 3.03605052603587E-0001	
 3.66650000000000E+0003	 3.00939895456607E-0001	
 3.66850000000000E+0003	 2.98277238309627E-0001	
 3.67050000000000E+0003	 2.95474081162647E-0001	
 3.67250000000000E+0003	 2.93010924015667E-0001	
 3.67450000000000E+0003	 2.90784766868687E-0001	
 3.67650000000000E+0003	 2.88213109721707E-0001	
 3.67850000000000E+0003	 2.85894952574727E-0001	
 3.68050000000000E+0003	 2.83908795427747E-0001	
 3.68250000000000E+0003	 2.81944638280767E-0001	
 3.68450000000000E+0003	 2.80151481133787E-0001	
 3.68650000000000E+0003	 2.78539823986807E-0001	
 3.68850000000000E+0003	 2.76829166839827E-0001	
 3.69050000000000E+0003	 2.74948009692847E-0001	
 3.69250000000000E+0003	 2.73251352545867E-0001	
 3.69450000000000E+0003	 2.71735695398887E-0001	
 3.69650000000000E+0003	 2.70333038251907E-0001	
 3.69850000000000E+0003	 2.68977881104927E-0001	
 3.70050000000000E+0003	 2.67702223957947E-0001	
 3.70250000000000E+0003	 2.66475566810967E-0001	
 3.70450000000000E+0003	 2.65318409663987E-0001	
 3.70650000000000E+0003	 2.64262752517007E-0001	
 3.70850000000000E+0003	 2.63266595370027E-0001	
 3.71050000000000E+0003	 2.62285438223047E-0001	
 3.71250000000000E+0003	 2.61352281076067E-0001	
 3.71450000000000E+0003	 2.60440123929087E-0001	
 3.71650000000000E+0003	 2.59584466782107E-0001	
 3.71850000000000E+0003	 2.58741309635127E-0001	
 3.72050000000000E+0003	 2.57932652488147E-0001	
 3.72250000000000E+0003	 2.57180995341167E-0001	
 3.72450000000000E+0003	 2.56423838194187E-0001	
 3.72650000000000E+0003	 2.55676681047207E-0001	
 3.72850000000000E+0003	 2.54938023900227E-0001	
 3.73050000000000E+0003	 2.54302866753247E-0001	
 3.73250000000000E+0003	 2.53736209606267E-0001	
 3.73450000000000E+0003	 2.53216052459287E-0001	
 3.73650000000000E+0003	 2.52718395312307E-0001	
 3.73850000000000E+0003	 2.52102238165327E-0001	
 3.74050000000000E+0003	 2.51500081018347E-0001	
 3.74250000000000E+0003	 2.50865423871367E-0001	
 3.74450000000000E+0003	 2.50281766724387E-0001	
 3.74650000000000E+0003	 2.49711609577407E-0001	
 3.74850000000000E+0003	 2.49245452430427E-0001	
 3.75050000000000E+0003	 2.48711795283447E-0001	
 3.75250000000000E+0003	 2.48246138136467E-0001	
 3.75450000000000E+0003	 2.47739980989487E-0001	
 3.75650000000000E+0003	 2.47252323842507E-0001	
 3.75850000000000E+0003	 2.46792666695527E-0001	
 3.76050000000000E+0003	 2.46380009548547E-0001	
 3.76250000000000E+0003	 2.45903852401567E-0001	
 3.76450000000000E+0003	 2.45468195254587E-0001	
 3.76650000000000E+0003	 2.45069538107607E-0001	
 3.76850000000000E+0003	 2.44680880960627E-0001	
 3.77050000000000E+0003	 2.44300723813647E-0001	
 3.77250000000000E+0003	 2.43866566666667E-0001	
 3.77450000000000E+0003	 2.43446409519687E-0001	
 3.77650000000000E+0003	 2.43075752372707E-0001	
 3.77850000000000E+0003	 2.42806595225727E-0001	
 3.78050000000000E+0003	 2.42508438078747E-0001	
 3.78250000000000E+0003	 2.42085780931767E-0001	
 3.78450000000000E+0003	 2.41696123784787E-0001	
 3.78650000000000E+0003	 2.41371466637807E-0001	
 3.78850000000000E+0003	 2.41060309490827E-0001	
 3.79050000000000E+0003	 2.40752152343847E-0001	
 3.79250000000000E+0003	 2.40447495196867E-0001	
 3.79450000000000E+0003	 2.40137838049887E-0001	
 3.79650000000000E+0003	 2.39906180902907E-0001	
 3.79850000000000E+0003	 2.39620523755927E-0001	
 3.80050000000000E+0003	 2.39326366608947E-0001	
 3.80250000000000E+0003	 2.39125209461967E-0001	
 3.80450000000000E+0003	 2.38872052314987E-0001	
 3.80650000000000E+0003	 2.38616895168007E-0001	
 3.80850000000000E+0003	 2.38330238021027E-0001	
 3.81050000000000E+0003	 2.38059580874047E-0001	
 3.81250000000000E+0003	 2.37782423727067E-0001	
 3.81450000000000E+0003	 2.37535266580087E-0001	
 3.81650000000000E+0003	 2.37375609433107E-0001	
 3.81850000000000E+0003	 2.37168952286127E-0001	
 3.82050000000000E+0003	 2.37054795139147E-0001	
 3.82250000000000E+0003	 2.36902137992167E-0001	
 3.82450000000000E+0003	 2.36604980845187E-0001	
 3.82650000000000E+0003	 2.36359823698207E-0001	
 3.82850000000000E+0003	 2.36148666551227E-0001	
 3.83050000000000E+0003	 2.35945509404247E-0001	
 3.83250000000000E+0003	 2.35772352257267E-0001	
 3.83450000000000E+0003	 2.35649695110287E-0001	
 3.83650000000000E+0003	 2.35500537963307E-0001	
 3.83850000000000E+0003	 2.35311380816327E-0001	
 3.84050000000000E+0003	 2.35164223669347E-0001	
 3.84250000000000E+0003	 2.35036566522367E-0001	
 3.84450000000000E+0003	 2.34883909375387E-0001	
 3.84650000000000E+0003	 2.34679752228407E-0001	
 3.84850000000000E+0003	 2.34460095081427E-0001	
 3.85050000000000E+0003	 2.34234437934447E-0001	
 3.85250000000000E+0003	 2.34058280787467E-0001	
 3.85450000000000E+0003	 2.34008123640486E-0001	
 3.85650000000000E+0003	 2.33923966493506E-0001	
 3.85850000000000E+0003	 2.33801809346526E-0001	
 3.86050000000000E+0003	 2.33632152199546E-0001	
 3.86250000000000E+0003	 2.33466995052566E-0001	
 3.86450000000000E+0003	 2.33419837905586E-0001	
 3.86650000000000E+0003	 2.33315680758606E-0001	
 3.86850000000000E+0003	 2.33174523611626E-0001	
 3.87050000000000E+0003	 2.33092866464646E-0001	
 3.87250000000000E+0003	 2.32976709317666E-0001	
 3.87450000000000E+0003	 2.32908552170686E-0001	
 3.87650000000000E+0003	 2.32765895023706E-0001	
 3.87850000000000E+0003	 2.32609237876726E-0001	
 3.88050000000000E+0003	 2.32572080729746E-0001	
 3.88250000000000E+0003	 2.32547423582766E-0001	
 3.88450000000000E+0003	 2.32509766435786E-0001	
 3.88650000000000E+0003	 2.32448109288806E-0001	
 3.88850000000000E+0003	 2.32237952141826E-0001	
 3.89050000000000E+0003	 2.32083294994846E-0001	
 3.89250000000000E+0003	 2.32021137847866E-0001	
 3.89450000000000E+0003	 2.31963980700886E-0001	
 3.89650000000000E+0003	 2.31857323553906E-0001	
 3.89850000000000E+0003	 2.31833666406926E-0001	
 3.90050000000000E+0003	 2.31878509259946E-0001	
 3.90250000000000E+0003	 2.31862852112966E-0001	
 3.90450000000000E+0003	 2.31788694965986E-0001	
 3.90650000000000E+0003	 2.31682537819006E-0001	
 3.90850000000000E+0003	 2.31554380672026E-0001	
 3.91050000000000E+0003	 2.31443723525046E-0001	
 3.91250000000000E+0003	 2.31384066378066E-0001	
 3.91450000000000E+0003	 2.31363409231086E-0001	
 3.91650000000000E+0003	 2.31391252084106E-0001	
 3.91850000000000E+0003	 2.31403594937126E-0001	
 3.92050000000000E+0003	 2.31357937790146E-0001	
 3.92250000000000E+0003	 2.31266780643166E-0001	
 3.92450000000000E+0003	 2.31222623496186E-0001	
 3.92650000000000E+0003	 2.31193466349206E-0001	
 3.92850000000000E+0003	 2.31149309202226E-0001	
 3.93050000000000E+0003	 2.31136652055246E-0001	
 3.93250000000000E+0003	 2.31177494908266E-0001	
 3.93450000000000E+0003	 2.31149837761286E-0001	
 3.93650000000000E+0003	 2.31049180614306E-0001	
 3.93850000000000E+0003	 2.30962023467326E-0001	
 3.94050000000000E+0003	 2.30908366320346E-0001	
 3.94250000000000E+0003	 2.30903709173366E-0001	
 3.94450000000000E+0003	 2.30898552026386E-0001	
 3.94650000000000E+0003	 2.30858894879406E-0001	
 3.94850000000000E+0003	 2.30809737732426E-0001	
 3.95050000000000E+0003	 2.30764080585446E-0001	
 3.95250000000000E+0003	 2.30708423438466E-0001	
 3.95450000000000E+0003	 2.30652266291486E-0001	
 3.95650000000000E+0003	 2.30610109144506E-0001	
 3.95850000000000E+0003	 2.30574951997526E-0001	
 3.96050000000000E+0003	 2.30541794850546E-0001	
 3.96250000000000E+0003	 2.30516137703566E-0001	
 3.96450000000000E+0003	 2.30476980556586E-0001	
 3.96650000000000E+0003	 2.30427823409606E-0001	
 3.96850000000000E+0003	 2.30387666262626E-0001	
 3.97050000000000E+0003	 2.30355009115646E-0001	
 3.97250000000000E+0003	 2.30323851968666E-0001	
 3.97450000000000E+0003	 2.30303194821686E-0001	
 3.97650000000000E+0003	 2.30285537674706E-0001	
 3.97850000000000E+0003	 2.30248880527726E-0001	
 3.98050000000000E+0003	 2.30206723380746E-0001	
 3.98250000000000E+0003	 2.30193566233766E-0001	
 3.98450000000000E+0003	 2.30181909086786E-0001	
 3.98650000000000E+0003	 2.30132751939806E-0001	
 3.98850000000000E+0003	 2.30070594792826E-0001	
 3.99050000000000E+0003	 2.30031937645846E-0001	
 3.99250000000000E+0003	 2.30003280498866E-0001	
 3.99450000000000E+0003	 2.29977123351886E-0001	
 3.99650000000000E+0003	 2.29946466204906E-0001	
 3.99850000000000E+0003	 2.29911809057926E-0001	

>1	DATALINE
