*CPCWIN*

>1	DATALINE
DATALINE
1
Operator:

Description:

Remarks:





15.9.2008
10:39


_x	_y
	
	
UNIT	UNIT
 4.50500000000000E+0002	 1.65880524460967E-0001	
 4.52500000000000E+0002	 1.66176271003717E-0001	
 4.54500000000000E+0002	 1.66566517546468E-0001	
 4.56500000000000E+0002	 1.66793264089219E-0001	
 4.58500000000000E+0002	 1.67026010631970E-0001	
 4.60500000000000E+0002	 1.67792757174721E-0001	
 4.62500000000000E+0002	 1.68655503717472E-0001	
 4.64500000000000E+0002	 1.69435750260223E-0001	
 4.66500000000000E+0002	 1.70011496802974E-0001	
 4.68500000000000E+0002	 1.70415743345725E-0001	
 4.70500000000000E+0002	 1.71033489888476E-0001	
 4.72500000000000E+0002	 1.71538236431227E-0001	
 4.74500000000000E+0002	 1.72103482973978E-0001	
 4.76500000000000E+0002	 1.72747729516729E-0001	
 4.78500000000000E+0002	 1.73469476059480E-0001	
 4.80500000000000E+0002	 1.74143222602230E-0001	
 4.82500000000000E+0002	 1.74912969144981E-0001	
 4.84500000000000E+0002	 1.75623715687732E-0001	
 4.86500000000000E+0002	 1.76510962230483E-0001	
 4.88500000000000E+0002	 1.77328708773234E-0001	
 4.90500000000000E+0002	 1.78150955315985E-0001	
 4.92500000000000E+0002	 1.78972701858736E-0001	
 4.94500000000000E+0002	 1.80022948401487E-0001	
 4.96500000000000E+0002	 1.80961694944238E-0001	
 4.98500000000000E+0002	 1.82007441486989E-0001	
 5.00500000000000E+0002	 1.82888188029740E-0001	
 5.02500000000000E+0002	 1.83850434572491E-0001	
 5.04500000000000E+0002	 1.84845181115242E-0001	
 5.06500000000000E+0002	 1.86024427657993E-0001	
 5.08500000000000E+0002	 1.87014674200743E-0001	
 5.10500000000000E+0002	 1.88176420743494E-0001	
 5.12500000000000E+0002	 1.89279167286245E-0001	
 5.14500000000000E+0002	 1.90595913828996E-0001	
 5.16500000000000E+0002	 1.91739160371747E-0001	
 5.18500000000000E+0002	 1.93074406914498E-0001	
 5.20500000000000E+0002	 1.94184153457249E-0001	
 5.22500000000000E+0002	 1.95311900000000E-0001	
 5.24500000000000E+0002	 1.96048146542751E-0001	
 5.26500000000000E+0002	 1.96975893085502E-0001	
 5.28500000000000E+0002	 1.97917139628253E-0001	
 5.30500000000000E+0002	 1.98955386171004E-0001	
 5.32500000000000E+0002	 1.99551132713755E-0001	
 5.34500000000000E+0002	 2.00125879256506E-0001	
 5.36500000000000E+0002	 2.00298125799257E-0001	
 5.38500000000000E+0002	 2.00475872342007E-0001	
 5.40500000000000E+0002	 2.00376618884758E-0001	
 5.42500000000000E+0002	 2.00438365427509E-0001	
 5.44500000000000E+0002	 2.00328111970260E-0001	
 5.46500000000000E+0002	 2.00484358513011E-0001	
 5.48500000000000E+0002	 2.00532105055762E-0001	
 5.50500000000000E+0002	 2.00783851598513E-0001	
 5.52500000000000E+0002	 2.00786098141264E-0001	
 5.54500000000000E+0002	 2.00892344684015E-0001	
 5.56500000000000E+0002	 2.00765091226766E-0001	
 5.58500000000000E+0002	 2.00723837769517E-0001	
 5.60500000000000E+0002	 2.00299584312268E-0001	
 5.62500000000000E+0002	 1.99844330855019E-0001	
 5.64500000000000E+0002	 1.99228577397770E-0001	
 5.66500000000000E+0002	 1.98841823940520E-0001	
 5.68500000000000E+0002	 1.98366570483271E-0001	
 5.70500000000000E+0002	 1.98100817026022E-0001	
 5.72500000000000E+0002	 1.97789563568773E-0001	
 5.74500000000000E+0002	 1.97689310111524E-0001	
 5.76500000000000E+0002	 1.97462056654275E-0001	
 5.78500000000000E+0002	 1.97471303197026E-0001	
 5.80500000000000E+0002	 1.97331049739777E-0001	
 5.82500000000000E+0002	 1.97189796282528E-0001	
 5.84500000000000E+0002	 1.96912042825279E-0001	
 5.86500000000000E+0002	 1.96778289368030E-0001	
 5.88500000000000E+0002	 1.96581035910781E-0001	
 5.90500000000000E+0002	 1.96533282453532E-0001	
 5.92500000000000E+0002	 1.96484028996283E-0001	
 5.94500000000000E+0002	 1.96743275539033E-0001	
 5.96500000000000E+0002	 1.96969022081784E-0001	
 5.98500000000000E+0002	 1.97261768624535E-0001	
 6.00500000000000E+0002	 1.97401515167286E-0001	
 6.02500000000000E+0002	 1.97596261710037E-0001	
 6.04500000000000E+0002	 1.97564508252788E-0001	
 6.06500000000000E+0002	 1.97489754795539E-0001	
 6.08500000000000E+0002	 1.97217501338290E-0001	
 6.10500000000000E+0002	 1.96959247881041E-0001	
 6.12500000000000E+0002	 1.96608994423792E-0001	
 6.14500000000000E+0002	 1.96429740966543E-0001	
 6.16500000000000E+0002	 1.96108987509294E-0001	
 6.18500000000000E+0002	 1.95912734052045E-0001	
 6.20500000000000E+0002	 1.95573480594796E-0001	
 6.22500000000000E+0002	 1.95181227137546E-0001	
 6.24500000000000E+0002	 1.94592973680297E-0001	
 6.26500000000000E+0002	 1.94090220223048E-0001	
 6.28500000000000E+0002	 1.93503466765799E-0001	
 6.30500000000000E+0002	 1.93027213308550E-0001	
 6.32500000000000E+0002	 1.92389959851301E-0001	
 6.34500000000000E+0002	 1.91809206394052E-0001	
 6.36500000000000E+0002	 1.91150952936803E-0001	
 6.38500000000000E+0002	 1.90678199479554E-0001	
 6.40500000000000E+0002	 1.90112946022305E-0001	
 6.42500000000000E+0002	 1.89677692565056E-0001	
 6.44500000000000E+0002	 1.89113439107807E-0001	
 6.46500000000000E+0002	 1.88647185650558E-0001	
 6.48500000000000E+0002	 1.88083432193309E-0001	
 6.50500000000000E+0002	 1.87640678736059E-0001	
 6.52500000000000E+0002	 1.87108425278810E-0001	
 6.54500000000000E+0002	 1.86713671821561E-0001	
 6.56500000000000E+0002	 1.86294918364312E-0001	
 6.58500000000000E+0002	 1.86000164907063E-0001	
 6.60500000000000E+0002	 1.85572911449814E-0001	
 6.62500000000000E+0002	 1.85272657992565E-0001	
 6.64500000000000E+0002	 1.85265904535316E-0001	
 6.66500000000000E+0002	 1.86270651078067E-0001	
 6.68500000000000E+0002	 1.86029897620818E-0001	
 6.70500000000000E+0002	 1.83866144163569E-0001	
 6.72500000000000E+0002	 1.82716390706320E-0001	
 6.74500000000000E+0002	 1.81985137249071E-0001	
 6.76500000000000E+0002	 1.81276883791822E-0001	
 6.78500000000000E+0002	 1.80547630334572E-0001	
 6.80500000000000E+0002	 1.79788376877323E-0001	
 6.82500000000000E+0002	 1.79054623420074E-0001	
 6.84500000000000E+0002	 1.78401869962825E-0001	
 6.86500000000000E+0002	 1.77767116505576E-0001	
 6.88500000000000E+0002	 1.77205363048327E-0001	
 6.90500000000000E+0002	 1.76682609591078E-0001	
 6.92500000000000E+0002	 1.76290356133829E-0001	
 6.94500000000000E+0002	 1.75902602676580E-0001	
 6.96500000000000E+0002	 1.75636349219331E-0001	
 6.98500000000000E+0002	 1.75297595762082E-0001	
 7.00500000000000E+0002	 1.74957842304833E-0001	
 7.02500000000000E+0002	 1.74375588847584E-0001	
 7.04500000000000E+0002	 1.73783835390335E-0001	
 7.06500000000000E+0002	 1.73021081933086E-0001	
 7.08500000000000E+0002	 1.72409828475836E-0001	
 7.10500000000000E+0002	 1.71784575018587E-0001	
 7.12500000000000E+0002	 1.71256821561338E-0001	
 7.14500000000000E+0002	 1.70277568104089E-0001	
 7.16500000000000E+0002	 1.69219314646840E-0001	
 7.18500000000000E+0002	 1.67979061189591E-0001	
 7.20500000000000E+0002	 1.66914807732342E-0001	
 7.22500000000000E+0002	 1.65752554275093E-0001	
 7.24500000000000E+0002	 1.64535800817844E-0001	
 7.26500000000000E+0002	 1.62877547360595E-0001	
 7.28500000000000E+0002	 1.61228793903346E-0001	
 7.30500000000000E+0002	 1.59395040446097E-0001	
 7.32500000000000E+0002	 1.57840286988848E-0001	
 7.34500000000000E+0002	 1.56340033531599E-0001	
 7.36500000000000E+0002	 1.55201280074349E-0001	
 7.38500000000000E+0002	 1.54069526617100E-0001	
 7.40500000000000E+0002	 1.53205273159851E-0001	
 7.42500000000000E+0002	 1.52246519702602E-0001	
 7.44500000000000E+0002	 1.51481266245353E-0001	
 7.46500000000000E+0002	 1.50596512788104E-0001	
 7.48500000000000E+0002	 1.49910259330855E-0001	
 7.50500000000000E+0002	 1.49129505873606E-0001	
 7.52500000000000E+0002	 1.48583752416357E-0001	
 7.54500000000000E+0002	 1.48032498959108E-0001	
 7.56500000000000E+0002	 1.47760245501859E-0001	
 7.58500000000000E+0002	 1.47486492044610E-0001	
 7.60500000000000E+0002	 1.47529738587361E-0001	
 7.62500000000000E+0002	 1.47606485130112E-0001	
 7.64500000000000E+0002	 1.47683731672862E-0001	
 7.66500000000000E+0002	 1.47101978215613E-0001	
 7.68500000000000E+0002	 1.45934224758364E-0001	
 7.70500000000000E+0002	 1.44302971301115E-0001	
 7.72500000000000E+0002	 1.42948217843866E-0001	
 7.74500000000000E+0002	 1.42028964386617E-0001	
 7.76500000000000E+0002	 1.42050210929368E-0001	
 7.78500000000000E+0002	 1.42496957472119E-0001	
 7.80500000000000E+0002	 1.42484204014870E-0001	
 7.82500000000000E+0002	 1.41335450557621E-0001	
 7.84500000000000E+0002	 1.39923197100372E-0001	
 7.86500000000000E+0002	 1.38564943643123E-0001	
 7.88500000000000E+0002	 1.37356690185874E-0001	
 7.90500000000000E+0002	 1.36132436728625E-0001	
 7.92500000000000E+0002	 1.35408183271375E-0001	
 7.94500000000000E+0002	 1.35078929814126E-0001	
 7.96500000000000E+0002	 1.34771676356877E-0001	
 7.98500000000000E+0002	 1.33937422899628E-0001	
 8.00500000000000E+0002	 1.32898169442379E-0001	
 8.02500000000000E+0002	 1.31808915985130E-0001	
 8.04500000000000E+0002	 1.30953162527881E-0001	
 8.06500000000000E+0002	 1.30243909070632E-0001	
 8.08500000000000E+0002	 1.29721655613383E-0001	
 8.10500000000000E+0002	 1.29138902156134E-0001	
 8.12500000000000E+0002	 1.28462648698885E-0001	
 8.14500000000000E+0002	 1.27572895241636E-0001	
 8.16500000000000E+0002	 1.26606141784387E-0001	
 8.18500000000000E+0002	 1.25606888327138E-0001	
 8.20500000000000E+0002	 1.24731634869888E-0001	
 8.22500000000000E+0002	 1.24012381412639E-0001	
 8.24500000000000E+0002	 1.23412127955390E-0001	
 8.26500000000000E+0002	 1.22890874498141E-0001	
 8.28500000000000E+0002	 1.22441121040892E-0001	
 8.30500000000000E+0002	 1.22041867583643E-0001	
 8.32500000000000E+0002	 1.21651114126394E-0001	
 8.34500000000000E+0002	 1.21298360669145E-0001	
 8.36500000000000E+0002	 1.20851607211896E-0001	
 8.38500000000000E+0002	 1.20392353754647E-0001	
 8.40500000000000E+0002	 1.19840600297398E-0001	
 8.42500000000000E+0002	 1.19335846840149E-0001	
 8.44500000000000E+0002	 1.18802593382900E-0001	
 8.46500000000000E+0002	 1.18480339925651E-0001	
 8.48500000000000E+0002	 1.18211586468401E-0001	
 8.50500000000000E+0002	 1.18199833011152E-0001	
 8.52500000000000E+0002	 1.18331079553903E-0001	
 8.54500000000000E+0002	 1.18795326096654E-0001	
 8.56500000000000E+0002	 1.19221572639405E-0001	
 8.58500000000000E+0002	 1.19662319182156E-0001	
 8.60500000000000E+0002	 1.19718565724907E-0001	
 8.62500000000000E+0002	 1.19557812267658E-0001	
 8.64500000000000E+0002	 1.18917558810409E-0001	
 8.66500000000000E+0002	 1.18210805353160E-0001	
 8.68500000000000E+0002	 1.17625051895911E-0001	
 8.70500000000000E+0002	 1.18337798438662E-0001	
 8.72500000000000E+0002	 1.19288044981413E-0001	
 8.74500000000000E+0002	 1.18707791524164E-0001	
 8.76500000000000E+0002	 1.16923038066914E-0001	
 8.78500000000000E+0002	 1.15635284609665E-0001	
 8.80500000000000E+0002	 1.14685531152416E-0001	
 8.82500000000000E+0002	 1.14177777695167E-0001	
 8.84500000000000E+0002	 1.13652524237918E-0001	
 8.86500000000000E+0002	 1.13258270780669E-0001	
 8.88500000000000E+0002	 1.12717017323420E-0001	
 8.90500000000000E+0002	 1.12288763866171E-0001	
 8.92500000000000E+0002	 1.11734510408922E-0001	
 8.94500000000000E+0002	 1.11296756951673E-0001	
 8.96500000000000E+0002	 1.10744503494424E-0001	
 8.98500000000000E+0002	 1.10304250037175E-0001	
 9.00500000000000E+0002	 1.09855996579926E-0001	
 9.02500000000000E+0002	 1.09739743122677E-0001	
 9.04500000000000E+0002	 1.09959989665428E-0001	
 9.06500000000000E+0002	 1.10808236208178E-0001	
 9.08500000000000E+0002	 1.12090482750929E-0001	
 9.10500000000000E+0002	 1.13688729293680E-0001	
 9.12500000000000E+0002	 1.15141975836431E-0001	
 9.14500000000000E+0002	 1.16201722379182E-0001	
 9.16500000000000E+0002	 1.16514968921933E-0001	
 9.18500000000000E+0002	 1.16112215464684E-0001	
 9.20500000000000E+0002	 1.15062962007435E-0001	
 9.22500000000000E+0002	 1.13689208550186E-0001	
 9.24500000000000E+0002	 1.12199955092937E-0001	
 9.26500000000000E+0002	 1.10812701635688E-0001	
 9.28500000000000E+0002	 1.09595948178439E-0001	
 9.30500000000000E+0002	 1.08603194721190E-0001	
 9.32500000000000E+0002	 1.07851441263941E-0001	
 9.34500000000000E+0002	 1.07284687806691E-0001	
 9.36500000000000E+0002	 1.06904434349442E-0001	
 9.38500000000000E+0002	 1.06666180892193E-0001	
 9.40500000000000E+0002	 1.06610427434944E-0001	
 9.42500000000000E+0002	 1.06693173977695E-0001	
 9.44500000000000E+0002	 1.06988920520446E-0001	
 9.46500000000000E+0002	 1.07424667063197E-0001	
 9.48500000000000E+0002	 1.08102913605948E-0001	
 9.50500000000000E+0002	 1.08942160148699E-0001	
 9.52500000000000E+0002	 1.10130406691450E-0001	
 9.54500000000000E+0002	 1.11631653234201E-0001	
 9.56500000000000E+0002	 1.13589399776952E-0001	
 9.58500000000000E+0002	 1.15784646319703E-0001	
 9.60500000000000E+0002	 1.18227392862454E-0001	
 9.62500000000000E+0002	 1.20606639405204E-0001	
 9.64500000000000E+0002	 1.23000885947955E-0001	
 9.66500000000000E+0002	 1.25136132490706E-0001	
 9.68500000000000E+0002	 1.27109379033457E-0001	
 9.70500000000000E+0002	 1.28700625576208E-0001	
 9.72500000000000E+0002	 1.30181372118959E-0001	
 9.74500000000000E+0002	 1.31553618661710E-0001	
 9.76500000000000E+0002	 1.33381365204461E-0001	
 9.78500000000000E+0002	 1.35850611747212E-0001	
 9.80500000000000E+0002	 1.39456358289963E-0001	
 9.82500000000000E+0002	 1.43964604832714E-0001	
 9.84500000000000E+0002	 1.49274851375465E-0001	
 9.86500000000000E+0002	 1.54600097918216E-0001	
 9.88500000000000E+0002	 1.59587844460967E-0001	
 9.90500000000000E+0002	 1.63640091003717E-0001	
 9.92500000000000E+0002	 1.66947337546468E-0001	
 9.94500000000000E+0002	 1.69577584089219E-0001	
 9.96500000000000E+0002	 1.72271330631970E-0001	
 9.98500000000000E+0002	 1.75298077174721E-0001	
 1.00050000000000E+0003	 1.79136823717472E-0001	
 1.00250000000000E+0003	 1.83636070260223E-0001	
 1.00450000000000E+0003	 1.88839816802974E-0001	
 1.00650000000000E+0003	 1.94319063345725E-0001	
 1.00850000000000E+0003	 2.00015309888476E-0001	
 1.01050000000000E+0003	 2.05650056431227E-0001	
 1.01250000000000E+0003	 2.11297802973978E-0001	
 1.01450000000000E+0003	 2.16712549516729E-0001	
 1.01650000000000E+0003	 2.21820796059480E-0001	
 1.01850000000000E+0003	 2.26249542602230E-0001	
 1.02050000000000E+0003	 2.29879789144981E-0001	
 1.02250000000000E+0003	 2.32632535687732E-0001	
 1.02450000000000E+0003	 2.34845782230483E-0001	
 1.02650000000000E+0003	 2.36842028773234E-0001	
 1.02850000000000E+0003	 2.38913775315985E-0001	
 1.03050000000000E+0003	 2.41091521858736E-0001	
 1.03250000000000E+0003	 2.43302268401487E-0001	
 1.03450000000000E+0003	 2.45350514944238E-0001	
 1.03650000000000E+0003	 2.47042761486989E-0001	
 1.03850000000000E+0003	 2.48342008029740E-0001	
 1.04050000000000E+0003	 2.49343254572491E-0001	
 1.04250000000000E+0003	 2.50380501115242E-0001	
 1.04450000000000E+0003	 2.51777747657993E-0001	
 1.04650000000000E+0003	 2.53901494200743E-0001	
 1.04850000000000E+0003	 2.56747740743494E-0001	
 1.05050000000000E+0003	 2.60147487286245E-0001	
 1.05250000000000E+0003	 2.63390733828996E-0001	
 1.05450000000000E+0003	 2.65908980371747E-0001	
 1.05650000000000E+0003	 2.67277226914498E-0001	
 1.05850000000000E+0003	 2.67593973457249E-0001	
 1.06050000000000E+0003	 2.67011220000000E-0001	
 1.06250000000000E+0003	 2.66183966542751E-0001	
 1.06450000000000E+0003	 2.65778713085502E-0001	
 1.06650000000000E+0003	 2.66523459628253E-0001	
 1.06850000000000E+0003	 2.68445706171004E-0001	
 1.07050000000000E+0003	 2.71420952713755E-0001	
 1.07250000000000E+0003	 2.74850199256506E-0001	
 1.07450000000000E+0003	 2.78362445799257E-0001	
 1.07650000000000E+0003	 2.81344692342007E-0001	
 1.07850000000000E+0003	 2.83528438884758E-0001	
 1.08050000000000E+0003	 2.84515685427509E-0001	
 1.08250000000000E+0003	 2.84191931970260E-0001	
 1.08450000000000E+0003	 2.82124178513011E-0001	
 1.08650000000000E+0003	 2.78185425055762E-0001	
 1.08850000000000E+0003	 2.72335671598513E-0001	
 1.09050000000000E+0003	 2.65435418141264E-0001	
 1.09250000000000E+0003	 2.58649164684015E-0001	
 1.09450000000000E+0003	 2.53206411226766E-0001	
 1.09650000000000E+0003	 2.49300657769517E-0001	
 1.09850000000000E+0003	 2.46588904312268E-0001	
 1.10050000000000E+0003	 2.44262650855019E-0001	
 1.10250000000000E+0003	 2.41897897397770E-0001	
 1.10450000000000E+0003	 2.39249143940520E-0001	
 1.10650000000000E+0003	 2.36509890483271E-0001	
 1.10850000000000E+0003	 2.33880637026022E-0001	
 1.11050000000000E+0003	 2.31665383568773E-0001	
 1.11250000000000E+0003	 2.29798630111524E-0001	
 1.11450000000000E+0003	 2.28069876654275E-0001	
 1.11650000000000E+0003	 2.26135623197026E-0001	
 1.11850000000000E+0003	 2.23853369739777E-0001	
 1.12050000000000E+0003	 2.21143116282528E-0001	
 1.12250000000000E+0003	 2.17998862825279E-0001	
 1.12450000000000E+0003	 2.14482609368030E-0001	
 1.12650000000000E+0003	 2.10686355910781E-0001	
 1.12850000000000E+0003	 2.06782102453532E-0001	
 1.13050000000000E+0003	 2.02854348996283E-0001	
 1.13250000000000E+0003	 1.99099595539033E-0001	
 1.13450000000000E+0003	 1.95568842081784E-0001	
 1.13650000000000E+0003	 1.92425588624535E-0001	
 1.13850000000000E+0003	 1.89736335167286E-0001	
 1.14050000000000E+0003	 1.87769081710037E-0001	
 1.14250000000000E+0003	 1.86467828252788E-0001	
 1.14450000000000E+0003	 1.85842574795539E-0001	
 1.14650000000000E+0003	 1.85474821338290E-0001	
 1.14850000000000E+0003	 1.85099067881041E-0001	
 1.15050000000000E+0003	 1.84207314423792E-0001	
 1.15250000000000E+0003	 1.82751560966543E-0001	
 1.15450000000000E+0003	 1.80606807509294E-0001	
 1.15650000000000E+0003	 1.78142554052045E-0001	
 1.15850000000000E+0003	 1.75400300594796E-0001	
 1.16050000000000E+0003	 1.72605547137546E-0001	
 1.16250000000000E+0003	 1.69519793680297E-0001	
 1.16450000000000E+0003	 1.66218040223048E-0001	
 1.16650000000000E+0003	 1.62582786765799E-0001	
 1.16850000000000E+0003	 1.58957533308550E-0001	
 1.17050000000000E+0003	 1.55361779851301E-0001	
 1.17250000000000E+0003	 1.51990026394052E-0001	
 1.17450000000000E+0003	 1.48621772936803E-0001	
 1.17650000000000E+0003	 1.45402519479554E-0001	
 1.17850000000000E+0003	 1.42275266022305E-0001	
 1.18050000000000E+0003	 1.39521012565056E-0001	
 1.18250000000000E+0003	 1.37184759107807E-0001	
 1.18450000000000E+0003	 1.35502505650558E-0001	
 1.18650000000000E+0003	 1.34390752193309E-0001	
 1.18850000000000E+0003	 1.33993498736059E-0001	
 1.19050000000000E+0003	 1.34207245278810E-0001	
 1.19250000000000E+0003	 1.35082991821561E-0001	
 1.19450000000000E+0003	 1.36471238364312E-0001	
 1.19650000000000E+0003	 1.38382484907063E-0001	
 1.19850000000000E+0003	 1.40622731449814E-0001	
 1.20050000000000E+0003	 1.43123977992565E-0001	
 1.20250000000000E+0003	 1.45683224535316E-0001	
 1.20450000000000E+0003	 1.48240971078067E-0001	
 1.20650000000000E+0003	 1.50664217620818E-0001	
 1.20850000000000E+0003	 1.52934464163569E-0001	
 1.21050000000000E+0003	 1.55075710706320E-0001	
 1.21250000000000E+0003	 1.57275457249071E-0001	
 1.21450000000000E+0003	 1.59604203791822E-0001	
 1.21650000000000E+0003	 1.61980950334572E-0001	
 1.21850000000000E+0003	 1.64158696877323E-0001	
 1.22050000000000E+0003	 1.66026443420074E-0001	
 1.22250000000000E+0003	 1.67697189962825E-0001	
 1.22450000000000E+0003	 1.69267936505576E-0001	
 1.22650000000000E+0003	 1.70832683048327E-0001	
 1.22850000000000E+0003	 1.72403429591078E-0001	
 1.23050000000000E+0003	 1.73965676133829E-0001	
 1.23250000000000E+0003	 1.75365922676580E-0001	
 1.23450000000000E+0003	 1.76576169219331E-0001	
 1.23650000000000E+0003	 1.77452415762082E-0001	
 1.23850000000000E+0003	 1.78038162304833E-0001	
 1.24050000000000E+0003	 1.78252408847584E-0001	
 1.24250000000000E+0003	 1.78178155390335E-0001	
 1.24450000000000E+0003	 1.77689401933086E-0001	
 1.24650000000000E+0003	 1.76877148475836E-0001	
 1.24850000000000E+0003	 1.75641895018587E-0001	
 1.25050000000000E+0003	 1.74144641561338E-0001	
 1.25250000000000E+0003	 1.72317388104089E-0001	
 1.25450000000000E+0003	 1.70383634646840E-0001	
 1.25650000000000E+0003	 1.68307881189591E-0001	
 1.25850000000000E+0003	 1.66304127732342E-0001	
 1.26050000000000E+0003	 1.64242374275093E-0001	
 1.26250000000000E+0003	 1.62299120817844E-0001	
 1.26450000000000E+0003	 1.60381867360595E-0001	
 1.26650000000000E+0003	 1.58667613903346E-0001	
 1.26850000000000E+0003	 1.57037860446097E-0001	
 1.27050000000000E+0003	 1.55669606988848E-0001	
 1.27250000000000E+0003	 1.54420853531599E-0001	
 1.27450000000000E+0003	 1.53448600074349E-0001	
 1.27650000000000E+0003	 1.52610346617100E-0001	
 1.27850000000000E+0003	 1.52022093159851E-0001	
 1.28050000000000E+0003	 1.51511839702602E-0001	
 1.28250000000000E+0003	 1.51035586245353E-0001	
 1.28450000000000E+0003	 1.50415832788104E-0001	
 1.28650000000000E+0003	 1.49822079330855E-0001	
 1.28850000000000E+0003	 1.49282825873606E-0001	
 1.29050000000000E+0003	 1.48971072416357E-0001	
 1.29250000000000E+0003	 1.48820818959108E-0001	
 1.29450000000000E+0003	 1.48803565501859E-0001	
 1.29650000000000E+0003	 1.48891312044610E-0001	
 1.29850000000000E+0003	 1.49153058587361E-0001	
 1.30050000000000E+0003	 1.49564805130112E-0001	
 1.30250000000000E+0003	 1.50015551672862E-0001	
 1.30450000000000E+0003	 1.50454798215613E-0001	
 1.30650000000000E+0003	 1.50842044758364E-0001	
 1.30850000000000E+0003	 1.51250791301115E-0001	
 1.31050000000000E+0003	 1.51629537843866E-0001	
 1.31250000000000E+0003	 1.51977784386617E-0001	
 1.31450000000000E+0003	 1.52165030929368E-0001	
 1.31650000000000E+0003	 1.52267777472119E-0001	
 1.31850000000000E+0003	 1.52140524014870E-0001	
 1.32050000000000E+0003	 1.51841770557621E-0001	
 1.32250000000000E+0003	 1.51402017100372E-0001	
 1.32450000000000E+0003	 1.51040763643123E-0001	
 1.32650000000000E+0003	 1.50693010185874E-0001	
 1.32850000000000E+0003	 1.50588256728625E-0001	
 1.33050000000000E+0003	 1.50651003271375E-0001	
 1.33250000000000E+0003	 1.50992249814126E-0001	
 1.33450000000000E+0003	 1.51317996356877E-0001	
 1.33650000000000E+0003	 1.51567242899628E-0001	
 1.33850000000000E+0003	 1.51498989442379E-0001	
 1.34050000000000E+0003	 1.51346235985130E-0001	
 1.34250000000000E+0003	 1.51185982527881E-0001	
 1.34450000000000E+0003	 1.51099729070632E-0001	
 1.34650000000000E+0003	 1.50768475613383E-0001	
 1.34850000000000E+0003	 1.50525722156134E-0001	
 1.35050000000000E+0003	 1.50423468698885E-0001	
 1.35250000000000E+0003	 1.50607715241636E-0001	
 1.35450000000000E+0003	 1.50910961784387E-0001	
 1.35650000000000E+0003	 1.51352708327138E-0001	
 1.35850000000000E+0003	 1.51822954869888E-0001	
 1.36050000000000E+0003	 1.52442701412639E-0001	
 1.36250000000000E+0003	 1.53338447955390E-0001	
 1.36450000000000E+0003	 1.54938194498141E-0001	
 1.36650000000000E+0003	 1.57172441040892E-0001	
 1.36850000000000E+0003	 1.59670187583643E-0001	
 1.37050000000000E+0003	 1.61729434126394E-0001	
 1.37250000000000E+0003	 1.63513180669145E-0001	
 1.37450000000000E+0003	 1.65210927211896E-0001	
 1.37650000000000E+0003	 1.66574673754647E-0001	
 1.37850000000000E+0003	 1.67649920297398E-0001	
 1.38050000000000E+0003	 1.68521666840149E-0001	
 1.38250000000000E+0003	 1.69282413382900E-0001	
 1.38450000000000E+0003	 1.69847159925651E-0001	
 1.38650000000000E+0003	 1.69917906468401E-0001	
 1.38850000000000E+0003	 1.70230653011152E-0001	
 1.39050000000000E+0003	 1.71288899553903E-0001	
 1.39250000000000E+0003	 1.72476146096654E-0001	
 1.39450000000000E+0003	 1.73639892639405E-0001	
 1.39650000000000E+0003	 1.74844639182156E-0001	
 1.39850000000000E+0003	 1.76029885724907E-0001	
 1.40050000000000E+0003	 1.77069632267658E-0001	
 1.40250000000000E+0003	 1.77455378810409E-0001	
 1.40450000000000E+0003	 1.77458125353160E-0001	
 1.40650000000000E+0003	 1.76868871895911E-0001	
 1.40850000000000E+0003	 1.76162618438662E-0001	
 1.41050000000000E+0003	 1.75519364981413E-0001	
 1.41250000000000E+0003	 1.74738111524164E-0001	
 1.41450000000000E+0003	 1.74069358066914E-0001	
 1.41650000000000E+0003	 1.72988104609665E-0001	
 1.41850000000000E+0003	 1.71250351152416E-0001	
 1.42050000000000E+0003	 1.69955597695167E-0001	
 1.42250000000000E+0003	 1.69769344237918E-0001	
 1.42450000000000E+0003	 1.69460590780669E-0001	
 1.42650000000000E+0003	 1.68330837323420E-0001	
 1.42850000000000E+0003	 1.67349583866171E-0001	
 1.43050000000000E+0003	 1.66728830408922E-0001	
 1.43250000000000E+0003	 1.66336076951673E-0001	
 1.43450000000000E+0003	 1.66021323494424E-0001	
 1.43650000000000E+0003	 1.66049070037175E-0001	
 1.43850000000000E+0003	 1.67028816579926E-0001	
 1.44050000000000E+0003	 1.68695563122677E-0001	
 1.44250000000000E+0003	 1.70403309665428E-0001	
 1.44450000000000E+0003	 1.71373556208178E-0001	
 1.44650000000000E+0003	 1.72173802750929E-0001	
 1.44850000000000E+0003	 1.73018049293680E-0001	
 1.45050000000000E+0003	 1.73780295836431E-0001	
 1.45250000000000E+0003	 1.74566042379182E-0001	
 1.45450000000000E+0003	 1.74013788921933E-0001	
 1.45650000000000E+0003	 1.71988035464684E-0001	
 1.45850000000000E+0003	 1.70335782007435E-0001	
 1.46050000000000E+0003	 1.69777528550186E-0001	
 1.46250000000000E+0003	 1.68989275092937E-0001	
 1.46450000000000E+0003	 1.67162021635688E-0001	
 1.46650000000000E+0003	 1.64856268178439E-0001	
 1.46850000000000E+0003	 1.62597014721190E-0001	
 1.47050000000000E+0003	 1.59607761263941E-0001	
 1.47250000000000E+0003	 1.55385507806691E-0001	
 1.47450000000000E+0003	 1.51240754349442E-0001	
 1.47650000000000E+0003	 1.48934500892193E-0001	
 1.47850000000000E+0003	 1.47523247434944E-0001	
 1.48050000000000E+0003	 1.46396993977695E-0001	
 1.48250000000000E+0003	 1.45571740520446E-0001	
 1.48450000000000E+0003	 1.44843487063197E-0001	
 1.48650000000000E+0003	 1.44575733605948E-0001	
 1.48850000000000E+0003	 1.44505980148699E-0001	
 1.49050000000000E+0003	 1.44870726691450E-0001	
 1.49250000000000E+0003	 1.45853473234201E-0001	
 1.49450000000000E+0003	 1.46789219776952E-0001	
 1.49650000000000E+0003	 1.48220466319703E-0001	
 1.49850000000000E+0003	 1.50209212862454E-0001	
 1.50050000000000E+0003	 1.52729459405204E-0001	
 1.50250000000000E+0003	 1.55039705947955E-0001	
 1.50450000000000E+0003	 1.56356452490706E-0001	
 1.50650000000000E+0003	 1.59364699033457E-0001	
 1.50850000000000E+0003	 1.63763945576208E-0001	
 1.51050000000000E+0003	 1.68798192118959E-0001	
 1.51250000000000E+0003	 1.75044438661710E-0001	
 1.51450000000000E+0003	 1.80522685204461E-0001	
 1.51650000000000E+0003	 1.85532931747212E-0001	
 1.51850000000000E+0003	 1.88850678289963E-0001	
 1.52050000000000E+0003	 1.91020924832714E-0001	
 1.52250000000000E+0003	 1.95514671375465E-0001	
 1.52450000000000E+0003	 2.00375917918216E-0001	
 1.52650000000000E+0003	 2.05992164460967E-0001	
 1.52850000000000E+0003	 2.11610411003717E-0001	
 1.53050000000000E+0003	 2.16337157546468E-0001	
 1.53250000000000E+0003	 2.20903904089219E-0001	
 1.53450000000000E+0003	 2.26073650631970E-0001	
 1.53650000000000E+0003	 2.29379397174721E-0001	
 1.53850000000000E+0003	 2.32003643717472E-0001	
 1.54050000000000E+0003	 2.36114390260223E-0001	
 1.54250000000000E+0003	 2.39744636802974E-0001	
 1.54450000000000E+0003	 2.43436883345725E-0001	
 1.54650000000000E+0003	 2.46192129888476E-0001	
 1.54850000000000E+0003	 2.47081376431227E-0001	
 1.55050000000000E+0003	 2.46140622973978E-0001	
 1.55250000000000E+0003	 2.42914369516729E-0001	
 1.55450000000000E+0003	 2.38620616059480E-0001	
 1.55650000000000E+0003	 2.33290862602230E-0001	
 1.55850000000000E+0003	 2.27195109144981E-0001	
 1.56050000000000E+0003	 2.20760855687732E-0001	
 1.56250000000000E+0003	 2.17716102230483E-0001	
 1.56450000000000E+0003	 2.16518848773234E-0001	
 1.56650000000000E+0003	 2.13421595315985E-0001	
 1.56850000000000E+0003	 2.09534341858736E-0001	
 1.57050000000000E+0003	 2.06008588401487E-0001	
 1.57250000000000E+0003	 2.02632334944238E-0001	
 1.57450000000000E+0003	 1.99190081486989E-0001	
 1.57650000000000E+0003	 1.95559328029740E-0001	
 1.57850000000000E+0003	 1.92963574572491E-0001	
 1.58050000000000E+0003	 1.91762821115242E-0001	
 1.58250000000000E+0003	 1.90576067657993E-0001	
 1.58450000000000E+0003	 1.89199314200743E-0001	
 1.58650000000000E+0003	 1.88439060743494E-0001	
 1.58850000000000E+0003	 1.88398807286245E-0001	
 1.59050000000000E+0003	 1.89106553828996E-0001	
 1.59250000000000E+0003	 1.90512300371747E-0001	
 1.59450000000000E+0003	 1.92583546914498E-0001	
 1.59650000000000E+0003	 1.95147793457249E-0001	
 1.59850000000000E+0003	 1.98113040000000E-0001	
 1.60050000000000E+0003	 2.01614786542751E-0001	
 1.60250000000000E+0003	 2.05615033085502E-0001	
 1.60450000000000E+0003	 2.10034779628253E-0001	
 1.60650000000000E+0003	 2.14919526171004E-0001	
 1.60850000000000E+0003	 2.20552272713755E-0001	
 1.61050000000000E+0003	 2.26847019256506E-0001	
 1.61250000000000E+0003	 2.33644765799257E-0001	
 1.61450000000000E+0003	 2.39938012342007E-0001	
 1.61650000000000E+0003	 2.47761758884758E-0001	
 1.61850000000000E+0003	 2.57698005427509E-0001	
 1.62050000000000E+0003	 2.67000751970260E-0001	
 1.62250000000000E+0003	 2.77582998513011E-0001	
 1.62450000000000E+0003	 2.89219745055762E-0001	
 1.62650000000000E+0003	 3.00100491598513E-0001	
 1.62850000000000E+0003	 3.12055738141264E-0001	
 1.63050000000000E+0003	 3.23663484684015E-0001	
 1.63250000000000E+0003	 3.33390231226766E-0001	
 1.63450000000000E+0003	 3.42432977769517E-0001	
 1.63650000000000E+0003	 3.52515724312268E-0001	
 1.63850000000000E+0003	 3.60014970855019E-0001	
 1.64050000000000E+0003	 3.66033217397770E-0001	
 1.64250000000000E+0003	 3.70906463940520E-0001	
 1.64450000000000E+0003	 3.73761710483271E-0001	
 1.64650000000000E+0003	 3.77341457026022E-0001	
 1.64850000000000E+0003	 3.81254703568773E-0001	
 1.65050000000000E+0003	 3.82348950111524E-0001	
 1.65250000000000E+0003	 3.82615696654275E-0001	
 1.65450000000000E+0003	 3.84443443197026E-0001	
 1.65650000000000E+0003	 3.84509189739777E-0001	
 1.65850000000000E+0003	 3.83619936282528E-0001	
 1.66050000000000E+0003	 3.79034182825279E-0001	
 1.66250000000000E+0003	 3.71781929368030E-0001	
 1.66450000000000E+0003	 3.63188175910781E-0001	
 1.66650000000000E+0003	 3.54985422453532E-0001	
 1.66850000000000E+0003	 3.46463168996283E-0001	
 1.67050000000000E+0003	 3.36994915539033E-0001	
 1.67250000000000E+0003	 3.28057162081784E-0001	
 1.67450000000000E+0003	 3.19733408624535E-0001	
 1.67650000000000E+0003	 3.11125655167286E-0001	
 1.67850000000000E+0003	 3.03343401710037E-0001	
 1.68050000000000E+0003	 2.96222148252788E-0001	
 1.68250000000000E+0003	 2.87765394795539E-0001	
 1.68450000000000E+0003	 2.77398141338290E-0001	
 1.68650000000000E+0003	 2.68212887881041E-0001	
 1.68850000000000E+0003	 2.62202134423792E-0001	
 1.69050000000000E+0003	 2.55586880966543E-0001	
 1.69250000000000E+0003	 2.47673127509294E-0001	
 1.69450000000000E+0003	 2.38789374052045E-0001	
 1.69650000000000E+0003	 2.29521620594796E-0001	
 1.69850000000000E+0003	 2.21231367137546E-0001	
 1.70050000000000E+0003	 2.14607613680297E-0001	
 1.70250000000000E+0003	 2.09011860223048E-0001	
 1.70450000000000E+0003	 2.05236606765799E-0001	
 1.70650000000000E+0003	 2.01928353308550E-0001	
 1.70850000000000E+0003	 1.97552099851301E-0001	
 1.71050000000000E+0003	 1.93686346394052E-0001	
 1.71250000000000E+0003	 1.89493092936803E-0001	
 1.71450000000000E+0003	 1.84433339479554E-0001	
 1.71650000000000E+0003	 1.77838086022305E-0001	
 1.71850000000000E+0003	 1.71530832565056E-0001	
 1.72050000000000E+0003	 1.66955579107807E-0001	
 1.72250000000000E+0003	 1.63190325650558E-0001	
 1.72450000000000E+0003	 1.59074572193309E-0001	
 1.72650000000000E+0003	 1.54902818736059E-0001	
 1.72850000000000E+0003	 1.51293065278810E-0001	
 1.73050000000000E+0003	 1.47990811821561E-0001	
 1.73250000000000E+0003	 1.43673558364312E-0001	
 1.73450000000000E+0003	 1.40570304907063E-0001	
 1.73650000000000E+0003	 1.39176051449814E-0001	
 1.73850000000000E+0003	 1.38727297992565E-0001	
 1.74050000000000E+0003	 1.38408044535316E-0001	
 1.74250000000000E+0003	 1.37003791078067E-0001	
 1.74450000000000E+0003	 1.35697537620818E-0001	
 1.74650000000000E+0003	 1.34307284163569E-0001	
 1.74850000000000E+0003	 1.32401530706320E-0001	
 1.75050000000000E+0003	 1.29597277249071E-0001	
 1.75250000000000E+0003	 1.27030523791822E-0001	
 1.75450000000000E+0003	 1.25266270334572E-0001	
 1.75650000000000E+0003	 1.23632016877323E-0001	
 1.75850000000000E+0003	 1.21525763420074E-0001	
 1.76050000000000E+0003	 1.19047009962825E-0001	
 1.76250000000000E+0003	 1.17328256505576E-0001	
 1.76450000000000E+0003	 1.15596503048327E-0001	
 1.76650000000000E+0003	 1.14047749591078E-0001	
 1.76850000000000E+0003	 1.12612996133829E-0001	
 1.77050000000000E+0003	 1.10787242676580E-0001	
 1.77250000000000E+0003	 1.09448489219331E-0001	
 1.77450000000000E+0003	 1.08484735762082E-0001	
 1.77650000000000E+0003	 1.07952982304833E-0001	
 1.77850000000000E+0003	 1.07742728847584E-0001	
 1.78050000000000E+0003	 1.07144475390335E-0001	
 1.78250000000000E+0003	 1.06266221933086E-0001	
 1.78450000000000E+0003	 1.05312468475836E-0001	
 1.78650000000000E+0003	 1.04806715018587E-0001	
 1.78850000000000E+0003	 1.04219961561338E-0001	
 1.79050000000000E+0003	 1.03407708104089E-0001	
 1.79250000000000E+0003	 1.02604454646840E-0001	
 1.79450000000000E+0003	 1.01933701189591E-0001	
 1.79650000000000E+0003	 1.01564447732342E-0001	
 1.79850000000000E+0003	 1.01412694275093E-0001	
 1.80050000000000E+0003	 1.00930940817844E-0001	
 1.80250000000000E+0003	 1.00145687360595E-0001	
 1.80450000000000E+0003	 9.96209339033457E-0002	
 1.80650000000000E+0003	 9.94116804460967E-0002	
 1.80850000000000E+0003	 9.90914269888476E-0002	
 1.81050000000000E+0003	 9.86676735315985E-0002	
 1.81250000000000E+0003	 9.82179200743494E-0002	
 1.81450000000000E+0003	 9.76956666171004E-0002	
 1.81650000000000E+0003	 9.74459131598513E-0002	
 1.81850000000000E+0003	 9.71011597026022E-0002	
 1.82050000000000E+0003	 9.67859062453532E-0002	
 1.82250000000000E+0003	 9.63781527881041E-0002	
 1.82450000000000E+0003	 9.59698993308550E-0002	
 1.82650000000000E+0003	 9.55551458736059E-0002	
 1.82850000000000E+0003	 9.49628924163569E-0002	
 1.83050000000000E+0003	 9.49546389591078E-0002	
 1.83250000000000E+0003	 9.45388855018587E-0002	
 1.83450000000000E+0003	 9.42901320446097E-0002	
 1.83650000000000E+0003	 9.43838785873606E-0002	
 1.83850000000000E+0003	 9.41516251301115E-0002	
 1.84050000000000E+0003	 9.38338716728625E-0002	
 1.84250000000000E+0003	 9.30326182156134E-0002	
 1.84450000000000E+0003	 9.26678647583643E-0002	
 1.84650000000000E+0003	 9.23941113011152E-0002	
 1.84850000000000E+0003	 9.23668578438662E-0002	
 1.85050000000000E+0003	 9.26276043866171E-0002	
 1.85250000000000E+0003	 9.25883509293680E-0002	
 1.85450000000000E+0003	 9.24845974721190E-0002	
 1.85650000000000E+0003	 9.23068440148699E-0002	
 1.85850000000000E+0003	 9.21070905576208E-0002	
 1.86050000000000E+0003	 9.19238371003717E-0002	
 1.86250000000000E+0003	 9.17505836431227E-0002	
 1.86450000000000E+0003	 9.16298301858736E-0002	
 1.86650000000000E+0003	 9.13835767286245E-0002	
 1.86850000000000E+0003	 9.10863232713755E-0002	
 1.87050000000000E+0003	 9.08000698141264E-0002	
 1.87250000000000E+0003	 9.05818163568773E-0002	
 1.87450000000000E+0003	 9.07915628996283E-0002	
 1.87650000000000E+0003	 9.08728094423792E-0002	
 1.87850000000000E+0003	 9.07605559851301E-0002	
 1.88050000000000E+0003	 9.06388025278810E-0002	
 1.88250000000000E+0003	 9.05435490706320E-0002	
 1.88450000000000E+0003	 9.04597956133829E-0002	
 1.88650000000000E+0003	 9.03210421561338E-0002	
 1.88850000000000E+0003	 9.01157886988848E-0002	
 1.89050000000000E+0003	 9.00930352416357E-0002	
 1.89250000000000E+0003	 8.98487817843866E-0002	
 1.89450000000000E+0003	 8.98575283271375E-0002	
 1.89650000000000E+0003	 8.98797748698885E-0002	
 1.89850000000000E+0003	 8.97590214126394E-0002	
 1.90050000000000E+0003	 8.97277679553903E-0002	
 1.90250000000000E+0003	 8.97230144981413E-0002	
 1.90450000000000E+0003	 8.96442610408922E-0002	
 1.90650000000000E+0003	 8.95905075836431E-0002	
 1.90850000000000E+0003	 8.94842541263941E-0002	
 1.91050000000000E+0003	 8.94490006691450E-0002	
 1.91250000000000E+0003	 8.93402472118959E-0002	
 1.91450000000000E+0003	 8.93474937546468E-0002	
 1.91650000000000E+0003	 8.91347402973978E-0002	
 1.91850000000000E+0003	 8.91489868401487E-0002	
 1.92050000000000E+0003	 8.89817333828996E-0002	
 1.92250000000000E+0003	 8.89839799256506E-0002	
 1.92450000000000E+0003	 8.91082264684015E-0002	
 1.92650000000000E+0003	 8.90724730111524E-0002	
 1.92850000000000E+0003	 8.91707195539033E-0002	
 1.93050000000000E+0003	 8.92314660966543E-0002	
 1.93250000000000E+0003	 8.91937126394052E-0002	
 1.93450000000000E+0003	 8.91989591821561E-0002	
 1.93650000000000E+0003	 8.91667057249071E-0002	
 1.93850000000000E+0003	 8.92049522676580E-0002	
 1.94050000000000E+0003	 8.91171988104089E-0002	
 1.94250000000000E+0003	 8.91309453531599E-0002	
 1.94450000000000E+0003	 8.90526918959108E-0002	
 1.94650000000000E+0003	 8.90209384386617E-0002	
 1.94850000000000E+0003	 8.91621849814126E-0002	
 1.95050000000000E+0003	 8.92289315241636E-0002	
 1.95250000000000E+0003	 8.92686780669145E-0002	
 1.95450000000000E+0003	 8.92964246096654E-0002	
 1.95650000000000E+0003	 8.93146711524164E-0002	
 1.95850000000000E+0003	 8.93299176951673E-0002	
 1.96050000000000E+0003	 8.93626642379182E-0002	
 1.96250000000000E+0003	 8.94019107806691E-0002	
 1.96450000000000E+0003	 8.94091573234201E-0002	
 1.96650000000000E+0003	 8.94094038661710E-0002	
 1.96850000000000E+0003	 8.94166504089219E-0002	
 1.97050000000000E+0003	 8.93923969516729E-0002	
 1.97250000000000E+0003	 8.95051434944238E-0002	
 1.97450000000000E+0003	 8.95818900371747E-0002	
 1.97650000000000E+0003	 8.96236365799257E-0002	
 1.97850000000000E+0003	 8.96433831226766E-0002	
 1.98050000000000E+0003	 8.96926296654275E-0002	
 1.98250000000000E+0003	 8.97168762081784E-0002	
 1.98450000000000E+0003	 8.97716227509294E-0002	
 1.98650000000000E+0003	 8.97798692936803E-0002	
 1.98850000000000E+0003	 8.98281158364312E-0002	
 1.99050000000000E+0003	 8.97773623791822E-0002	
 1.99250000000000E+0003	 8.98356089219331E-0002	
 1.99450000000000E+0003	 8.98338554646840E-0002	
 1.99650000000000E+0003	 8.99301020074349E-0002	
 1.99850000000000E+0003	 9.00783485501859E-0002	
 2.00050000000000E+0003	 9.01610950929368E-0002	
 2.00250000000000E+0003	 9.01943416356877E-0002	
 2.00450000000000E+0003	 9.02770881784387E-0002	
 2.00650000000000E+0003	 9.03248347211896E-0002	
 2.00850000000000E+0003	 9.04060812639405E-0002	
 2.01050000000000E+0003	 9.04548278066914E-0002	
 2.01250000000000E+0003	 9.05485743494424E-0002	
 2.01450000000000E+0003	 9.05978208921933E-0002	
 2.01650000000000E+0003	 9.06695674349442E-0002	
 2.01850000000000E+0003	 9.07078139776952E-0002	
 2.02050000000000E+0003	 9.07740605204461E-0002	
 2.02250000000000E+0003	 9.08968070631970E-0002	
 2.02450000000000E+0003	 9.10280536059480E-0002	
 2.02650000000000E+0003	 9.11098001486989E-0002	
 2.02850000000000E+0003	 9.12055466914498E-0002	
 2.03050000000000E+0003	 9.12827932342007E-0002	
 2.03250000000000E+0003	 9.13725397769517E-0002	
 2.03450000000000E+0003	 9.14452863197026E-0002	
 2.03650000000000E+0003	 9.15240328624535E-0002	
 2.03850000000000E+0003	 9.15967794052045E-0002	
 2.04050000000000E+0003	 9.16575259479554E-0002	
 2.04250000000000E+0003	 9.17182724907063E-0002	
 2.04450000000000E+0003	 9.17700190334572E-0002	
 2.04650000000000E+0003	 9.18542655762082E-0002	
 2.04850000000000E+0003	 9.19215121189591E-0002	
 2.05050000000000E+0003	 9.19912586617100E-0002	
 2.05250000000000E+0003	 9.20395052044610E-0002	
 2.05450000000000E+0003	 9.21032517472119E-0002	
 2.05650000000000E+0003	 9.21444982899628E-0002	
 2.05850000000000E+0003	 9.22022448327138E-0002	
 2.06050000000000E+0003	 9.22314913754647E-0002	
 2.06250000000000E+0003	 9.22792379182156E-0002	
 2.06450000000000E+0003	 9.22879844609665E-0002	
 2.06650000000000E+0003	 9.23342310037175E-0002	
 2.06850000000000E+0003	 9.23464775464684E-0002	
 2.07050000000000E+0003	 9.24347240892193E-0002	
 2.07250000000000E+0003	 9.24724706319703E-0002	
 2.07450000000000E+0003	 9.25272171747212E-0002	
 2.07650000000000E+0003	 9.25374637174721E-0002	
 2.07850000000000E+0003	 9.25837102602230E-0002	
 2.08050000000000E+0003	 9.25964568029740E-0002	
 2.08250000000000E+0003	 9.26437033457249E-0002	
 2.08450000000000E+0003	 9.26559498884758E-0002	
 2.08650000000000E+0003	 9.27016964312268E-0002	
 2.08850000000000E+0003	 9.27074429739777E-0002	
 2.09050000000000E+0003	 9.27376895167286E-0002	
 2.09250000000000E+0003	 9.27359360594796E-0002	
 2.09450000000000E+0003	 9.27741826022305E-0002	
 2.09650000000000E+0003	 9.27954291449814E-0002	
 2.09850000000000E+0003	 9.28291756877323E-0002	
 2.10050000000000E+0003	 9.28329222304833E-0002	
 2.10250000000000E+0003	 9.28501687732342E-0002	
 2.10450000000000E+0003	 9.28494153159851E-0002	
 2.10650000000000E+0003	 9.28656618587361E-0002	
 2.10850000000000E+0003	 9.28614084014870E-0002	
 2.11050000000000E+0003	 9.28686549442379E-0002	
 2.11250000000000E+0003	 9.28659014869888E-0002	
 2.11450000000000E+0003	 9.28636480297398E-0002	
 2.11650000000000E+0003	 9.28528945724907E-0002	
 2.11850000000000E+0003	 9.28456411152416E-0002	
 2.12050000000000E+0003	 9.28443876579926E-0002	
 2.12250000000000E+0003	 9.28366342007435E-0002	
 2.12450000000000E+0003	 9.28293807434944E-0002	
 2.12650000000000E+0003	 9.28141272862454E-0002	
 2.12850000000000E+0003	 9.28068738289963E-0002	
 2.13050000000000E+0003	 9.27871203717472E-0002	
 2.13250000000000E+0003	 9.27753669144981E-0002	
 2.13450000000000E+0003	 9.27436134572491E-0002	
 2.13650000000000E+0003	 9.27253600000000E-0002	
 2.13850000000000E+0003	 9.26856065427509E-0002	
 2.14050000000000E+0003	 9.26683530855019E-0002	
 2.14250000000000E+0003	 9.26340996282528E-0002	
 2.14450000000000E+0003	 9.26168461710037E-0002	
 2.14650000000000E+0003	 9.25725927137546E-0002	
 2.14850000000000E+0003	 9.25488392565056E-0002	
 2.15050000000000E+0003	 9.24960857992565E-0002	
 2.15250000000000E+0003	 9.24658323420074E-0002	
 2.15450000000000E+0003	 9.24110788847584E-0002	
 2.15650000000000E+0003	 9.23813254275093E-0002	
 2.15850000000000E+0003	 9.23175719702602E-0002	
 2.16050000000000E+0003	 9.22788185130112E-0002	
 2.16250000000000E+0003	 9.22085650557621E-0002	
 2.16450000000000E+0003	 9.21623115985130E-0002	
 2.16650000000000E+0003	 9.20980581412639E-0002	
 2.16850000000000E+0003	 9.20653046840149E-0002	
 2.17050000000000E+0003	 9.19920512267658E-0002	
 2.17250000000000E+0003	 9.19272977695167E-0002	
 2.17450000000000E+0003	 9.18390443122677E-0002	
 2.17650000000000E+0003	 9.17827908550186E-0002	
 2.17850000000000E+0003	 9.17090373977695E-0002	
 2.18050000000000E+0003	 9.16537839405204E-0002	
 2.18250000000000E+0003	 9.15805304832714E-0002	
 2.18450000000000E+0003	 9.15242770260223E-0002	
 2.18650000000000E+0003	 9.14565235687732E-0002	
 2.18850000000000E+0003	 9.14027701115242E-0002	
 2.19050000000000E+0003	 9.13390166542751E-0002	
 2.19250000000000E+0003	 9.12822631970260E-0002	
 2.19450000000000E+0003	 9.12215097397770E-0002	
 2.19650000000000E+0003	 9.11632562825279E-0002	
 2.19850000000000E+0003	 9.11010028252788E-0002	
 2.20050000000000E+0003	 9.10357493680297E-0002	
 2.20250000000000E+0003	 9.09794959107807E-0002	
 2.20450000000000E+0003	 9.09192424535316E-0002	
 2.20650000000000E+0003	 9.08669889962825E-0002	
 2.20850000000000E+0003	 9.08027355390335E-0002	
 2.21050000000000E+0003	 9.07534820817844E-0002	
 2.21250000000000E+0003	 9.06897286245353E-0002	
 2.21450000000000E+0003	 9.06434751672862E-0002	
 2.21650000000000E+0003	 9.05767217100372E-0002	
 2.21850000000000E+0003	 9.05304682527881E-0002	
 2.22050000000000E+0003	 9.04662147955390E-0002	
 2.22250000000000E+0003	 9.04269613382900E-0002	
 2.22450000000000E+0003	 9.03602078810409E-0002	
 2.22650000000000E+0003	 9.03154544237918E-0002	
 2.22850000000000E+0003	 9.02502009665428E-0002	
 2.23050000000000E+0003	 9.02129475092937E-0002	
 2.23250000000000E+0003	 9.01486940520446E-0002	
 2.23450000000000E+0003	 9.01114405947955E-0002	
 2.23650000000000E+0003	 9.00491871375465E-0002	
 2.23850000000000E+0003	 9.00129336802974E-0002	
 2.24050000000000E+0003	 8.99486802230483E-0002	
 2.24250000000000E+0003	 8.99109267657993E-0002	
 2.24450000000000E+0003	 8.98511733085502E-0002	
 2.24650000000000E+0003	 8.98149198513011E-0002	
 2.24850000000000E+0003	 8.97546663940520E-0002	
 2.25050000000000E+0003	 8.97164129368030E-0002	
 2.25250000000000E+0003	 8.96576594795539E-0002	
 2.25450000000000E+0003	 8.96184060223048E-0002	
 2.25650000000000E+0003	 8.95601525650558E-0002	
 2.25850000000000E+0003	 8.95168991078067E-0002	
 2.26050000000000E+0003	 8.94626456505576E-0002	
 2.26250000000000E+0003	 8.94258921933086E-0002	
 2.26450000000000E+0003	 8.93806387360595E-0002	
 2.26650000000000E+0003	 8.93488852788104E-0002	
 2.26850000000000E+0003	 8.93096318215613E-0002	
 2.27050000000000E+0003	 8.92763783643123E-0002	
 2.27250000000000E+0003	 8.92361249070632E-0002	
 2.27450000000000E+0003	 8.91978714498141E-0002	
 2.27650000000000E+0003	 8.91591179925651E-0002	
 2.27850000000000E+0003	 8.91213645353160E-0002	
 2.28050000000000E+0003	 8.90821110780669E-0002	
 2.28250000000000E+0003	 8.90418576208178E-0002	
 2.28450000000000E+0003	 8.89961041635688E-0002	
 2.28650000000000E+0003	 8.89278507063197E-0002	
 2.28850000000000E+0003	 8.88560972490706E-0002	
 2.29050000000000E+0003	 8.87703437918216E-0002	
 2.29250000000000E+0003	 8.86805903345725E-0002	
 2.29450000000000E+0003	 8.85713368773234E-0002	
 2.29650000000000E+0003	 8.84795834200743E-0002	
 2.29850000000000E+0003	 8.83888299628253E-0002	
 2.30050000000000E+0003	 8.83390765055762E-0002	
 2.30250000000000E+0003	 8.83328230483271E-0002	
 2.30450000000000E+0003	 8.83430695910781E-0002	
 2.30650000000000E+0003	 8.82898161338290E-0002	
 2.30850000000000E+0003	 8.82725626765799E-0002	
 2.31050000000000E+0003	 8.83038092193309E-0002	
 2.31250000000000E+0003	 8.84375557620818E-0002	
 2.31450000000000E+0003	 8.85543023048327E-0002	
 2.31650000000000E+0003	 8.85810488475836E-0002	
 2.31850000000000E+0003	 8.84912953903346E-0002	
 2.32050000000000E+0003	 8.83860419330855E-0002	
 2.32250000000000E+0003	 8.82842884758364E-0002	
 2.32450000000000E+0003	 8.82875350185874E-0002	
 2.32650000000000E+0003	 8.83382815613383E-0002	
 2.32850000000000E+0003	 8.84390281040892E-0002	
 2.33050000000000E+0003	 8.85107746468401E-0002	
 2.33250000000000E+0003	 8.86450211895911E-0002	
 2.33450000000000E+0003	 8.87892677323420E-0002	
 2.33650000000000E+0003	 8.89055142750929E-0002	
 2.33850000000000E+0003	 8.89282608178439E-0002	
 2.34050000000000E+0003	 8.88365073605948E-0002	
 2.34250000000000E+0003	 8.86972539033457E-0002	
 2.34450000000000E+0003	 8.87200004460967E-0002	
 2.34650000000000E+0003	 8.88032469888476E-0002	
 2.34850000000000E+0003	 8.88379935315985E-0002	
 2.35050000000000E+0003	 8.89317400743494E-0002	
 2.35250000000000E+0003	 8.90774866171004E-0002	
 2.35450000000000E+0003	 8.90482331598513E-0002	
 2.35650000000000E+0003	 8.88769797026022E-0002	
 2.35850000000000E+0003	 8.88412262453532E-0002	
 2.36050000000000E+0003	 8.89434727881041E-0002	
 2.36250000000000E+0003	 8.90327193308550E-0002	
 2.36450000000000E+0003	 8.90569658736059E-0002	
 2.36650000000000E+0003	 8.90892124163569E-0002	
 2.36850000000000E+0003	 8.91189589591078E-0002	
 2.37050000000000E+0003	 8.92052055018587E-0002	
 2.37250000000000E+0003	 8.93974520446097E-0002	
 2.37450000000000E+0003	 8.96171985873606E-0002	
 2.37650000000000E+0003	 8.96169451301115E-0002	
 2.37850000000000E+0003	 8.93446916728625E-0002	
 2.38050000000000E+0003	 8.90224382156134E-0002	
 2.38250000000000E+0003	 8.89326847583643E-0002	
 2.38450000000000E+0003	 8.90549313011152E-0002	
 2.38650000000000E+0003	 8.92701778438662E-0002	
 2.38850000000000E+0003	 8.94329243866171E-0002	
 2.39050000000000E+0003	 8.95486709293680E-0002	
 2.39250000000000E+0003	 8.96119174721190E-0002	
 2.39450000000000E+0003	 8.96786640148699E-0002	
 2.39650000000000E+0003	 8.97299105576208E-0002	
 2.39850000000000E+0003	 8.97941571003717E-0002	
 2.40050000000000E+0003	 8.98434036431227E-0002	
 2.40250000000000E+0003	 8.99141501858736E-0002	
 2.40450000000000E+0003	 8.99743967286245E-0002	
 2.40650000000000E+0003	 9.00486432713755E-0002	
 2.40850000000000E+0003	 9.01128898141264E-0002	
 2.41050000000000E+0003	 9.01936363568773E-0002	
 2.41250000000000E+0003	 9.02638828996283E-0002	
 2.41450000000000E+0003	 9.03501294423792E-0002	
 2.41650000000000E+0003	 9.04298759851301E-0002	
 2.41850000000000E+0003	 9.05211225278810E-0002	
 2.42050000000000E+0003	 9.06068690706320E-0002	
 2.42250000000000E+0003	 9.07026156133829E-0002	
 2.42450000000000E+0003	 9.07963621561338E-0002	
 2.42650000000000E+0003	 9.08956086988848E-0002	
 2.42850000000000E+0003	 9.09883552416357E-0002	
 2.43050000000000E+0003	 9.10866017843866E-0002	
 2.43250000000000E+0003	 9.11853483271375E-0002	
 2.43450000000000E+0003	 9.12930948698885E-0002	
 2.43650000000000E+0003	 9.14028414126394E-0002	
 2.43850000000000E+0003	 9.15125879553903E-0002	
 2.44050000000000E+0003	 9.16213344981413E-0002	
 2.44250000000000E+0003	 9.17240810408922E-0002	
 2.44450000000000E+0003	 9.18293275836431E-0002	
 2.44650000000000E+0003	 9.19340741263941E-0002	
 2.44850000000000E+0003	 9.20448206691450E-0002	
 2.45050000000000E+0003	 9.21485672118959E-0002	
 2.45250000000000E+0003	 9.22638137546468E-0002	
 2.45450000000000E+0003	 9.23730602973978E-0002	
 2.45650000000000E+0003	 9.24938068401487E-0002	
 2.45850000000000E+0003	 9.26055533828996E-0002	
 2.46050000000000E+0003	 9.27282999256506E-0002	
 2.46250000000000E+0003	 9.28435464684015E-0002	
 2.46450000000000E+0003	 9.29742930111524E-0002	
 2.46650000000000E+0003	 9.30905395539033E-0002	
 2.46850000000000E+0003	 9.32237860966543E-0002	
 2.47050000000000E+0003	 9.33490326394052E-0002	
 2.47250000000000E+0003	 9.34902791821561E-0002	
 2.47450000000000E+0003	 9.36195257249071E-0002	
 2.47650000000000E+0003	 9.37612722676580E-0002	
 2.47850000000000E+0003	 9.38855188104089E-0002	
 2.48050000000000E+0003	 9.40232653531599E-0002	
 2.48250000000000E+0003	 9.41455118959108E-0002	
 2.48450000000000E+0003	 9.42847584386617E-0002	
 2.48650000000000E+0003	 9.44100049814126E-0002	
 2.48850000000000E+0003	 9.45507515241636E-0002	
 2.49050000000000E+0003	 9.46784980669145E-0002	
 2.49250000000000E+0003	 9.48172446096654E-0002	
 2.49450000000000E+0003	 9.49444911524164E-0002	
 2.49650000000000E+0003	 9.50867376951673E-0002	
 2.49850000000000E+0003	 9.52169842379182E-0002	
 2.50050000000000E+0003	 9.53552307806691E-0002	
 2.50250000000000E+0003	 9.54864773234201E-0002	
 2.50450000000000E+0003	 9.56292238661710E-0002	
 2.50650000000000E+0003	 9.57584704089219E-0002	
 2.50850000000000E+0003	 9.58882169516729E-0002	
 2.51050000000000E+0003	 9.60089634944238E-0002	
 2.51250000000000E+0003	 9.61347100371747E-0002	
 2.51450000000000E+0003	 9.62499565799257E-0002	
 2.51650000000000E+0003	 9.63607031226766E-0002	
 2.51850000000000E+0003	 9.64684496654275E-0002	
 2.52050000000000E+0003	 9.65751962081784E-0002	
 2.52250000000000E+0003	 9.66779427509294E-0002	
 2.52450000000000E+0003	 9.67831892936803E-0002	
 2.52650000000000E+0003	 9.68879358364312E-0002	
 2.52850000000000E+0003	 9.69921823791822E-0002	
 2.53050000000000E+0003	 9.71039289219331E-0002	
 2.53250000000000E+0003	 9.72086754646840E-0002	
 2.53450000000000E+0003	 9.73154220074349E-0002	
 2.53650000000000E+0003	 9.74221685501859E-0002	
 2.53850000000000E+0003	 9.75389150929368E-0002	
 2.54050000000000E+0003	 9.76496616356877E-0002	
 2.54250000000000E+0003	 9.77684081784387E-0002	
 2.54450000000000E+0003	 9.78751547211896E-0002	
 2.54650000000000E+0003	 9.79889012639405E-0002	
 2.54850000000000E+0003	 9.81001478066914E-0002	
 2.55050000000000E+0003	 9.82248943494424E-0002	
 2.55250000000000E+0003	 9.83406408921933E-0002	
 2.55450000000000E+0003	 9.84653874349442E-0002	
 2.55650000000000E+0003	 9.85796339776952E-0002	
 2.55850000000000E+0003	 9.87043805204461E-0002	
 2.56050000000000E+0003	 9.88171270631970E-0002	
 2.56250000000000E+0003	 9.89408736059480E-0002	
 2.56450000000000E+0003	 9.90526201486989E-0002	
 2.56650000000000E+0003	 9.91753666914498E-0002	
 2.56850000000000E+0003	 9.92911132342007E-0002	
 2.57050000000000E+0003	 9.94223597769517E-0002	
 2.57250000000000E+0003	 9.95481063197026E-0002	
 2.57450000000000E+0003	 9.96898528624535E-0002	
 2.57650000000000E+0003	 9.98240994052045E-0002	
 2.57850000000000E+0003	 9.99723459479554E-0002	
 2.58050000000000E+0003	 1.00117092490706E-0001	
 2.58250000000000E+0003	 1.00277339033457E-0001	
 2.58450000000000E+0003	 1.00434585576208E-0001	
 2.58650000000000E+0003	 1.00603332118959E-0001	
 2.58850000000000E+0003	 1.00766578661710E-0001	
 2.59050000000000E+0003	 1.00938325204461E-0001	
 2.59250000000000E+0003	 1.01111071747212E-0001	
 2.59450000000000E+0003	 1.01291818289963E-0001	
 2.59650000000000E+0003	 1.01472064832714E-0001	
 2.59850000000000E+0003	 1.01657311375465E-0001	
 2.60050000000000E+0003	 1.01846057918216E-0001	
 2.60250000000000E+0003	 1.02034804460967E-0001	
 2.60450000000000E+0003	 1.02226051003717E-0001	
 2.60650000000000E+0003	 1.02418297546468E-0001	
 2.60850000000000E+0003	 1.02618044089219E-0001	
 2.61050000000000E+0003	 1.02815290631970E-0001	
 2.61250000000000E+0003	 1.03013037174721E-0001	
 2.61450000000000E+0003	 1.03206783717472E-0001	
 2.61650000000000E+0003	 1.03418030260223E-0001	
 2.61850000000000E+0003	 1.03622276802974E-0001	
 2.62050000000000E+0003	 1.03828523345725E-0001	
 2.62250000000000E+0003	 1.04030269888476E-0001	
 2.62450000000000E+0003	 1.04249516431227E-0001	
 2.62650000000000E+0003	 1.04461262973978E-0001	
 2.62850000000000E+0003	 1.04678009516729E-0001	
 2.63050000000000E+0003	 1.04880756059480E-0001	
 2.63250000000000E+0003	 1.05102502602230E-0001	
 2.63450000000000E+0003	 1.05321249144981E-0001	
 2.63650000000000E+0003	 1.05548995687732E-0001	
 2.63850000000000E+0003	 1.05766742230483E-0001	
 2.64050000000000E+0003	 1.05994988773234E-0001	
 2.64250000000000E+0003	 1.06214235315985E-0001	
 2.64450000000000E+0003	 1.06445981858736E-0001	
 2.64650000000000E+0003	 1.06670228401487E-0001	
 2.64850000000000E+0003	 1.06903974944238E-0001	
 2.65050000000000E+0003	 1.07131221486989E-0001	
 2.65250000000000E+0003	 1.07365968029740E-0001	
 2.65450000000000E+0003	 1.07587714572491E-0001	
 2.65650000000000E+0003	 1.07822461115242E-0001	
 2.65850000000000E+0003	 1.08058707657993E-0001	
 2.66050000000000E+0003	 1.08296954200743E-0001	
 2.66250000000000E+0003	 1.08523700743494E-0001	
 2.66450000000000E+0003	 1.08760447286245E-0001	
 2.66650000000000E+0003	 1.08999693828996E-0001	
 2.66850000000000E+0003	 1.09242940371747E-0001	
 2.67050000000000E+0003	 1.09477186914498E-0001	
 2.67250000000000E+0003	 1.09720933457249E-0001	
 2.67450000000000E+0003	 1.09968680000000E-0001	
 2.67650000000000E+0003	 1.10219426542751E-0001	
 2.67850000000000E+0003	 1.10464173085502E-0001	
 2.68050000000000E+0003	 1.10699919628253E-0001	
 2.68250000000000E+0003	 1.10928166171004E-0001	
 2.68450000000000E+0003	 1.11161912713755E-0001	
 2.68650000000000E+0003	 1.11397159256506E-0001	
 2.68850000000000E+0003	 1.11629405799257E-0001	
 2.69050000000000E+0003	 1.11865652342007E-0001	
 2.69250000000000E+0003	 1.12104398884758E-0001	
 2.69450000000000E+0003	 1.12343145427509E-0001	
 2.69650000000000E+0003	 1.12583891970260E-0001	
 2.69850000000000E+0003	 1.12835638513011E-0001	
 2.70050000000000E+0003	 1.13088385055762E-0001	
 2.70250000000000E+0003	 1.13344631598513E-0001	
 2.70450000000000E+0003	 1.13603378141264E-0001	
 2.70650000000000E+0003	 1.13878624684015E-0001	
 2.70850000000000E+0003	 1.14162871226766E-0001	
 2.71050000000000E+0003	 1.14455117769517E-0001	
 2.71250000000000E+0003	 1.14742364312268E-0001	
 2.71450000000000E+0003	 1.15047110855019E-0001	
 2.71650000000000E+0003	 1.15356857397770E-0001	
 2.71850000000000E+0003	 1.15677603940520E-0001	
 2.72050000000000E+0003	 1.15998350483271E-0001	
 2.72250000000000E+0003	 1.16333097026022E-0001	
 2.72450000000000E+0003	 1.16660343568773E-0001	
 2.72650000000000E+0003	 1.16990090111524E-0001	
 2.72850000000000E+0003	 1.17293336654275E-0001	
 2.73050000000000E+0003	 1.17600583197026E-0001	
 2.73250000000000E+0003	 1.17910329739777E-0001	
 2.73450000000000E+0003	 1.18229076282528E-0001	
 2.73650000000000E+0003	 1.18535822825279E-0001	
 2.73850000000000E+0003	 1.18836569368030E-0001	
 2.74050000000000E+0003	 1.19121315910781E-0001	
 2.74250000000000E+0003	 1.19413062453532E-0001	
 2.74450000000000E+0003	 1.19696808996283E-0001	
 2.74650000000000E+0003	 1.19995055539033E-0001	
 2.74850000000000E+0003	 1.20287302081784E-0001	
 2.75050000000000E+0003	 1.20569048624535E-0001	
 2.75250000000000E+0003	 1.20840795167286E-0001	
 2.75450000000000E+0003	 1.21129041710037E-0001	
 2.75650000000000E+0003	 1.21425788252788E-0001	
 2.75850000000000E+0003	 1.21731034795539E-0001	
 2.76050000000000E+0003	 1.22036781338290E-0001	
 2.76250000000000E+0003	 1.22350027881041E-0001	
 2.76450000000000E+0003	 1.22668774423792E-0001	
 2.76650000000000E+0003	 1.22991020966543E-0001	
 2.76850000000000E+0003	 1.23312267509294E-0001	
 2.77050000000000E+0003	 1.23638514052045E-0001	
 2.77250000000000E+0003	 1.23983260594796E-0001	
 2.77450000000000E+0003	 1.24344007137546E-0001	
 2.77650000000000E+0003	 1.24692753680297E-0001	
 2.77850000000000E+0003	 1.25026000223048E-0001	
 2.78050000000000E+0003	 1.25383246765799E-0001	
 2.78250000000000E+0003	 1.25759993308550E-0001	
 2.78450000000000E+0003	 1.26153739851301E-0001	
 2.78650000000000E+0003	 1.26556486394052E-0001	
 2.78850000000000E+0003	 1.26990732936803E-0001	
 2.79050000000000E+0003	 1.27418979479554E-0001	
 2.79250000000000E+0003	 1.27834726022305E-0001	
 2.79450000000000E+0003	 1.28253972565056E-0001	
 2.79650000000000E+0003	 1.28708719107807E-0001	
 2.79850000000000E+0003	 1.29175465650558E-0001	
 2.80050000000000E+0003	 1.29632712193309E-0001	
 2.80250000000000E+0003	 1.30082458736059E-0001	
 2.80450000000000E+0003	 1.30560705278810E-0001	
 2.80650000000000E+0003	 1.31049951821561E-0001	
 2.80850000000000E+0003	 1.31566698364312E-0001	
 2.81050000000000E+0003	 1.32083944907063E-0001	
 2.81250000000000E+0003	 1.32597191449814E-0001	
 2.81450000000000E+0003	 1.33116437992565E-0001	
 2.81650000000000E+0003	 1.33657684535316E-0001	
 2.81850000000000E+0003	 1.34208431078067E-0001	
 2.82050000000000E+0003	 1.34781177620818E-0001	
 2.82250000000000E+0003	 1.35371924163569E-0001	
 2.82450000000000E+0003	 1.35984670706320E-0001	
 2.82650000000000E+0003	 1.36609917249071E-0001	
 2.82850000000000E+0003	 1.37270163791822E-0001	
 2.83050000000000E+0003	 1.37968410334572E-0001	
 2.83250000000000E+0003	 1.38722156877323E-0001	
 2.83450000000000E+0003	 1.39536403420074E-0001	
 2.83650000000000E+0003	 1.40448149962825E-0001	
 2.83850000000000E+0003	 1.41496896505576E-0001	
 2.84050000000000E+0003	 1.42691643048327E-0001	
 2.84250000000000E+0003	 1.44121889591078E-0001	
 2.84450000000000E+0003	 1.45937136133829E-0001	
 2.84650000000000E+0003	 1.48164882676580E-0001	
 2.84850000000000E+0003	 1.50690129219331E-0001	
 2.85050000000000E+0003	 1.53228875762082E-0001	
 2.85250000000000E+0003	 1.55417622304833E-0001	
 2.85450000000000E+0003	 1.56958868847584E-0001	
 2.85650000000000E+0003	 1.57843115390335E-0001	
 2.85850000000000E+0003	 1.58344361933086E-0001	
 2.86050000000000E+0003	 1.58772608475836E-0001	
 2.86250000000000E+0003	 1.59346355018587E-0001	
 2.86450000000000E+0003	 1.60219601561338E-0001	
 2.86650000000000E+0003	 1.61414348104089E-0001	
 2.86850000000000E+0003	 1.62821594646840E-0001	
 2.87050000000000E+0003	 1.64312341189591E-0001	
 2.87250000000000E+0003	 1.65708087732342E-0001	
 2.87450000000000E+0003	 1.66763334275093E-0001	
 2.87650000000000E+0003	 1.67394580817844E-0001	
 2.87850000000000E+0003	 1.67779827360595E-0001	
 2.88050000000000E+0003	 1.68054073903346E-0001	
 2.88250000000000E+0003	 1.68319320446097E-0001	
 2.88450000000000E+0003	 1.68653566988848E-0001	
 2.88650000000000E+0003	 1.69114313531599E-0001	
 2.88850000000000E+0003	 1.69713560074349E-0001	
 2.89050000000000E+0003	 1.70442806617100E-0001	
 2.89250000000000E+0003	 1.71281553159851E-0001	
 2.89450000000000E+0003	 1.72241799702602E-0001	
 2.89650000000000E+0003	 1.73272546245353E-0001	
 2.89850000000000E+0003	 1.74340292788104E-0001	
 2.90050000000000E+0003	 1.75484039330855E-0001	
 2.90250000000000E+0003	 1.76753785873606E-0001	
 2.90450000000000E+0003	 1.78153532416357E-0001	
 2.90650000000000E+0003	 1.79721278959108E-0001	
 2.90850000000000E+0003	 1.81516025501859E-0001	
 2.91050000000000E+0003	 1.83602272044610E-0001	
 2.91250000000000E+0003	 1.85998018587361E-0001	
 2.91450000000000E+0003	 1.88642265130112E-0001	
 2.91650000000000E+0003	 1.91419011672862E-0001	
 2.91850000000000E+0003	 1.94233758215613E-0001	
 2.92050000000000E+0003	 1.96889004758364E-0001	
 2.92250000000000E+0003	 1.99195751301115E-0001	
 2.92450000000000E+0003	 2.01010997843866E-0001	
 2.92650000000000E+0003	 2.02321244386617E-0001	
 2.92850000000000E+0003	 2.03205490929368E-0001	
 2.93050000000000E+0003	 2.03667237472119E-0001	
 2.93250000000000E+0003	 2.03702484014870E-0001	
 2.93450000000000E+0003	 2.03402730557621E-0001	
 2.93650000000000E+0003	 2.02762477100372E-0001	
 2.93850000000000E+0003	 2.01757223643123E-0001	
 2.94050000000000E+0003	 2.00463970185874E-0001	
 2.94250000000000E+0003	 1.99051216728625E-0001	
 2.94450000000000E+0003	 1.97641963271375E-0001	
 2.94650000000000E+0003	 1.96337209814126E-0001	
 2.94850000000000E+0003	 1.95300956356877E-0001	
 2.95050000000000E+0003	 1.94716202899628E-0001	
 2.95250000000000E+0003	 1.94629949442379E-0001	
 2.95450000000000E+0003	 1.94824695985130E-0001	
 2.95650000000000E+0003	 1.95142942527881E-0001	
 2.95850000000000E+0003	 1.95432689070632E-0001	
 2.96050000000000E+0003	 1.95516435613383E-0001	
 2.96250000000000E+0003	 1.95254182156134E-0001	
 2.96450000000000E+0003	 1.94584428698885E-0001	
 2.96650000000000E+0003	 1.93543675241636E-0001	
 2.96850000000000E+0003	 1.92233421784387E-0001	
 2.97050000000000E+0003	 1.90723668327138E-0001	
 2.97250000000000E+0003	 1.89127914869888E-0001	
 2.97450000000000E+0003	 1.87545161412639E-0001	
 2.97650000000000E+0003	 1.86029907955390E-0001	
 2.97850000000000E+0003	 1.84626654498141E-0001	
 2.98050000000000E+0003	 1.83313401040892E-0001	
 2.98250000000000E+0003	 1.82017147583643E-0001	
 2.98450000000000E+0003	 1.80795394126394E-0001	
 2.98650000000000E+0003	 1.79709140669145E-0001	
 2.98850000000000E+0003	 1.78764887211896E-0001	
 2.99050000000000E+0003	 1.77972633754647E-0001	
 2.99250000000000E+0003	 1.77319880297398E-0001	
 2.99450000000000E+0003	 1.76748626840149E-0001	
 2.99650000000000E+0003	 1.76337873382900E-0001	
 2.99850000000000E+0003	 1.76097619925651E-0001	
 3.00050000000000E+0003	 1.75990366468401E-0001	
 3.00250000000000E+0003	 1.76058113011152E-0001	
 3.00450000000000E+0003	 1.76282359553903E-0001	
 3.00650000000000E+0003	 1.76614106096654E-0001	
 3.00850000000000E+0003	 1.77094852639405E-0001	
 3.01050000000000E+0003	 1.77749599182156E-0001	
 3.01250000000000E+0003	 1.78490345724907E-0001	
 3.01450000000000E+0003	 1.79222592267658E-0001	
 3.01650000000000E+0003	 1.79953838810409E-0001	
 3.01850000000000E+0003	 1.80760085353160E-0001	
 3.02050000000000E+0003	 1.81669831895911E-0001	
 3.02250000000000E+0003	 1.82686078438662E-0001	
 3.02450000000000E+0003	 1.83804824981413E-0001	
 3.02650000000000E+0003	 1.84946071524164E-0001	
 3.02850000000000E+0003	 1.86107818066914E-0001	
 3.03050000000000E+0003	 1.87318564609665E-0001	
 3.03250000000000E+0003	 1.88554811152416E-0001	
 3.03450000000000E+0003	 1.89781557695167E-0001	
 3.03650000000000E+0003	 1.90957304237918E-0001	
 3.03850000000000E+0003	 1.92172550780669E-0001	
 3.04050000000000E+0003	 1.93507797323420E-0001	
 3.04250000000000E+0003	 1.94887543866171E-0001	
 3.04450000000000E+0003	 1.96226790408922E-0001	
 3.04650000000000E+0003	 1.97548536951673E-0001	
 3.04850000000000E+0003	 1.98916783494424E-0001	
 3.05050000000000E+0003	 2.00368530037175E-0001	
 3.05250000000000E+0003	 2.01815276579926E-0001	
 3.05450000000000E+0003	 2.03256523122677E-0001	
 3.05650000000000E+0003	 2.04701769665428E-0001	
 3.05850000000000E+0003	 2.06106016208178E-0001	
 3.06050000000000E+0003	 2.07470762750929E-0001	
 3.06250000000000E+0003	 2.08819009293680E-0001	
 3.06450000000000E+0003	 2.10136255836431E-0001	
 3.06650000000000E+0003	 2.11426502379182E-0001	
 3.06850000000000E+0003	 2.12627748921933E-0001	
 3.07050000000000E+0003	 2.13740995464684E-0001	
 3.07250000000000E+0003	 2.14843742007435E-0001	
 3.07450000000000E+0003	 2.15972988550186E-0001	
 3.07650000000000E+0003	 2.17137735092937E-0001	
 3.07850000000000E+0003	 2.18307981635688E-0001	
 3.08050000000000E+0003	 2.19393728178439E-0001	
 3.08250000000000E+0003	 2.20421974721190E-0001	
 3.08450000000000E+0003	 2.21443221263941E-0001	
 3.08650000000000E+0003	 2.22428467806691E-0001	
 3.08850000000000E+0003	 2.23394714349442E-0001	
 3.09050000000000E+0003	 2.24366460892193E-0001	
 3.09250000000000E+0003	 2.25292207434944E-0001	
 3.09450000000000E+0003	 2.26198953977695E-0001	
 3.09650000000000E+0003	 2.27132200520446E-0001	
 3.09850000000000E+0003	 2.28095447063197E-0001	
 3.10050000000000E+0003	 2.29068193605948E-0001	
 3.10250000000000E+0003	 2.30017440148699E-0001	
 3.10450000000000E+0003	 2.30976186691450E-0001	
 3.10650000000000E+0003	 2.32016433234201E-0001	
 3.10850000000000E+0003	 2.33126179776952E-0001	
 3.11050000000000E+0003	 2.34216926319703E-0001	
 3.11250000000000E+0003	 2.35335172862454E-0001	
 3.11450000000000E+0003	 2.36589419405204E-0001	
 3.11650000000000E+0003	 2.37926165947955E-0001	
 3.11850000000000E+0003	 2.39256412490706E-0001	
 3.12050000000000E+0003	 2.40568659033457E-0001	
 3.12250000000000E+0003	 2.41861405576208E-0001	
 3.12450000000000E+0003	 2.43222152118959E-0001	
 3.12650000000000E+0003	 2.44702898661710E-0001	
 3.12850000000000E+0003	 2.46278645204461E-0001	
 3.13050000000000E+0003	 2.47878391747212E-0001	
 3.13250000000000E+0003	 2.49492138289963E-0001	
 3.13450000000000E+0003	 2.51162384832714E-0001	
 3.13650000000000E+0003	 2.52927631375465E-0001	
 3.13850000000000E+0003	 2.54766377918216E-0001	
 3.14050000000000E+0003	 2.56570124460967E-0001	
 3.14250000000000E+0003	 2.58334871003717E-0001	
 3.14450000000000E+0003	 2.60184117546468E-0001	
 3.14650000000000E+0003	 2.62121364089219E-0001	
 3.14850000000000E+0003	 2.64142610631970E-0001	
 3.15050000000000E+0003	 2.66287857174721E-0001	
 3.15250000000000E+0003	 2.68470103717472E-0001	
 3.15450000000000E+0003	 2.70526850260223E-0001	
 3.15650000000000E+0003	 2.72581096802974E-0001	
 3.15850000000000E+0003	 2.74750343345725E-0001	
 3.16050000000000E+0003	 2.76994589888476E-0001	
 3.16250000000000E+0003	 2.79273836431227E-0001	
 3.16450000000000E+0003	 2.81596082973978E-0001	
 3.16650000000000E+0003	 2.83949829516729E-0001	
 3.16850000000000E+0003	 2.86324076059480E-0001	
 3.17050000000000E+0003	 2.88710322602230E-0001	
 3.17250000000000E+0003	 2.91116569144981E-0001	
 3.17450000000000E+0003	 2.93537815687732E-0001	
 3.17650000000000E+0003	 2.95969062230483E-0001	
 3.17850000000000E+0003	 2.98408808773234E-0001	
 3.18050000000000E+0003	 3.00845055315985E-0001	
 3.18250000000000E+0003	 3.03272801858736E-0001	
 3.18450000000000E+0003	 3.05696548401487E-0001	
 3.18650000000000E+0003	 3.08112794944238E-0001	
 3.18850000000000E+0003	 3.10521041486989E-0001	
 3.19050000000000E+0003	 3.12900288029740E-0001	
 3.19250000000000E+0003	 3.15255034572491E-0001	
 3.19450000000000E+0003	 3.17586281115242E-0001	
 3.19650000000000E+0003	 3.19896527657993E-0001	
 3.19850000000000E+0003	 3.22197274200743E-0001	
 3.20050000000000E+0003	 3.24477520743494E-0001	
 3.20250000000000E+0003	 3.26732767286245E-0001	
 3.20450000000000E+0003	 3.28967513828996E-0001	
 3.20650000000000E+0003	 3.31186760371747E-0001	
 3.20850000000000E+0003	 3.33387506914498E-0001	
 3.21050000000000E+0003	 3.35583753457249E-0001	
 3.21250000000000E+0003	 3.37789500000000E-0001	
 3.21450000000000E+0003	 3.40003746542751E-0001	
 3.21650000000000E+0003	 3.42206493085502E-0001	
 3.21850000000000E+0003	 3.44410239628253E-0001	
 3.22050000000000E+0003	 3.46604486171004E-0001	
 3.22250000000000E+0003	 3.48795732713755E-0001	
 3.22450000000000E+0003	 3.51008979256506E-0001	
 3.22650000000000E+0003	 3.53248725799257E-0001	
 3.22850000000000E+0003	 3.55524472342007E-0001	
 3.23050000000000E+0003	 3.57891718884758E-0001	
 3.23250000000000E+0003	 3.60340965427509E-0001	
 3.23450000000000E+0003	 3.62687211970260E-0001	
 3.23650000000000E+0003	 3.64927458513011E-0001	
 3.23850000000000E+0003	 3.67259205055762E-0001	
 3.24050000000000E+0003	 3.69701451598513E-0001	
 3.24250000000000E+0003	 3.72210698141264E-0001	
 3.24450000000000E+0003	 3.74807444684015E-0001	
 3.24650000000000E+0003	 3.77464691226766E-0001	
 3.24850000000000E+0003	 3.80068937769517E-0001	
 3.25050000000000E+0003	 3.82651184312268E-0001	
 3.25250000000000E+0003	 3.85320930855019E-0001	
 3.25450000000000E+0003	 3.88093677397770E-0001	
 3.25650000000000E+0003	 3.90875423940520E-0001	
 3.25850000000000E+0003	 3.93615170483271E-0001	
 3.26050000000000E+0003	 3.96372917026022E-0001	
 3.26250000000000E+0003	 3.99150663568773E-0001	
 3.26450000000000E+0003	 4.01921410111524E-0001	
 3.26650000000000E+0003	 4.04679156654275E-0001	
 3.26850000000000E+0003	 4.07454403197026E-0001	
 3.27050000000000E+0003	 4.10185649739777E-0001	
 3.27250000000000E+0003	 4.12732896282528E-0001	
 3.27450000000000E+0003	 4.15135142825279E-0001	
 3.27650000000000E+0003	 4.17465889368030E-0001	
 3.27850000000000E+0003	 4.19712635910781E-0001	
 3.28050000000000E+0003	 4.21884382453532E-0001	
 3.28250000000000E+0003	 4.23965628996283E-0001	
 3.28450000000000E+0003	 4.25948875539033E-0001	
 3.28650000000000E+0003	 4.27822622081784E-0001	
 3.28850000000000E+0003	 4.29619868624535E-0001	
 3.29050000000000E+0003	 4.31365615167286E-0001	
 3.29250000000000E+0003	 4.33004361710037E-0001	
 3.29450000000000E+0003	 4.34475108252788E-0001	
 3.29650000000000E+0003	 4.35824854795539E-0001	
 3.29850000000000E+0003	 4.37074601338290E-0001	
 3.30050000000000E+0003	 4.38274847881041E-0001	
 3.30250000000000E+0003	 4.39489094423792E-0001	
 3.30450000000000E+0003	 4.40733840966543E-0001	
 3.30650000000000E+0003	 4.41872587509294E-0001	
 3.30850000000000E+0003	 4.42833334052045E-0001	
 3.31050000000000E+0003	 4.43694080594796E-0001	
 3.31250000000000E+0003	 4.44572827137546E-0001	
 3.31450000000000E+0003	 4.45494073680297E-0001	
 3.31650000000000E+0003	 4.46430320223048E-0001	
 3.31850000000000E+0003	 4.47367066765799E-0001	
 3.32050000000000E+0003	 4.48322313308550E-0001	
 3.32250000000000E+0003	 4.49320559851301E-0001	
 3.32450000000000E+0003	 4.50369806394052E-0001	
 3.32650000000000E+0003	 4.51382552936803E-0001	
 3.32850000000000E+0003	 4.52351799479554E-0001	
 3.33050000000000E+0003	 4.53359046022305E-0001	
 3.33250000000000E+0003	 4.54426292565056E-0001	
 3.33450000000000E+0003	 4.55543539107807E-0001	
 3.33650000000000E+0003	 4.56739285650558E-0001	
 3.33850000000000E+0003	 4.57929032193309E-0001	
 3.34050000000000E+0003	 4.59027278736059E-0001	
 3.34250000000000E+0003	 4.60107025278810E-0001	
 3.34450000000000E+0003	 4.61186271821561E-0001	
 3.34650000000000E+0003	 4.62289518364312E-0001	
 3.34850000000000E+0003	 4.63525764907063E-0001	
 3.35050000000000E+0003	 4.64772511449814E-0001	
 3.35250000000000E+0003	 4.65839757992565E-0001	
 3.35450000000000E+0003	 4.66853004535316E-0001	
 3.35650000000000E+0003	 4.67965751078067E-0001	
 3.35850000000000E+0003	 4.69144497620818E-0001	
 3.36050000000000E+0003	 4.70312244163569E-0001	
 3.36250000000000E+0003	 4.71429490706320E-0001	
 3.36450000000000E+0003	 4.72634737249071E-0001	
 3.36650000000000E+0003	 4.73979483791822E-0001	
 3.36850000000000E+0003	 4.75248230334572E-0001	
 3.37050000000000E+0003	 4.76214476877323E-0001	
 3.37250000000000E+0003	 4.77018223420074E-0001	
 3.37450000000000E+0003	 4.77953969962825E-0001	
 3.37650000000000E+0003	 4.79005716505576E-0001	
 3.37850000000000E+0003	 4.80038463048327E-0001	
 3.38050000000000E+0003	 4.81026709591078E-0001	
 3.38250000000000E+0003	 4.81954456133829E-0001	
 3.38450000000000E+0003	 4.82874202676580E-0001	
 3.38650000000000E+0003	 4.83833949219331E-0001	
 3.38850000000000E+0003	 4.84938695762082E-0001	
 3.39050000000000E+0003	 4.86158942304833E-0001	
 3.39250000000000E+0003	 4.87100188847584E-0001	
 3.39450000000000E+0003	 4.87705435390335E-0001	
 3.39650000000000E+0003	 4.88438681933086E-0001	
 3.39850000000000E+0003	 4.89526928475836E-0001	
 3.40050000000000E+0003	 4.90551175018587E-0001	
 3.40250000000000E+0003	 4.91016421561338E-0001	
 3.40450000000000E+0003	 4.91268668104089E-0001	
 3.40650000000000E+0003	 4.91790914646840E-0001	
 3.40850000000000E+0003	 4.92468161189591E-0001	
 3.41050000000000E+0003	 4.93058407732342E-0001	
 3.41250000000000E+0003	 4.93543654275093E-0001	
 3.41450000000000E+0003	 4.93847900817844E-0001	
 3.41650000000000E+0003	 4.94058147360595E-0001	
 3.41850000000000E+0003	 4.94336893903346E-0001	
 3.42050000000000E+0003	 4.94623140446097E-0001	
 3.42250000000000E+0003	 4.94792886988848E-0001	
 3.42450000000000E+0003	 4.94918133531599E-0001	
 3.42650000000000E+0003	 4.95116880074349E-0001	
 3.42850000000000E+0003	 4.95346126617100E-0001	
 3.43050000000000E+0003	 4.95396373159851E-0001	
 3.43250000000000E+0003	 4.95361119702602E-0001	
 3.43450000000000E+0003	 4.95402866245353E-0001	
 3.43650000000000E+0003	 4.95201112788104E-0001	
 3.43850000000000E+0003	 4.94580359330855E-0001	
 3.44050000000000E+0003	 4.93874605873606E-0001	
 3.44250000000000E+0003	 4.93325852416357E-0001	
 3.44450000000000E+0003	 4.92865598959108E-0001	
 3.44650000000000E+0003	 4.92362845501859E-0001	
 3.44850000000000E+0003	 4.91721592044610E-0001	
 3.45050000000000E+0003	 4.90985838587361E-0001	
 3.45250000000000E+0003	 4.90253585130112E-0001	
 3.45450000000000E+0003	 4.89488331672862E-0001	
 3.45650000000000E+0003	 4.88714078215613E-0001	
 3.45850000000000E+0003	 4.87978824758364E-0001	
 3.46050000000000E+0003	 4.87110071301115E-0001	
 3.46250000000000E+0003	 4.86047817843866E-0001	
 3.46450000000000E+0003	 4.85157564386617E-0001	
 3.46650000000000E+0003	 4.84490810929368E-0001	
 3.46850000000000E+0003	 4.83521057472119E-0001	
 3.47050000000000E+0003	 4.81924804014870E-0001	
 3.47250000000000E+0003	 4.80167550557621E-0001	
 3.47450000000000E+0003	 4.78666297100372E-0001	
 3.47650000000000E+0003	 4.77406543643123E-0001	
 3.47850000000000E+0003	 4.76250790185874E-0001	
 3.48050000000000E+0003	 4.74804536728625E-0001	
 3.48250000000000E+0003	 4.73035783271375E-0001	
 3.48450000000000E+0003	 4.71432529814126E-0001	
 3.48650000000000E+0003	 4.69949776356877E-0001	
 3.48850000000000E+0003	 4.68279522899628E-0001	
 3.49050000000000E+0003	 4.66524269442379E-0001	
 3.49250000000000E+0003	 4.64876515985130E-0001	
 3.49450000000000E+0003	 4.63284762527881E-0001	
 3.49650000000000E+0003	 4.61635009070632E-0001	
 3.49850000000000E+0003	 4.59854755613383E-0001	
 3.50050000000000E+0003	 4.58131502156134E-0001	
 3.50250000000000E+0003	 4.56372248698885E-0001	
 3.50450000000000E+0003	 4.54251495241636E-0001	
 3.50650000000000E+0003	 4.52042741784387E-0001	
 3.50850000000000E+0003	 4.50010488327138E-0001	
 3.51050000000000E+0003	 4.48113734869888E-0001	
 3.51250000000000E+0003	 4.46301481412639E-0001	
 3.51450000000000E+0003	 4.44313727955390E-0001	
 3.51650000000000E+0003	 4.42110974498141E-0001	
 3.51850000000000E+0003	 4.39956721040892E-0001	
 3.52050000000000E+0003	 4.37996967583643E-0001	
 3.52250000000000E+0003	 4.36152714126394E-0001	
 3.52450000000000E+0003	 4.34024960669145E-0001	
 3.52650000000000E+0003	 4.31570707211896E-0001	
 3.52850000000000E+0003	 4.29154453754647E-0001	
 3.53050000000000E+0003	 4.26852200297398E-0001	
 3.53250000000000E+0003	 4.24637446840149E-0001	
 3.53450000000000E+0003	 4.22541193382900E-0001	
 3.53650000000000E+0003	 4.20308439925651E-0001	
 3.53850000000000E+0003	 4.17790186468401E-0001	
 3.54050000000000E+0003	 4.15417433011152E-0001	
 3.54250000000000E+0003	 4.13304679553903E-0001	
 3.54450000000000E+0003	 4.11036926096654E-0001	
 3.54650000000000E+0003	 4.08258172639405E-0001	
 3.54850000000000E+0003	 4.05287419182156E-0001	
 3.55050000000000E+0003	 4.02548665724907E-0001	
 3.55250000000000E+0003	 3.99824412267658E-0001	
 3.55450000000000E+0003	 3.97009158810409E-0001	
 3.55650000000000E+0003	 3.94276905353160E-0001	
 3.55850000000000E+0003	 3.91607151895911E-0001	
 3.56050000000000E+0003	 3.88915398438662E-0001	
 3.56250000000000E+0003	 3.86119144981413E-0001	
 3.56450000000000E+0003	 3.83239391524164E-0001	
 3.56650000000000E+0003	 3.80274638066914E-0001	
 3.56850000000000E+0003	 3.77233884609665E-0001	
 3.57050000000000E+0003	 3.74191631152416E-0001	
 3.57250000000000E+0003	 3.71134877695167E-0001	
 3.57450000000000E+0003	 3.68042124237918E-0001	
 3.57650000000000E+0003	 3.64974870780669E-0001	
 3.57850000000000E+0003	 3.61953617323420E-0001	
 3.58050000000000E+0003	 3.59001363866171E-0001	
 3.58250000000000E+0003	 3.56130110408922E-0001	
 3.58450000000000E+0003	 3.53238356951673E-0001	
 3.58650000000000E+0003	 3.49923103494424E-0001	
 3.58850000000000E+0003	 3.46224850037175E-0001	
 3.59050000000000E+0003	 3.42824596579926E-0001	
 3.59250000000000E+0003	 3.39697843122677E-0001	
 3.59450000000000E+0003	 3.36407089665428E-0001	
 3.59650000000000E+0003	 3.33102836208178E-0001	
 3.59850000000000E+0003	 3.29928582750929E-0001	
 3.60050000000000E+0003	 3.26661329293680E-0001	
 3.60250000000000E+0003	 3.23326075836431E-0001	
 3.60450000000000E+0003	 3.20092322379182E-0001	
 3.60650000000000E+0003	 3.16803068921933E-0001	
 3.60850000000000E+0003	 3.13347815464684E-0001	
 3.61050000000000E+0003	 3.09890562007435E-0001	
 3.61250000000000E+0003	 3.06592308550186E-0001	
 3.61450000000000E+0003	 3.03332055092937E-0001	
 3.61650000000000E+0003	 3.00054801635688E-0001	
 3.61850000000000E+0003	 2.96674548178439E-0001	
 3.62050000000000E+0003	 2.93196794721190E-0001	
 3.62250000000000E+0003	 2.89859041263941E-0001	
 3.62450000000000E+0003	 2.86742787806691E-0001	
 3.62650000000000E+0003	 2.83547534349442E-0001	
 3.62850000000000E+0003	 2.79921780892193E-0001	
 3.63050000000000E+0003	 2.76156527434944E-0001	
 3.63250000000000E+0003	 2.72994773977695E-0001	
 3.63450000000000E+0003	 2.69984520520446E-0001	
 3.63650000000000E+0003	 2.66757767063197E-0001	
 3.63850000000000E+0003	 2.63568013605948E-0001	
 3.64050000000000E+0003	 2.60424260148699E-0001	
 3.64250000000000E+0003	 2.57406006691450E-0001	
 3.64450000000000E+0003	 2.54537753234201E-0001	
 3.64650000000000E+0003	 2.51719499776952E-0001	
 3.64850000000000E+0003	 2.48656746319703E-0001	
 3.65050000000000E+0003	 2.45439492862454E-0001	
 3.65250000000000E+0003	 2.42367239405204E-0001	
 3.65450000000000E+0003	 2.39559485947955E-0001	
 3.65650000000000E+0003	 2.36810732490706E-0001	
 3.65850000000000E+0003	 2.34104979033457E-0001	
 3.66050000000000E+0003	 2.31541725576208E-0001	
 3.66250000000000E+0003	 2.28896472118959E-0001	
 3.66450000000000E+0003	 2.26363218661710E-0001	
 3.66650000000000E+0003	 2.24069965204461E-0001	
 3.66850000000000E+0003	 2.21783211747212E-0001	
 3.67050000000000E+0003	 2.19500958289963E-0001	
 3.67250000000000E+0003	 2.17360704832714E-0001	
 3.67450000000000E+0003	 2.15454951375465E-0001	
 3.67650000000000E+0003	 2.13387697918216E-0001	
 3.67850000000000E+0003	 2.11348944460967E-0001	
 3.68050000000000E+0003	 2.09638691003717E-0001	
 3.68250000000000E+0003	 2.07983937546468E-0001	
 3.68450000000000E+0003	 2.06498684089219E-0001	
 3.68650000000000E+0003	 2.05184430631970E-0001	
 3.68850000000000E+0003	 2.03808677174721E-0001	
 3.69050000000000E+0003	 2.02148923717472E-0001	
 3.69250000000000E+0003	 2.00649170260223E-0001	
 3.69450000000000E+0003	 1.99372916802974E-0001	
 3.69650000000000E+0003	 1.98212163345725E-0001	
 3.69850000000000E+0003	 1.97054409888476E-0001	
 3.70050000000000E+0003	 1.95957156431227E-0001	
 3.70250000000000E+0003	 1.94949402973978E-0001	
 3.70450000000000E+0003	 1.93990649516729E-0001	
 3.70650000000000E+0003	 1.93120896059480E-0001	
 3.70850000000000E+0003	 1.92297642602230E-0001	
 3.71050000000000E+0003	 1.91476889144981E-0001	
 3.71250000000000E+0003	 1.90719135687732E-0001	
 3.71450000000000E+0003	 1.89937382230483E-0001	
 3.71650000000000E+0003	 1.89194128773234E-0001	
 3.71850000000000E+0003	 1.88503375315985E-0001	
 3.72050000000000E+0003	 1.87827621858736E-0001	
 3.72250000000000E+0003	 1.87222868401487E-0001	
 3.72450000000000E+0003	 1.86583614944238E-0001	
 3.72650000000000E+0003	 1.85968861486989E-0001	
 3.72850000000000E+0003	 1.85354608029740E-0001	
 3.73050000000000E+0003	 1.84854354572491E-0001	
 3.73250000000000E+0003	 1.84471101115242E-0001	
 3.73450000000000E+0003	 1.84044847657993E-0001	
 3.73650000000000E+0003	 1.83681094200743E-0001	
 3.73850000000000E+0003	 1.83192840743494E-0001	
 3.74050000000000E+0003	 1.82682587286245E-0001	
 3.74250000000000E+0003	 1.82065333828996E-0001	
 3.74450000000000E+0003	 1.81643080371747E-0001	
 3.74650000000000E+0003	 1.81167826914498E-0001	
 3.74850000000000E+0003	 1.80765573457249E-0001	
 3.75050000000000E+0003	 1.80360820000000E-0001	
 3.75250000000000E+0003	 1.79957066542751E-0001	
 3.75450000000000E+0003	 1.79517313085502E-0001	
 3.75650000000000E+0003	 1.79115059628253E-0001	
 3.75850000000000E+0003	 1.78755306171004E-0001	
 3.76050000000000E+0003	 1.78428552713755E-0001	
 3.76250000000000E+0003	 1.78024799256506E-0001	
 3.76450000000000E+0003	 1.77684545799257E-0001	
 3.76650000000000E+0003	 1.77388292342007E-0001	
 3.76850000000000E+0003	 1.77044538884758E-0001	
 3.77050000000000E+0003	 1.76746285427509E-0001	
 3.77250000000000E+0003	 1.76374031970260E-0001	
 3.77450000000000E+0003	 1.76059278513011E-0001	
 3.77650000000000E+0003	 1.75793025055762E-0001	
 3.77850000000000E+0003	 1.75596271598513E-0001	
 3.78050000000000E+0003	 1.75366518141264E-0001	
 3.78250000000000E+0003	 1.74995264684015E-0001	
 3.78450000000000E+0003	 1.74688511226766E-0001	
 3.78650000000000E+0003	 1.74431257769517E-0001	
 3.78850000000000E+0003	 1.74178004312268E-0001	
 3.79050000000000E+0003	 1.73941750855019E-0001	
 3.79250000000000E+0003	 1.73711497397770E-0001	
 3.79450000000000E+0003	 1.73462243940520E-0001	
 3.79650000000000E+0003	 1.73329490483271E-0001	
 3.79850000000000E+0003	 1.73088737026022E-0001	
 3.80050000000000E+0003	 1.72848483568773E-0001	
 3.80250000000000E+0003	 1.72746730111524E-0001	
 3.80450000000000E+0003	 1.72454976654275E-0001	
 3.80650000000000E+0003	 1.72260723197026E-0001	
 3.80850000000000E+0003	 1.72025469739777E-0001	
 3.81050000000000E+0003	 1.71800716282528E-0001	
 3.81250000000000E+0003	 1.71644462825279E-0001	
 3.81450000000000E+0003	 1.71471209368030E-0001	
 3.81650000000000E+0003	 1.71424955910781E-0001	
 3.81850000000000E+0003	 1.71166702453532E-0001	
 3.82050000000000E+0003	 1.71032948996283E-0001	
 3.82250000000000E+0003	 1.70943695539033E-0001	
 3.82450000000000E+0003	 1.70665942081784E-0001	
 3.82650000000000E+0003	 1.70521188624535E-0001	
 3.82850000000000E+0003	 1.70367935167286E-0001	
 3.83050000000000E+0003	 1.70202181710037E-0001	
 3.83250000000000E+0003	 1.70092428252788E-0001	
 3.83450000000000E+0003	 1.70002174795539E-0001	
 3.83650000000000E+0003	 1.69905921338290E-0001	
 3.83850000000000E+0003	 1.69767667881041E-0001	
 3.84050000000000E+0003	 1.69600914423792E-0001	
 3.84250000000000E+0003	 1.69490660966543E-0001	
 3.84450000000000E+0003	 1.69402907509294E-0001	
 3.84650000000000E+0003	 1.69270654052045E-0001	
 3.84850000000000E+0003	 1.69166900594796E-0001	
 3.85050000000000E+0003	 1.68997647137546E-0001	
 3.85250000000000E+0003	 1.68719893680297E-0001	
 3.85450000000000E+0003	 1.68565640223048E-0001	
 3.85650000000000E+0003	 1.68485886765799E-0001	
 3.85850000000000E+0003	 1.68507633308550E-0001	
 3.86050000000000E+0003	 1.68465879851301E-0001	
 3.86250000000000E+0003	 1.68321626394052E-0001	
 3.86450000000000E+0003	 1.68291872936803E-0001	
 3.86650000000000E+0003	 1.68218619479554E-0001	
 3.86850000000000E+0003	 1.68080866022305E-0001	
 3.87050000000000E+0003	 1.68064112565056E-0001	
 3.87250000000000E+0003	 1.67895859107807E-0001	
 3.87450000000000E+0003	 1.67869105650558E-0001	
 3.87650000000000E+0003	 1.67800852193309E-0001	
 3.87850000000000E+0003	 1.67666598736059E-0001	
 3.88050000000000E+0003	 1.67694845278810E-0001	
 3.88250000000000E+0003	 1.67688091821561E-0001	
 3.88450000000000E+0003	 1.67653838364312E-0001	
 3.88650000000000E+0003	 1.67638584907063E-0001	
 3.88850000000000E+0003	 1.67391331449814E-0001	
 3.89050000000000E+0003	 1.67233577992565E-0001	
 3.89250000000000E+0003	 1.67195824535316E-0001	
 3.89450000000000E+0003	 1.67183571078067E-0001	
 3.89650000000000E+0003	 1.67149817620818E-0001	
 3.89850000000000E+0003	 1.67165064163569E-0001	
 3.90050000000000E+0003	 1.67220310706320E-0001	
 3.90250000000000E+0003	 1.67140557249071E-0001	
 3.90450000000000E+0003	 1.67011303791822E-0001	
 3.90650000000000E+0003	 1.66908050334572E-0001	
 3.90850000000000E+0003	 1.66837296877323E-0001	
 3.91050000000000E+0003	 1.66782543420074E-0001	
 3.91250000000000E+0003	 1.66765789962825E-0001	
 3.91450000000000E+0003	 1.66771536505576E-0001	
 3.91650000000000E+0003	 1.66806783048327E-0001	
 3.91850000000000E+0003	 1.66794029591078E-0001	
 3.92050000000000E+0003	 1.66743276133829E-0001	
 3.92250000000000E+0003	 1.66660022676580E-0001	
 3.92450000000000E+0003	 1.66612769219331E-0001	
 3.92650000000000E+0003	 1.66589015762082E-0001	
 3.92850000000000E+0003	 1.66583762304833E-0001	
 3.93050000000000E+0003	 1.66609008847584E-0001	
 3.93250000000000E+0003	 1.66645255390335E-0001	
 3.93450000000000E+0003	 1.66599501933086E-0001	
 3.93650000000000E+0003	 1.66506748475836E-0001	
 3.93850000000000E+0003	 1.66450995018587E-0001	
 3.94050000000000E+0003	 1.66404741561338E-0001	
 3.94250000000000E+0003	 1.66408488104089E-0001	
 3.94450000000000E+0003	 1.66423734646840E-0001	
 3.94650000000000E+0003	 1.66408481189591E-0001	
 3.94850000000000E+0003	 1.66372727732342E-0001	
 3.95050000000000E+0003	 1.66313474275093E-0001	
 3.95250000000000E+0003	 1.66262220817844E-0001	
 3.95450000000000E+0003	 1.66227967360595E-0001	
 3.95650000000000E+0003	 1.66201213903346E-0001	
 3.95850000000000E+0003	 1.66181960446097E-0001	
 3.96050000000000E+0003	 1.66167206988848E-0001	
 3.96250000000000E+0003	 1.66154453531599E-0001	
 3.96450000000000E+0003	 1.66123200074349E-0001	
 3.96650000000000E+0003	 1.66086446617100E-0001	
 3.96850000000000E+0003	 1.66065693159851E-0001	
 3.97050000000000E+0003	 1.66055939702602E-0001	
 3.97250000000000E+0003	 1.66045686245353E-0001	
 3.97450000000000E+0003	 1.66039432788104E-0001	
 3.97650000000000E+0003	 1.66032679330855E-0001	
 3.97850000000000E+0003	 1.66008425873606E-0001	
 3.98050000000000E+0003	 1.65984172416357E-0001	
 3.98250000000000E+0003	 1.65985918959108E-0001	
 3.98450000000000E+0003	 1.65985165501859E-0001	
 3.98650000000000E+0003	 1.65950912044610E-0001	
 3.98850000000000E+0003	 1.65904658587361E-0001	
 3.99050000000000E+0003	 1.65876905130112E-0001	
 3.99250000000000E+0003	 1.65856651672862E-0001	
 3.99450000000000E+0003	 1.65843398215613E-0001	
 3.99650000000000E+0003	 1.65830644758364E-0001	
 3.99850000000000E+0003	 1.65811391301115E-0001	

>1	DATALINE
