*CPCWIN*

>1	DATALINE
DATALINE
1
Operator:

Description:

Remarks:





15.9.2008
10:47


_x	_y
	
	
UNIT	UNIT
 4.50500000000000E+0002	 8.19797852181070E-0002	
 4.52500000000000E+0002	 8.22302149794239E-0002	
 4.54500000000000E+0002	 8.26906447407407E-0002	
 4.56500000000000E+0002	 8.28945745020576E-0002	
 4.58500000000000E+0002	 8.31355042633745E-0002	
 4.60500000000000E+0002	 8.36539340246914E-0002	
 4.62500000000000E+0002	 8.41493637860082E-0002	
 4.64500000000000E+0002	 8.46382935473251E-0002	
 4.66500000000000E+0002	 8.48807233086420E-0002	
 4.68500000000000E+0002	 8.51801530699588E-0002	
 4.70500000000000E+0002	 8.55650828312757E-0002	
 4.72500000000000E+0002	 8.60595125925926E-0002	
 4.74500000000000E+0002	 8.65099423539095E-0002	
 4.76500000000000E+0002	 8.69868721152263E-0002	
 4.78500000000000E+0002	 8.74638018765432E-0002	
 4.80500000000000E+0002	 8.80147316378601E-0002	
 4.82500000000000E+0002	 8.84881613991770E-0002	
 4.84500000000000E+0002	 8.89755911604938E-0002	
 4.86500000000000E+0002	 8.93990209218107E-0002	
 4.88500000000000E+0002	 9.00064506831276E-0002	
 4.90500000000000E+0002	 9.05063804444444E-0002	
 4.92500000000000E+0002	 9.10668102057613E-0002	
 4.94500000000000E+0002	 9.17427399670782E-0002	
 4.96500000000000E+0002	 9.24421697283951E-0002	
 4.98500000000000E+0002	 9.29920994897119E-0002	
 5.00500000000000E+0002	 9.34340292510288E-0002	
 5.02500000000000E+0002	 9.38984590123457E-0002	
 5.04500000000000E+0002	 9.45928887736626E-0002	
 5.06500000000000E+0002	 9.52458185349794E-0002	
 5.08500000000000E+0002	 9.58722482962963E-0002	
 5.10500000000000E+0002	 9.64831780576132E-0002	
 5.12500000000000E+0002	 9.71586078189300E-0002	
 5.14500000000000E+0002	 9.78430375802469E-0002	
 5.16500000000000E+0002	 9.85489673415638E-0002	
 5.18500000000000E+0002	 9.92828971028807E-0002	
 5.20500000000000E+0002	 1.00005826864198E-0001	
 5.22500000000000E+0002	 1.00571256625514E-0001	
 5.24500000000000E+0002	 1.00939686386831E-0001	
 5.26500000000000E+0002	 1.01350616148148E-0001	
 5.28500000000000E+0002	 1.01937545909465E-0001	
 5.30500000000000E+0002	 1.02454475670782E-0001	
 5.32500000000000E+0002	 1.02847905432099E-0001	
 5.34500000000000E+0002	 1.03200835193416E-0001	
 5.36500000000000E+0002	 1.03519764954733E-0001	
 5.38500000000000E+0002	 1.03778694716049E-0001	
 5.40500000000000E+0002	 1.03995124477366E-0001	
 5.42500000000000E+0002	 1.04152054238683E-0001	
 5.44500000000000E+0002	 1.04325984000000E-0001	
 5.46500000000000E+0002	 1.04532913761317E-0001	
 5.48500000000000E+0002	 1.04786843522634E-0001	
 5.50500000000000E+0002	 1.05103273283951E-0001	
 5.52500000000000E+0002	 1.05428203045267E-0001	
 5.54500000000000E+0002	 1.05716632806584E-0001	
 5.56500000000000E+0002	 1.06013062567901E-0001	
 5.58500000000000E+0002	 1.06203992329218E-0001	
 5.60500000000000E+0002	 1.06229922090535E-0001	
 5.62500000000000E+0002	 1.06093851851852E-0001	
 5.64500000000000E+0002	 1.05921281613169E-0001	
 5.66500000000000E+0002	 1.05770711374486E-0001	
 5.68500000000000E+0002	 1.05689641135802E-0001	
 5.70500000000000E+0002	 1.05666070897119E-0001	
 5.72500000000000E+0002	 1.05704000658436E-0001	
 5.74500000000000E+0002	 1.05737930419753E-0001	
 5.76500000000000E+0002	 1.05869860181070E-0001	
 5.78500000000000E+0002	 1.06035289942387E-0001	
 5.80500000000000E+0002	 1.06100719703704E-0001	
 5.82500000000000E+0002	 1.06127149465021E-0001	
 5.84500000000000E+0002	 1.06121079226337E-0001	
 5.86500000000000E+0002	 1.06119008987654E-0001	
 5.88500000000000E+0002	 1.06173938748971E-0001	
 5.90500000000000E+0002	 1.06200368510288E-0001	
 5.92500000000000E+0002	 1.06266298271605E-0001	
 5.94500000000000E+0002	 1.06449228032922E-0001	
 5.96500000000000E+0002	 1.06613157794239E-0001	
 5.98500000000000E+0002	 1.06708087555556E-0001	
 6.00500000000000E+0002	 1.06792517316872E-0001	
 6.02500000000000E+0002	 1.06965947078189E-0001	
 6.04500000000000E+0002	 1.07137376839506E-0001	
 6.06500000000000E+0002	 1.07335806600823E-0001	
 6.08500000000000E+0002	 1.07496236362140E-0001	
 6.10500000000000E+0002	 1.07636166123457E-0001	
 6.12500000000000E+0002	 1.07722595884774E-0001	
 6.14500000000000E+0002	 1.07800025646091E-0001	
 6.16500000000000E+0002	 1.07876455407407E-0001	
 6.18500000000000E+0002	 1.07972885168724E-0001	
 6.20500000000000E+0002	 1.07923314930041E-0001	
 6.22500000000000E+0002	 1.07726244691358E-0001	
 6.24500000000000E+0002	 1.07431174452675E-0001	
 6.26500000000000E+0002	 1.07206604213992E-0001	
 6.28500000000000E+0002	 1.07027033975309E-0001	
 6.30500000000000E+0002	 1.06818463736626E-0001	
 6.32500000000000E+0002	 1.06539893497942E-0001	
 6.34500000000000E+0002	 1.06237823259259E-0001	
 6.36500000000000E+0002	 1.06044253020576E-0001	
 6.38500000000000E+0002	 1.05927182781893E-0001	
 6.40500000000000E+0002	 1.05821112543210E-0001	
 6.42500000000000E+0002	 1.05712042304527E-0001	
 6.44500000000000E+0002	 1.05609472065844E-0001	
 6.46500000000000E+0002	 1.05517401827160E-0001	
 6.48500000000000E+0002	 1.05459831588477E-0001	
 6.50500000000000E+0002	 1.05390761349794E-0001	
 6.52500000000000E+0002	 1.05357191111111E-0001	
 6.54500000000000E+0002	 1.05365620872428E-0001	
 6.56500000000000E+0002	 1.05427050633745E-0001	
 6.58500000000000E+0002	 1.05479480395062E-0001	
 6.60500000000000E+0002	 1.05503910156379E-0001	
 6.62500000000000E+0002	 1.05480839917695E-0001	
 6.64500000000000E+0002	 1.05436769679012E-0001	
 6.66500000000000E+0002	 1.06015199440329E-0001	
 6.68500000000000E+0002	 1.06434629201646E-0001	
 6.70500000000000E+0002	 1.05210558962963E-0001	
 6.72500000000000E+0002	 1.04589988724280E-0001	
 6.74500000000000E+0002	 1.04285918485597E-0001	
 6.76500000000000E+0002	 1.03938848246914E-0001	
 6.78500000000000E+0002	 1.03602278008230E-0001	
 6.80500000000000E+0002	 1.03281707769547E-0001	
 6.82500000000000E+0002	 1.03013137530864E-0001	
 6.84500000000000E+0002	 1.02798067292181E-0001	
 6.86500000000000E+0002	 1.02600497053498E-0001	
 6.88500000000000E+0002	 1.02410926814815E-0001	
 6.90500000000000E+0002	 1.02295856576132E-0001	
 6.92500000000000E+0002	 1.02217286337449E-0001	
 6.94500000000000E+0002	 1.02153216098765E-0001	
 6.96500000000000E+0002	 1.02129645860082E-0001	
 6.98500000000000E+0002	 1.02117075621399E-0001	
 7.00500000000000E+0002	 1.02064005382716E-0001	
 7.02500000000000E+0002	 1.01915935144033E-0001	
 7.04500000000000E+0002	 1.01700864905350E-0001	
 7.06500000000000E+0002	 1.01452794666667E-0001	
 7.08500000000000E+0002	 1.01215724427984E-0001	
 7.10500000000000E+0002	 1.00988654189300E-0001	
 7.12500000000000E+0002	 1.00747583950617E-0001	
 7.14500000000000E+0002	 1.00362013711934E-0001	
 7.16500000000000E+0002	 9.98904434732510E-0002	
 7.18500000000000E+0002	 9.93888732345679E-0002	
 7.20500000000000E+0002	 9.89478029958848E-0002	
 7.22500000000000E+0002	 9.84842327572016E-0002	
 7.24500000000000E+0002	 9.79606625185185E-0002	
 7.26500000000000E+0002	 9.73045922798354E-0002	
 7.28500000000000E+0002	 9.65885220411523E-0002	
 7.30500000000000E+0002	 9.58394518024691E-0002	
 7.32500000000000E+0002	 9.51818815637860E-0002	
 7.34500000000000E+0002	 9.46018113251029E-0002	
 7.36500000000000E+0002	 9.41322410864198E-0002	
 7.38500000000000E+0002	 9.37051708477366E-0002	
 7.40500000000000E+0002	 9.33346006090535E-0002	
 7.42500000000000E+0002	 9.29790303703704E-0002	
 7.44500000000000E+0002	 9.26669601316872E-0002	
 7.46500000000000E+0002	 9.23493898930041E-0002	
 7.48500000000000E+0002	 9.20548196543210E-0002	
 7.50500000000000E+0002	 9.17642494156379E-0002	
 7.52500000000000E+0002	 9.15086791769547E-0002	
 7.54500000000000E+0002	 9.12686089382716E-0002	
 7.56500000000000E+0002	 9.10680386995885E-0002	
 7.58500000000000E+0002	 9.08679684609053E-0002	
 7.60500000000000E+0002	 9.06968982222222E-0002	
 7.62500000000000E+0002	 9.05788279835391E-0002	
 7.64500000000000E+0002	 9.04542577448560E-0002	
 7.66500000000000E+0002	 9.02051875061728E-0002	
 7.68500000000000E+0002	 8.97901172674897E-0002	
 7.70500000000000E+0002	 8.92820470288066E-0002	
 7.72500000000000E+0002	 8.88569767901235E-0002	
 7.74500000000000E+0002	 8.86404065514403E-0002	
 7.76500000000000E+0002	 8.87563363127572E-0002	
 7.78500000000000E+0002	 8.90922660740741E-0002	
 7.80500000000000E+0002	 8.91951958353909E-0002	
 7.82500000000000E+0002	 8.88276255967078E-0002	
 7.84500000000000E+0002	 8.83170553580247E-0002	
 7.86500000000000E+0002	 8.78799851193416E-0002	
 7.88500000000000E+0002	 8.75014148806584E-0002	
 7.90500000000000E+0002	 8.71563446419753E-0002	
 7.92500000000000E+0002	 8.69997744032922E-0002	
 7.94500000000000E+0002	 8.70237041646091E-0002	
 7.96500000000000E+0002	 8.70281339259259E-0002	
 7.98500000000000E+0002	 8.67935636872428E-0002	
 8.00500000000000E+0002	 8.64079934485597E-0002	
 8.02500000000000E+0002	 8.60344232098765E-0002	
 8.04500000000000E+0002	 8.57993529711934E-0002	
 8.06500000000000E+0002	 8.56532827325103E-0002	
 8.08500000000000E+0002	 8.55852124938272E-0002	
 8.10500000000000E+0002	 8.54906422551440E-0002	
 8.12500000000000E+0002	 8.53215720164609E-0002	
 8.14500000000000E+0002	 8.50355017777778E-0002	
 8.16500000000000E+0002	 8.46734315390947E-0002	
 8.18500000000000E+0002	 8.42413613004115E-0002	
 8.20500000000000E+0002	 8.38437910617284E-0002	
 8.22500000000000E+0002	 8.34892208230453E-0002	
 8.24500000000000E+0002	 8.31761505843621E-0002	
 8.26500000000000E+0002	 8.28760803456790E-0002	
 8.28500000000000E+0002	 8.26380101069959E-0002	
 8.30500000000000E+0002	 8.24434398683128E-0002	
 8.32500000000000E+0002	 8.23188696296296E-0002	
 8.34500000000000E+0002	 8.22187993909465E-0002	
 8.36500000000000E+0002	 8.21587291522634E-0002	
 8.38500000000000E+0002	 8.21176589135802E-0002	
 8.40500000000000E+0002	 8.20955886748971E-0002	
 8.42500000000000E+0002	 8.20790184362140E-0002	
 8.44500000000000E+0002	 8.20949481975309E-0002	
 8.46500000000000E+0002	 8.21248779588477E-0002	
 8.48500000000000E+0002	 8.22088077201646E-0002	
 8.50500000000000E+0002	 8.23507374814815E-0002	
 8.52500000000000E+0002	 8.26191672427984E-0002	
 8.54500000000000E+0002	 8.29680970041152E-0002	
 8.56500000000000E+0002	 8.33595267654321E-0002	
 8.58500000000000E+0002	 8.37049565267490E-0002	
 8.60500000000000E+0002	 8.39418862880658E-0002	
 8.62500000000000E+0002	 8.40033160493827E-0002	
 8.64500000000000E+0002	 8.39172458106996E-0002	
 8.66500000000000E+0002	 8.37081755720165E-0002	
 8.68500000000000E+0002	 8.36446053333333E-0002	
 8.70500000000000E+0002	 8.40690350946502E-0002	
 8.72500000000000E+0002	 8.45474648559671E-0002	
 8.74500000000000E+0002	 8.42008946172840E-0002	
 8.76500000000000E+0002	 8.34293243786008E-0002	
 8.78500000000000E+0002	 8.28432541399177E-0002	
 8.80500000000000E+0002	 8.25131839012346E-0002	
 8.82500000000000E+0002	 8.23116136625514E-0002	
 8.84500000000000E+0002	 8.21850434238683E-0002	
 8.86500000000000E+0002	 8.20894731851852E-0002	
 8.88500000000000E+0002	 8.20704029465021E-0002	
 8.90500000000000E+0002	 8.20918327078189E-0002	
 8.92500000000000E+0002	 8.21817624691358E-0002	
 8.94500000000000E+0002	 8.22576922304527E-0002	
 8.96500000000000E+0002	 8.22586219917695E-0002	
 8.98500000000000E+0002	 8.21330517530864E-0002	
 9.00500000000000E+0002	 8.19694815144033E-0002	
 9.02500000000000E+0002	 8.18299112757202E-0002	
 9.04500000000000E+0002	 8.18533410370370E-0002	
 9.06500000000000E+0002	 8.20762707983539E-0002	
 9.08500000000000E+0002	 8.25457005596708E-0002	
 9.10500000000000E+0002	 8.31511303209877E-0002	
 9.12500000000000E+0002	 8.37690600823045E-0002	
 9.14500000000000E+0002	 8.42049898436214E-0002	
 9.16500000000000E+0002	 8.43724196049383E-0002	
 9.18500000000000E+0002	 8.42103493662551E-0002	
 9.20500000000000E+0002	 8.38062791275720E-0002	
 9.22500000000000E+0002	 8.32737088888889E-0002	
 9.24500000000000E+0002	 8.27821386502058E-0002	
 9.26500000000000E+0002	 8.23845684115226E-0002	
 9.28500000000000E+0002	 8.21269981728395E-0002	
 9.30500000000000E+0002	 8.19849279341564E-0002	
 9.32500000000000E+0002	 8.19423576954733E-0002	
 9.34500000000000E+0002	 8.19347874567901E-0002	
 9.36500000000000E+0002	 8.19512172181070E-0002	
 9.38500000000000E+0002	 8.19706469794239E-0002	
 9.40500000000000E+0002	 8.20150767407407E-0002	
 9.42500000000000E+0002	 8.21140065020576E-0002	
 9.44500000000000E+0002	 8.22989362633745E-0002	
 9.46500000000000E+0002	 8.25803660246914E-0002	
 9.48500000000000E+0002	 8.29687957860082E-0002	
 9.50500000000000E+0002	 8.34582255473251E-0002	
 9.52500000000000E+0002	 8.40896553086420E-0002	
 9.54500000000000E+0002	 8.48905850699588E-0002	
 9.56500000000000E+0002	 8.58815148312757E-0002	
 9.58500000000000E+0002	 8.70269445925926E-0002	
 9.60500000000000E+0002	 8.82883743539095E-0002	
 9.62500000000000E+0002	 8.95808041152263E-0002	
 9.64500000000000E+0002	 9.08267338765432E-0002	
 9.66500000000000E+0002	 9.19281636378601E-0002	
 9.68500000000000E+0002	 9.28620933991770E-0002	
 9.70500000000000E+0002	 9.36040231604938E-0002	
 9.72500000000000E+0002	 9.42169529218107E-0002	
 9.74500000000000E+0002	 9.47758826831276E-0002	
 9.76500000000000E+0002	 9.54798124444444E-0002	
 9.78500000000000E+0002	 9.64677422057613E-0002	
 9.80500000000000E+0002	 9.78716719670782E-0002	
 9.82500000000000E+0002	 9.96296017283951E-0002	
 9.84500000000000E+0002	 1.01568531489712E-0001	
 9.86500000000000E+0002	 1.03441461251029E-0001	
 9.88500000000000E+0002	 1.05123891012346E-0001	
 9.90500000000000E+0002	 1.06507320773663E-0001	
 9.92500000000000E+0002	 1.07599750534979E-0001	
 9.94500000000000E+0002	 1.08459180296296E-0001	
 9.96500000000000E+0002	 1.09260610057613E-0001	
 9.98500000000000E+0002	 1.10129539818930E-0001	
 1.00050000000000E+0003	 1.11187469580247E-0001	
 1.00250000000000E+0003	 1.12475899341564E-0001	
 1.00450000000000E+0003	 1.14022329102881E-0001	
 1.00650000000000E+0003	 1.15830258864198E-0001	
 1.00850000000000E+0003	 1.17891188625514E-0001	
 1.01050000000000E+0003	 1.20138618386831E-0001	
 1.01250000000000E+0003	 1.22502548148148E-0001	
 1.01450000000000E+0003	 1.24901477909465E-0001	
 1.01650000000000E+0003	 1.27274907670782E-0001	
 1.01850000000000E+0003	 1.29526837432099E-0001	
 1.02050000000000E+0003	 1.31592267193416E-0001	
 1.02250000000000E+0003	 1.33454196954733E-0001	
 1.02450000000000E+0003	 1.35152626716049E-0001	
 1.02650000000000E+0003	 1.36748556477366E-0001	
 1.02850000000000E+0003	 1.38297486238683E-0001	
 1.03050000000000E+0003	 1.39781916000000E-0001	
 1.03250000000000E+0003	 1.41146845761317E-0001	
 1.03450000000000E+0003	 1.42338275522634E-0001	
 1.03650000000000E+0003	 1.43327705283951E-0001	
 1.03850000000000E+0003	 1.44134135045267E-0001	
 1.04050000000000E+0003	 1.44841064806584E-0001	
 1.04250000000000E+0003	 1.45585994567901E-0001	
 1.04450000000000E+0003	 1.46518924329218E-0001	
 1.04650000000000E+0003	 1.47695354090535E-0001	
 1.04850000000000E+0003	 1.49088783851852E-0001	
 1.05050000000000E+0003	 1.50559713613169E-0001	
 1.05250000000000E+0003	 1.51905643374486E-0001	
 1.05450000000000E+0003	 1.52917573135802E-0001	
 1.05650000000000E+0003	 1.53504002897119E-0001	
 1.05850000000000E+0003	 1.53693432658436E-0001	
 1.06050000000000E+0003	 1.53549862419753E-0001	
 1.06250000000000E+0003	 1.53215792181070E-0001	
 1.06450000000000E+0003	 1.52973721942387E-0001	
 1.06650000000000E+0003	 1.53027651703704E-0001	
 1.06850000000000E+0003	 1.53444081465021E-0001	
 1.07050000000000E+0003	 1.54135511226337E-0001	
 1.07250000000000E+0003	 1.54992440987654E-0001	
 1.07450000000000E+0003	 1.55882870748971E-0001	
 1.07650000000000E+0003	 1.56689300510288E-0001	
 1.07850000000000E+0003	 1.57259730271605E-0001	
 1.08050000000000E+0003	 1.57524160032922E-0001	
 1.08250000000000E+0003	 1.57411589794239E-0001	
 1.08450000000000E+0003	 1.56856519555556E-0001	
 1.08650000000000E+0003	 1.55697449316872E-0001	
 1.08850000000000E+0003	 1.53891379078189E-0001	
 1.09050000000000E+0003	 1.51615308839506E-0001	
 1.09250000000000E+0003	 1.49340238600823E-0001	
 1.09450000000000E+0003	 1.47457668362140E-0001	
 1.09650000000000E+0003	 1.46129098123457E-0001	
 1.09850000000000E+0003	 1.45170527884774E-0001	
 1.10050000000000E+0003	 1.44369957646091E-0001	
 1.10250000000000E+0003	 1.43537887407407E-0001	
 1.10450000000000E+0003	 1.42644817168724E-0001	
 1.10650000000000E+0003	 1.41730746930041E-0001	
 1.10850000000000E+0003	 1.40982676691358E-0001	
 1.11050000000000E+0003	 1.40510106452675E-0001	
 1.11250000000000E+0003	 1.40258536213992E-0001	
 1.11450000000000E+0003	 1.39996465975309E-0001	
 1.11650000000000E+0003	 1.39520395736626E-0001	
 1.11850000000000E+0003	 1.38775825497942E-0001	
 1.12050000000000E+0003	 1.37785755259259E-0001	
 1.12250000000000E+0003	 1.36555185020576E-0001	
 1.12450000000000E+0003	 1.35050114781893E-0001	
 1.12650000000000E+0003	 1.33259544543210E-0001	
 1.12850000000000E+0003	 1.31229474304527E-0001	
 1.13050000000000E+0003	 1.29063904065844E-0001	
 1.13250000000000E+0003	 1.26841333827160E-0001	
 1.13450000000000E+0003	 1.24650263588477E-0001	
 1.13650000000000E+0003	 1.22560693349794E-0001	
 1.13850000000000E+0003	 1.20700623111111E-0001	
 1.14050000000000E+0003	 1.19203052872428E-0001	
 1.14250000000000E+0003	 1.18146482633745E-0001	
 1.14450000000000E+0003	 1.17507912395062E-0001	
 1.14650000000000E+0003	 1.17174842156379E-0001	
 1.14850000000000E+0003	 1.16969771917695E-0001	
 1.15050000000000E+0003	 1.16785201679012E-0001	
 1.15250000000000E+0003	 1.16571131440329E-0001	
 1.15450000000000E+0003	 1.16287061201646E-0001	
 1.15650000000000E+0003	 1.15955490962963E-0001	
 1.15850000000000E+0003	 1.15579920724280E-0001	
 1.16050000000000E+0003	 1.15149850485597E-0001	
 1.16250000000000E+0003	 1.14554280246914E-0001	
 1.16450000000000E+0003	 1.13710710008230E-0001	
 1.16650000000000E+0003	 1.12596639769547E-0001	
 1.16850000000000E+0003	 1.11296069530864E-0001	
 1.17050000000000E+0003	 1.09867499292181E-0001	
 1.17250000000000E+0003	 1.08354429053498E-0001	
 1.17450000000000E+0003	 1.06757858814815E-0001	
 1.17650000000000E+0003	 1.05151288576132E-0001	
 1.17850000000000E+0003	 1.03564718337449E-0001	
 1.18050000000000E+0003	 1.02082648098765E-0001	
 1.18250000000000E+0003	 1.00780077860082E-0001	
 1.18450000000000E+0003	 9.97280076213992E-0002	
 1.18650000000000E+0003	 9.89439373827160E-0002	
 1.18850000000000E+0003	 9.84673671440329E-0002	
 1.19050000000000E+0003	 9.83047969053498E-0002	
 1.19250000000000E+0003	 9.84647266666667E-0002	
 1.19450000000000E+0003	 9.89351564279835E-0002	
 1.19650000000000E+0003	 9.96885861893004E-0002	
 1.19850000000000E+0003	 1.00661515950617E-0001	
 1.20050000000000E+0003	 1.01775945711934E-0001	
 1.20250000000000E+0003	 1.02941375473251E-0001	
 1.20450000000000E+0003	 1.04095305234568E-0001	
 1.20650000000000E+0003	 1.05161734995885E-0001	
 1.20850000000000E+0003	 1.06071164757202E-0001	
 1.21050000000000E+0003	 1.06835094518519E-0001	
 1.21250000000000E+0003	 1.07596024279835E-0001	
 1.21450000000000E+0003	 1.08442454041152E-0001	
 1.21650000000000E+0003	 1.09340383802469E-0001	
 1.21850000000000E+0003	 1.10180813563786E-0001	
 1.22050000000000E+0003	 1.10922243325103E-0001	
 1.22250000000000E+0003	 1.11561173086420E-0001	
 1.22450000000000E+0003	 1.12162602847737E-0001	
 1.22650000000000E+0003	 1.12781032609053E-0001	
 1.22850000000000E+0003	 1.13466962370370E-0001	
 1.23050000000000E+0003	 1.14196392131687E-0001	
 1.23250000000000E+0003	 1.14951821893004E-0001	
 1.23450000000000E+0003	 1.15641251654321E-0001	
 1.23650000000000E+0003	 1.16204681415638E-0001	
 1.23850000000000E+0003	 1.16595111176955E-0001	
 1.24050000000000E+0003	 1.16853040938272E-0001	
 1.24250000000000E+0003	 1.16965970699588E-0001	
 1.24450000000000E+0003	 1.16917900460905E-0001	
 1.24650000000000E+0003	 1.16657330222222E-0001	
 1.24850000000000E+0003	 1.16178759983539E-0001	
 1.25050000000000E+0003	 1.15495189744856E-0001	
 1.25250000000000E+0003	 1.14666619506173E-0001	
 1.25450000000000E+0003	 1.13747049267490E-0001	
 1.25650000000000E+0003	 1.12808479028807E-0001	
 1.25850000000000E+0003	 1.11854408790123E-0001	
 1.26050000000000E+0003	 1.10886838551440E-0001	
 1.26250000000000E+0003	 1.09875268312757E-0001	
 1.26450000000000E+0003	 1.08815198074074E-0001	
 1.26650000000000E+0003	 1.07762127835391E-0001	
 1.26850000000000E+0003	 1.06824057596708E-0001	
 1.27050000000000E+0003	 1.06037987358025E-0001	
 1.27250000000000E+0003	 1.05419417119342E-0001	
 1.27450000000000E+0003	 1.04928346880658E-0001	
 1.27650000000000E+0003	 1.04545276641975E-0001	
 1.27850000000000E+0003	 1.04291206403292E-0001	
 1.28050000000000E+0003	 1.04146636164609E-0001	
 1.28250000000000E+0003	 1.03927565925926E-0001	
 1.28450000000000E+0003	 1.03552995687243E-0001	
 1.28650000000000E+0003	 1.03103925448560E-0001	
 1.28850000000000E+0003	 1.02724855209877E-0001	
 1.29050000000000E+0003	 1.02490784971193E-0001	
 1.29250000000000E+0003	 1.02365714732510E-0001	
 1.29450000000000E+0003	 1.02283644493827E-0001	
 1.29650000000000E+0003	 1.02293574255144E-0001	
 1.29850000000000E+0003	 1.02454504016461E-0001	
 1.30050000000000E+0003	 1.02768433777778E-0001	
 1.30250000000000E+0003	 1.03160863539095E-0001	
 1.30450000000000E+0003	 1.03581793300412E-0001	
 1.30650000000000E+0003	 1.03977223061728E-0001	
 1.30850000000000E+0003	 1.04375152823045E-0001	
 1.31050000000000E+0003	 1.04732082584362E-0001	
 1.31250000000000E+0003	 1.05001012345679E-0001	
 1.31450000000000E+0003	 1.05199942106996E-0001	
 1.31650000000000E+0003	 1.05270371868313E-0001	
 1.31850000000000E+0003	 1.05151301629630E-0001	
 1.32050000000000E+0003	 1.04934231390947E-0001	
 1.32250000000000E+0003	 1.04606161152263E-0001	
 1.32450000000000E+0003	 1.04252090913580E-0001	
 1.32650000000000E+0003	 1.03957020674897E-0001	
 1.32850000000000E+0003	 1.03812950436214E-0001	
 1.33050000000000E+0003	 1.03829380197531E-0001	
 1.33250000000000E+0003	 1.03982309958848E-0001	
 1.33450000000000E+0003	 1.04094739720165E-0001	
 1.33650000000000E+0003	 1.04035169481481E-0001	
 1.33850000000000E+0003	 1.03816099242798E-0001	
 1.34050000000000E+0003	 1.03774029004115E-0001	
 1.34250000000000E+0003	 1.03846458765432E-0001	
 1.34450000000000E+0003	 1.03713388526749E-0001	
 1.34650000000000E+0003	 1.03449818288066E-0001	
 1.34850000000000E+0003	 1.03273248049383E-0001	
 1.35050000000000E+0003	 1.03231677810700E-0001	
 1.35250000000000E+0003	 1.03302607572016E-0001	
 1.35450000000000E+0003	 1.03398537333333E-0001	
 1.35650000000000E+0003	 1.03519467094650E-0001	
 1.35850000000000E+0003	 1.03643896855967E-0001	
 1.36050000000000E+0003	 1.03762326617284E-0001	
 1.36250000000000E+0003	 1.04056756378601E-0001	
 1.36450000000000E+0003	 1.04887186139918E-0001	
 1.36650000000000E+0003	 1.05950115901235E-0001	
 1.36850000000000E+0003	 1.07047045662551E-0001	
 1.37050000000000E+0003	 1.08091975423868E-0001	
 1.37250000000000E+0003	 1.08949905185185E-0001	
 1.37450000000000E+0003	 1.09812334946502E-0001	
 1.37650000000000E+0003	 1.10748764707819E-0001	
 1.37850000000000E+0003	 1.11501194469136E-0001	
 1.38050000000000E+0003	 1.12236124230453E-0001	
 1.38250000000000E+0003	 1.13011053991770E-0001	
 1.38450000000000E+0003	 1.13617483753086E-0001	
 1.38650000000000E+0003	 1.13872913514403E-0001	
 1.38850000000000E+0003	 1.14314343275720E-0001	
 1.39050000000000E+0003	 1.15096273037037E-0001	
 1.39250000000000E+0003	 1.15928202798354E-0001	
 1.39450000000000E+0003	 1.16718632559671E-0001	
 1.39650000000000E+0003	 1.17572562320988E-0001	
 1.39850000000000E+0003	 1.18399992082305E-0001	
 1.40050000000000E+0003	 1.19086421843621E-0001	
 1.40250000000000E+0003	 1.19265851604938E-0001	
 1.40450000000000E+0003	 1.18982781366255E-0001	
 1.40650000000000E+0003	 1.18540211127572E-0001	
 1.40850000000000E+0003	 1.17948140888889E-0001	
 1.41050000000000E+0003	 1.17237570650206E-0001	
 1.41250000000000E+0003	 1.16561000411523E-0001	
 1.41450000000000E+0003	 1.15939430172840E-0001	
 1.41650000000000E+0003	 1.15178859934156E-0001	
 1.41850000000000E+0003	 1.14439789695473E-0001	
 1.42050000000000E+0003	 1.13907219456790E-0001	
 1.42250000000000E+0003	 1.13583649218107E-0001	
 1.42450000000000E+0003	 1.13181078979424E-0001	
 1.42650000000000E+0003	 1.12644508740741E-0001	
 1.42850000000000E+0003	 1.12040438502058E-0001	
 1.43050000000000E+0003	 1.11564868263374E-0001	
 1.43250000000000E+0003	 1.11206798024691E-0001	
 1.43450000000000E+0003	 1.10963227786008E-0001	
 1.43650000000000E+0003	 1.10759657547325E-0001	
 1.43850000000000E+0003	 1.11121587308642E-0001	
 1.44050000000000E+0003	 1.11804517069959E-0001	
 1.44250000000000E+0003	 1.12409946831276E-0001	
 1.44450000000000E+0003	 1.12819376592593E-0001	
 1.44650000000000E+0003	 1.13198806353909E-0001	
 1.44850000000000E+0003	 1.13611236115226E-0001	
 1.45050000000000E+0003	 1.14057665876543E-0001	
 1.45250000000000E+0003	 1.14399595637860E-0001	
 1.45450000000000E+0003	 1.14361025399177E-0001	
 1.45650000000000E+0003	 1.13563955160494E-0001	
 1.45850000000000E+0003	 1.13057384921811E-0001	
 1.46050000000000E+0003	 1.12835814683128E-0001	
 1.46250000000000E+0003	 1.12376244444444E-0001	
 1.46450000000000E+0003	 1.11482174205761E-0001	
 1.46650000000000E+0003	 1.10537603967078E-0001	
 1.46850000000000E+0003	 1.09588033728395E-0001	
 1.47050000000000E+0003	 1.08315963489712E-0001	
 1.47250000000000E+0003	 1.06453893251029E-0001	
 1.47450000000000E+0003	 1.04725823012346E-0001	
 1.47650000000000E+0003	 1.03699752773663E-0001	
 1.47850000000000E+0003	 1.03082182534979E-0001	
 1.48050000000000E+0003	 1.02555612296296E-0001	
 1.48250000000000E+0003	 1.02171542057613E-0001	
 1.48450000000000E+0003	 1.01867471818930E-0001	
 1.48650000000000E+0003	 1.01630901580247E-0001	
 1.48850000000000E+0003	 1.01444331341564E-0001	
 1.49050000000000E+0003	 1.01678761102881E-0001	
 1.49250000000000E+0003	 1.02331690864198E-0001	
 1.49450000000000E+0003	 1.02960120625514E-0001	
 1.49650000000000E+0003	 1.03454050386831E-0001	
 1.49850000000000E+0003	 1.04381980148148E-0001	
 1.50050000000000E+0003	 1.05371909909465E-0001	
 1.50250000000000E+0003	 1.06396839670782E-0001	
 1.50450000000000E+0003	 1.07148769432099E-0001	
 1.50650000000000E+0003	 1.08075699193416E-0001	
 1.50850000000000E+0003	 1.09902128954733E-0001	
 1.51050000000000E+0003	 1.12370058716049E-0001	
 1.51250000000000E+0003	 1.14991988477366E-0001	
 1.51450000000000E+0003	 1.17279918238683E-0001	
 1.51650000000000E+0003	 1.19443848000000E-0001	
 1.51850000000000E+0003	 1.21398777761317E-0001	
 1.52050000000000E+0003	 1.22651707522634E-0001	
 1.52250000000000E+0003	 1.24501637283951E-0001	
 1.52450000000000E+0003	 1.26559567045267E-0001	
 1.52650000000000E+0003	 1.28786496806584E-0001	
 1.52850000000000E+0003	 1.31124926567901E-0001	
 1.53050000000000E+0003	 1.33212856329218E-0001	
 1.53250000000000E+0003	 1.35194286090535E-0001	
 1.53450000000000E+0003	 1.37564715851852E-0001	
 1.53650000000000E+0003	 1.39319645613169E-0001	
 1.53850000000000E+0003	 1.40668575374486E-0001	
 1.54050000000000E+0003	 1.42750005135802E-0001	
 1.54250000000000E+0003	 1.44400934897119E-0001	
 1.54450000000000E+0003	 1.45661864658436E-0001	
 1.54650000000000E+0003	 1.46692294419753E-0001	
 1.54850000000000E+0003	 1.46997224181070E-0001	
 1.55050000000000E+0003	 1.46662153942387E-0001	
 1.55250000000000E+0003	 1.45808083703704E-0001	
 1.55450000000000E+0003	 1.44325513465021E-0001	
 1.55650000000000E+0003	 1.42601943226337E-0001	
 1.55850000000000E+0003	 1.40429372987654E-0001	
 1.56050000000000E+0003	 1.38106802748971E-0001	
 1.56250000000000E+0003	 1.36438232510288E-0001	
 1.56450000000000E+0003	 1.35806162271605E-0001	
 1.56650000000000E+0003	 1.34539592032922E-0001	
 1.56850000000000E+0003	 1.33280021794239E-0001	
 1.57050000000000E+0003	 1.32142451555556E-0001	
 1.57250000000000E+0003	 1.31015881316872E-0001	
 1.57450000000000E+0003	 1.29911311078189E-0001	
 1.57650000000000E+0003	 1.28587240839506E-0001	
 1.57850000000000E+0003	 1.27585170600823E-0001	
 1.58050000000000E+0003	 1.27279600362140E-0001	
 1.58250000000000E+0003	 1.26764530123457E-0001	
 1.58450000000000E+0003	 1.26407459884774E-0001	
 1.58650000000000E+0003	 1.26293389646091E-0001	
 1.58850000000000E+0003	 1.26552319407407E-0001	
 1.59050000000000E+0003	 1.27084249168724E-0001	
 1.59250000000000E+0003	 1.27997178930041E-0001	
 1.59450000000000E+0003	 1.29146108691358E-0001	
 1.59650000000000E+0003	 1.30609038452675E-0001	
 1.59850000000000E+0003	 1.32197468213992E-0001	
 1.60050000000000E+0003	 1.34054897975309E-0001	
 1.60250000000000E+0003	 1.36126327736626E-0001	
 1.60450000000000E+0003	 1.38514757497942E-0001	
 1.60650000000000E+0003	 1.41063687259259E-0001	
 1.60850000000000E+0003	 1.44019117020576E-0001	
 1.61050000000000E+0003	 1.47323046781893E-0001	
 1.61250000000000E+0003	 1.50947976543210E-0001	
 1.61450000000000E+0003	 1.54505906304527E-0001	
 1.61650000000000E+0003	 1.58664836065844E-0001	
 1.61850000000000E+0003	 1.63319765827160E-0001	
 1.62050000000000E+0003	 1.67834695588477E-0001	
 1.62250000000000E+0003	 1.72753125349794E-0001	
 1.62450000000000E+0003	 1.78119055111111E-0001	
 1.62650000000000E+0003	 1.82989984872428E-0001	
 1.62850000000000E+0003	 1.88095914633745E-0001	
 1.63050000000000E+0003	 1.92952844395062E-0001	
 1.63250000000000E+0003	 1.97074274156379E-0001	
 1.63450000000000E+0003	 2.00748203917695E-0001	
 1.63650000000000E+0003	 2.04516133679012E-0001	
 1.63850000000000E+0003	 2.07213063440329E-0001	
 1.64050000000000E+0003	 2.09219993201646E-0001	
 1.64250000000000E+0003	 2.10704922962963E-0001	
 1.64450000000000E+0003	 2.11587852724280E-0001	
 1.64650000000000E+0003	 2.12552282485597E-0001	
 1.64850000000000E+0003	 2.13886712246914E-0001	
 1.65050000000000E+0003	 2.14597642008230E-0001	
 1.65250000000000E+0003	 2.14432071769547E-0001	
 1.65450000000000E+0003	 2.14575001530864E-0001	
 1.65650000000000E+0003	 2.14263431292181E-0001	
 1.65850000000000E+0003	 2.13656361053498E-0001	
 1.66050000000000E+0003	 2.11667790814815E-0001	
 1.66250000000000E+0003	 2.08916220576132E-0001	
 1.66450000000000E+0003	 2.05571150337449E-0001	
 1.66650000000000E+0003	 2.02190080098765E-0001	
 1.66850000000000E+0003	 1.98674009860082E-0001	
 1.67050000000000E+0003	 1.94957439621399E-0001	
 1.67250000000000E+0003	 1.91471369382716E-0001	
 1.67450000000000E+0003	 1.88123799144033E-0001	
 1.67650000000000E+0003	 1.84462228905350E-0001	
 1.67850000000000E+0003	 1.81136658666667E-0001	
 1.68050000000000E+0003	 1.78053588427984E-0001	
 1.68250000000000E+0003	 1.74862018189300E-0001	
 1.68450000000000E+0003	 1.71017447950617E-0001	
 1.68650000000000E+0003	 1.66982877711934E-0001	
 1.68850000000000E+0003	 1.64259307473251E-0001	
 1.69050000000000E+0003	 1.61385237234568E-0001	
 1.69250000000000E+0003	 1.58047666995885E-0001	
 1.69450000000000E+0003	 1.54308096757202E-0001	
 1.69650000000000E+0003	 1.49910026518519E-0001	
 1.69850000000000E+0003	 1.46638456279835E-0001	
 1.70050000000000E+0003	 1.43565886041152E-0001	
 1.70250000000000E+0003	 1.40511815802469E-0001	
 1.70450000000000E+0003	 1.38757245563786E-0001	
 1.70650000000000E+0003	 1.36931175325103E-0001	
 1.70850000000000E+0003	 1.34831105086420E-0001	
 1.71050000000000E+0003	 1.32956534847737E-0001	
 1.71250000000000E+0003	 1.31047964609053E-0001	
 1.71450000000000E+0003	 1.29014394370370E-0001	
 1.71650000000000E+0003	 1.26561324131687E-0001	
 1.71850000000000E+0003	 1.24050253893004E-0001	
 1.72050000000000E+0003	 1.22017183654321E-0001	
 1.72250000000000E+0003	 1.20249113415638E-0001	
 1.72450000000000E+0003	 1.18258543176955E-0001	
 1.72650000000000E+0003	 1.16316472938272E-0001	
 1.72850000000000E+0003	 1.14442902699588E-0001	
 1.73050000000000E+0003	 1.12770332460905E-0001	
 1.73250000000000E+0003	 1.11064762222222E-0001	
 1.73450000000000E+0003	 1.09461691983539E-0001	
 1.73650000000000E+0003	 1.08453121744856E-0001	
 1.73850000000000E+0003	 1.08134551506173E-0001	
 1.74050000000000E+0003	 1.07454481267490E-0001	
 1.74250000000000E+0003	 1.06372411028807E-0001	
 1.74450000000000E+0003	 1.05385340790123E-0001	
 1.74650000000000E+0003	 1.04444270551440E-0001	
 1.74850000000000E+0003	 1.03380200312757E-0001	
 1.75050000000000E+0003	 1.02058130074074E-0001	
 1.75250000000000E+0003	 1.00751559835391E-0001	
 1.75450000000000E+0003	 9.99484895967078E-0002	
 1.75650000000000E+0003	 9.90659193580247E-0002	
 1.75850000000000E+0003	 9.80248491193416E-0002	
 1.76050000000000E+0003	 9.70417788806584E-0002	
 1.76250000000000E+0003	 9.61607086419753E-0002	
 1.76450000000000E+0003	 9.52666384032922E-0002	
 1.76650000000000E+0003	 9.44630681646091E-0002	
 1.76850000000000E+0003	 9.35914979259259E-0002	
 1.77050000000000E+0003	 9.30519276872428E-0002	
 1.77250000000000E+0003	 9.25743574485597E-0002	
 1.77450000000000E+0003	 9.18302872098765E-0002	
 1.77650000000000E+0003	 9.14142169711934E-0002	
 1.77850000000000E+0003	 9.10851467325103E-0002	
 1.78050000000000E+0003	 9.06625764938272E-0002	
 1.78250000000000E+0003	 9.02940062551440E-0002	
 1.78450000000000E+0003	 8.98169360164609E-0002	
 1.78650000000000E+0003	 8.94718657777778E-0002	
 1.78850000000000E+0003	 8.91712955390947E-0002	
 1.79050000000000E+0003	 8.87917253004115E-0002	
 1.79250000000000E+0003	 8.84256550617284E-0002	
 1.79450000000000E+0003	 8.80710848230453E-0002	
 1.79650000000000E+0003	 8.78320145843621E-0002	
 1.79850000000000E+0003	 8.76734443456790E-0002	
 1.80050000000000E+0003	 8.73343741069959E-0002	
 1.80250000000000E+0003	 8.69938038683128E-0002	
 1.80450000000000E+0003	 8.68092336296296E-0002	
 1.80650000000000E+0003	 8.66496633909465E-0002	
 1.80850000000000E+0003	 8.63785931522634E-0002	
 1.81050000000000E+0003	 8.61640229135802E-0002	
 1.81250000000000E+0003	 8.59719526748971E-0002	
 1.81450000000000E+0003	 8.58033824362140E-0002	
 1.81650000000000E+0003	 8.55808121975309E-0002	
 1.81850000000000E+0003	 8.53972419588477E-0002	
 1.82050000000000E+0003	 8.52421717201646E-0002	
 1.82250000000000E+0003	 8.50326014814815E-0002	
 1.82450000000000E+0003	 8.47730312427984E-0002	
 1.82650000000000E+0003	 8.46224610041152E-0002	
 1.82850000000000E+0003	 8.45118907654321E-0002	
 1.83050000000000E+0003	 8.44943205267490E-0002	
 1.83250000000000E+0003	 8.42582502880658E-0002	
 1.83450000000000E+0003	 8.40931800493827E-0002	
 1.83650000000000E+0003	 8.40061098106996E-0002	
 1.83850000000000E+0003	 8.39100395720165E-0002	
 1.84050000000000E+0003	 8.37549693333333E-0002	
 1.84250000000000E+0003	 8.34913990946502E-0002	
 1.84450000000000E+0003	 8.32418288559671E-0002	
 1.84650000000000E+0003	 8.30777586172840E-0002	
 1.84850000000000E+0003	 8.31406883786008E-0002	
 1.85050000000000E+0003	 8.32296181399177E-0002	
 1.85250000000000E+0003	 8.32005479012346E-0002	
 1.85450000000000E+0003	 8.31369776625514E-0002	
 1.85650000000000E+0003	 8.30419074238683E-0002	
 1.85850000000000E+0003	 8.29438371851852E-0002	
 1.86050000000000E+0003	 8.28472669465021E-0002	
 1.86250000000000E+0003	 8.27811967078189E-0002	
 1.86450000000000E+0003	 8.27031264691358E-0002	
 1.86650000000000E+0003	 8.25795562304527E-0002	
 1.86850000000000E+0003	 8.24944859917695E-0002	
 1.87050000000000E+0003	 8.24349157530864E-0002	
 1.87250000000000E+0003	 8.23948455144033E-0002	
 1.87450000000000E+0003	 8.24517752757202E-0002	
 1.87650000000000E+0003	 8.24467050370370E-0002	
 1.87850000000000E+0003	 8.23996347983539E-0002	
 1.88050000000000E+0003	 8.23545645596708E-0002	
 1.88250000000000E+0003	 8.23174943209877E-0002	
 1.88450000000000E+0003	 8.22924240823045E-0002	
 1.88650000000000E+0003	 8.22438538436214E-0002	
 1.88850000000000E+0003	 8.21787836049383E-0002	
 1.89050000000000E+0003	 8.21687133662551E-0002	
 1.89250000000000E+0003	 8.21321431275720E-0002	
 1.89450000000000E+0003	 8.21025728888889E-0002	
 1.89650000000000E+0003	 8.21170026502058E-0002	
 1.89850000000000E+0003	 8.21134324115226E-0002	
 1.90050000000000E+0003	 8.21093621728395E-0002	
 1.90250000000000E+0003	 8.20947919341564E-0002	
 1.90450000000000E+0003	 8.20902216954733E-0002	
 1.90650000000000E+0003	 8.20546514567901E-0002	
 1.90850000000000E+0003	 8.20220812181070E-0002	
 1.91050000000000E+0003	 8.20330109794239E-0002	
 1.91250000000000E+0003	 8.20634407407407E-0002	
 1.91450000000000E+0003	 8.20543705020576E-0002	
 1.91650000000000E+0003	 8.20018002633745E-0002	
 1.91850000000000E+0003	 8.19642300246914E-0002	
 1.92050000000000E+0003	 8.19191597860082E-0002	
 1.92250000000000E+0003	 8.19155895473251E-0002	
 1.92450000000000E+0003	 8.19985193086420E-0002	
 1.92650000000000E+0003	 8.20404490699588E-0002	
 1.92850000000000E+0003	 8.20638788312757E-0002	
 1.93050000000000E+0003	 8.20543085925926E-0002	
 1.93250000000000E+0003	 8.20447383539095E-0002	
 1.93450000000000E+0003	 8.20361681152263E-0002	
 1.93650000000000E+0003	 8.20405978765432E-0002	
 1.93850000000000E+0003	 8.20335276378601E-0002	
 1.94050000000000E+0003	 8.19629573991770E-0002	
 1.94250000000000E+0003	 8.19163871604938E-0002	
 1.94450000000000E+0003	 8.19603169218107E-0002	
 1.94650000000000E+0003	 8.20137466831276E-0002	
 1.94850000000000E+0003	 8.20546764444444E-0002	
 1.95050000000000E+0003	 8.20596062057613E-0002	
 1.95250000000000E+0003	 8.20615359670782E-0002	
 1.95450000000000E+0003	 8.20584657283951E-0002	
 1.95650000000000E+0003	 8.20733954897119E-0002	
 1.95850000000000E+0003	 8.20913252510288E-0002	
 1.96050000000000E+0003	 8.20967550123457E-0002	
 1.96250000000000E+0003	 8.21091847736626E-0002	
 1.96450000000000E+0003	 8.20851145349794E-0002	
 1.96650000000000E+0003	 8.20495442962963E-0002	
 1.96850000000000E+0003	 8.20769740576132E-0002	
 1.97050000000000E+0003	 8.21314038189300E-0002	
 1.97250000000000E+0003	 8.21688335802469E-0002	
 1.97450000000000E+0003	 8.21952633415638E-0002	
 1.97650000000000E+0003	 8.22111931028807E-0002	
 1.97850000000000E+0003	 8.22316228641975E-0002	
 1.98050000000000E+0003	 8.22485526255144E-0002	
 1.98250000000000E+0003	 8.22689823868313E-0002	
 1.98450000000000E+0003	 8.22794121481481E-0002	
 1.98650000000000E+0003	 8.22788419094650E-0002	
 1.98850000000000E+0003	 8.22672716707819E-0002	
 1.99050000000000E+0003	 8.22462014320988E-0002	
 1.99250000000000E+0003	 8.22581311934156E-0002	
 1.99450000000000E+0003	 8.23305609547325E-0002	
 1.99650000000000E+0003	 8.23969907160494E-0002	
 1.99850000000000E+0003	 8.24439204773663E-0002	
 2.00050000000000E+0003	 8.24733502386831E-0002	
 2.00250000000000E+0003	 8.25037800000000E-0002	
 2.00450000000000E+0003	 8.25302097613169E-0002	
 2.00650000000000E+0003	 8.25566395226337E-0002	
 2.00850000000000E+0003	 8.25855692839506E-0002	
 2.01050000000000E+0003	 8.26259990452675E-0002	
 2.01250000000000E+0003	 8.26604288065844E-0002	
 2.01450000000000E+0003	 8.26683585679012E-0002	
 2.01650000000000E+0003	 8.26587883292181E-0002	
 2.01850000000000E+0003	 8.26977180905350E-0002	
 2.02050000000000E+0003	 8.27731478518519E-0002	
 2.02250000000000E+0003	 8.28400776131687E-0002	
 2.02450000000000E+0003	 8.28900073744856E-0002	
 2.02650000000000E+0003	 8.29419371358025E-0002	
 2.02850000000000E+0003	 8.29873668971193E-0002	
 2.03050000000000E+0003	 8.30262966584362E-0002	
 2.03250000000000E+0003	 8.30642264197531E-0002	
 2.03450000000000E+0003	 8.31016561810700E-0002	
 2.03650000000000E+0003	 8.31355859423868E-0002	
 2.03850000000000E+0003	 8.31615157037037E-0002	
 2.04050000000000E+0003	 8.31694454650206E-0002	
 2.04250000000000E+0003	 8.31983752263374E-0002	
 2.04450000000000E+0003	 8.32498049876543E-0002	
 2.04650000000000E+0003	 8.32912347489712E-0002	
 2.04850000000000E+0003	 8.33186645102881E-0002	
 2.05050000000000E+0003	 8.33465942716049E-0002	
 2.05250000000000E+0003	 8.33705240329218E-0002	
 2.05450000000000E+0003	 8.33904537942387E-0002	
 2.05650000000000E+0003	 8.34078835555556E-0002	
 2.05850000000000E+0003	 8.34213133168724E-0002	
 2.06050000000000E+0003	 8.34332430781893E-0002	
 2.06250000000000E+0003	 8.34381728395062E-0002	
 2.06450000000000E+0003	 8.34256026008230E-0002	
 2.06650000000000E+0003	 8.34435323621399E-0002	
 2.06850000000000E+0003	 8.34824621234568E-0002	
 2.07050000000000E+0003	 8.35103918847737E-0002	
 2.07250000000000E+0003	 8.35243216460905E-0002	
 2.07450000000000E+0003	 8.35372514074074E-0002	
 2.07650000000000E+0003	 8.35466811687243E-0002	
 2.07850000000000E+0003	 8.35561109300412E-0002	
 2.08050000000000E+0003	 8.35630406913580E-0002	
 2.08250000000000E+0003	 8.35709704526749E-0002	
 2.08450000000000E+0003	 8.35779002139918E-0002	
 2.08650000000000E+0003	 8.35833299753086E-0002	
 2.08850000000000E+0003	 8.35792597366255E-0002	
 2.09050000000000E+0003	 8.35801894979424E-0002	
 2.09250000000000E+0003	 8.35976192592593E-0002	
 2.09450000000000E+0003	 8.36160490205761E-0002	
 2.09650000000000E+0003	 8.36199787818930E-0002	
 2.09850000000000E+0003	 8.36219085432099E-0002	
 2.10050000000000E+0003	 8.36253383045267E-0002	
 2.10250000000000E+0003	 8.36252680658436E-0002	
 2.10450000000000E+0003	 8.36206978271605E-0002	
 2.10650000000000E+0003	 8.36231275884774E-0002	
 2.10850000000000E+0003	 8.36245573497942E-0002	
 2.11050000000000E+0003	 8.36239871111111E-0002	
 2.11250000000000E+0003	 8.36154168724280E-0002	
 2.11450000000000E+0003	 8.36073466337449E-0002	
 2.11650000000000E+0003	 8.36042763950617E-0002	
 2.11850000000000E+0003	 8.36077061563786E-0002	
 2.12050000000000E+0003	 8.36026359176955E-0002	
 2.12250000000000E+0003	 8.35925656790123E-0002	
 2.12450000000000E+0003	 8.35814954403292E-0002	
 2.12650000000000E+0003	 8.35764252016461E-0002	
 2.12850000000000E+0003	 8.35688549629630E-0002	
 2.13050000000000E+0003	 8.35567847242798E-0002	
 2.13250000000000E+0003	 8.35392144855967E-0002	
 2.13450000000000E+0003	 8.35176442469136E-0002	
 2.13650000000000E+0003	 8.34950740082305E-0002	
 2.13850000000000E+0003	 8.34755037695473E-0002	
 2.14050000000000E+0003	 8.34584335308642E-0002	
 2.14250000000000E+0003	 8.34368632921811E-0002	
 2.14450000000000E+0003	 8.34112930534979E-0002	
 2.14650000000000E+0003	 8.33832228148148E-0002	
 2.14850000000000E+0003	 8.33551525761317E-0002	
 2.15050000000000E+0003	 8.33280823374486E-0002	
 2.15250000000000E+0003	 8.33010120987654E-0002	
 2.15450000000000E+0003	 8.32789418600823E-0002	
 2.15650000000000E+0003	 8.32513716213992E-0002	
 2.15850000000000E+0003	 8.32148013827160E-0002	
 2.16050000000000E+0003	 8.31782311440329E-0002	
 2.16250000000000E+0003	 8.31456609053498E-0002	
 2.16450000000000E+0003	 8.31135906666667E-0002	
 2.16650000000000E+0003	 8.30810204279835E-0002	
 2.16850000000000E+0003	 8.30519501893004E-0002	
 2.17050000000000E+0003	 8.30153799506173E-0002	
 2.17250000000000E+0003	 8.29648097119342E-0002	
 2.17450000000000E+0003	 8.29197394732510E-0002	
 2.17650000000000E+0003	 8.28821692345679E-0002	
 2.17850000000000E+0003	 8.28415989958848E-0002	
 2.18050000000000E+0003	 8.27990287572016E-0002	
 2.18250000000000E+0003	 8.27604585185185E-0002	
 2.18450000000000E+0003	 8.27203882798354E-0002	
 2.18650000000000E+0003	 8.26773180411523E-0002	
 2.18850000000000E+0003	 8.26387478024691E-0002	
 2.19050000000000E+0003	 8.26051775637860E-0002	
 2.19250000000000E+0003	 8.25711073251029E-0002	
 2.19450000000000E+0003	 8.25390370864198E-0002	
 2.19650000000000E+0003	 8.25079668477366E-0002	
 2.19850000000000E+0003	 8.24728966090535E-0002	
 2.20050000000000E+0003	 8.24418263703704E-0002	
 2.20250000000000E+0003	 8.24112561316872E-0002	
 2.20450000000000E+0003	 8.23776858930041E-0002	
 2.20650000000000E+0003	 8.23446156543210E-0002	
 2.20850000000000E+0003	 8.23160454156379E-0002	
 2.21050000000000E+0003	 8.22879751769547E-0002	
 2.21250000000000E+0003	 8.22644049382716E-0002	
 2.21450000000000E+0003	 8.22378346995885E-0002	
 2.21650000000000E+0003	 8.22087644609053E-0002	
 2.21850000000000E+0003	 8.21786942222222E-0002	
 2.22050000000000E+0003	 8.21541239835391E-0002	
 2.22250000000000E+0003	 8.21315537448560E-0002	
 2.22450000000000E+0003	 8.21069835061728E-0002	
 2.22650000000000E+0003	 8.20749132674897E-0002	
 2.22850000000000E+0003	 8.20418430288066E-0002	
 2.23050000000000E+0003	 8.20157727901235E-0002	
 2.23250000000000E+0003	 8.19917025514403E-0002	
 2.23450000000000E+0003	 8.19651323127572E-0002	
 2.23650000000000E+0003	 8.19350620740741E-0002	
 2.23850000000000E+0003	 8.19079918353909E-0002	
 2.24050000000000E+0003	 8.18839215967078E-0002	
 2.24250000000000E+0003	 8.18593513580247E-0002	
 2.24450000000000E+0003	 8.18282811193416E-0002	
 2.24650000000000E+0003	 8.17992108806584E-0002	
 2.24850000000000E+0003	 8.17731406419753E-0002	
 2.25050000000000E+0003	 8.17480704032922E-0002	
 2.25250000000000E+0003	 8.17170001646091E-0002	
 2.25450000000000E+0003	 8.16869299259259E-0002	
 2.25650000000000E+0003	 8.16598596872428E-0002	
 2.25850000000000E+0003	 8.16347894485597E-0002	
 2.26050000000000E+0003	 8.16112192098765E-0002	
 2.26250000000000E+0003	 8.15886489711934E-0002	
 2.26450000000000E+0003	 8.15610787325103E-0002	
 2.26650000000000E+0003	 8.15320084938272E-0002	
 2.26850000000000E+0003	 8.15044382551440E-0002	
 2.27050000000000E+0003	 8.14823680164609E-0002	
 2.27250000000000E+0003	 8.14622977777778E-0002	
 2.27450000000000E+0003	 8.14447275390947E-0002	
 2.27650000000000E+0003	 8.14301573004115E-0002	
 2.27850000000000E+0003	 8.14185870617284E-0002	
 2.28050000000000E+0003	 8.14085168230453E-0002	
 2.28250000000000E+0003	 8.13884465843621E-0002	
 2.28450000000000E+0003	 8.13463763456790E-0002	
 2.28650000000000E+0003	 8.13078061069959E-0002	
 2.28850000000000E+0003	 8.12697358683128E-0002	
 2.29050000000000E+0003	 8.12291656296296E-0002	
 2.29250000000000E+0003	 8.11815953909465E-0002	
 2.29450000000000E+0003	 8.11350251522634E-0002	
 2.29650000000000E+0003	 8.10954549135802E-0002	
 2.29850000000000E+0003	 8.10623846748971E-0002	
 2.30050000000000E+0003	 8.10418144362140E-0002	
 2.30250000000000E+0003	 8.10497441975309E-0002	
 2.30450000000000E+0003	 8.10416739588477E-0002	
 2.30650000000000E+0003	 8.10026037201646E-0002	
 2.30850000000000E+0003	 8.09760334814815E-0002	
 2.31050000000000E+0003	 8.09894632427984E-0002	
 2.31250000000000E+0003	 8.10663930041152E-0002	
 2.31450000000000E+0003	 8.11633227654321E-0002	
 2.31650000000000E+0003	 8.11262525267490E-0002	
 2.31850000000000E+0003	 8.10186822880658E-0002	
 2.32050000000000E+0003	 8.09691120493827E-0002	
 2.32250000000000E+0003	 8.09615418106996E-0002	
 2.32450000000000E+0003	 8.09814715720165E-0002	
 2.32650000000000E+0003	 8.08854013333333E-0002	
 2.32850000000000E+0003	 8.08168310946502E-0002	
 2.33050000000000E+0003	 8.08987608559671E-0002	
 2.33250000000000E+0003	 8.09676906172840E-0002	
 2.33450000000000E+0003	 8.09116203786008E-0002	
 2.33650000000000E+0003	 8.08725501399177E-0002	
 2.33850000000000E+0003	 8.08954799012346E-0002	
 2.34050000000000E+0003	 8.08654096625514E-0002	
 2.34250000000000E+0003	 8.08098394238683E-0002	
 2.34450000000000E+0003	 8.09332691851852E-0002	
 2.34650000000000E+0003	 8.13056989465021E-0002	
 2.34850000000000E+0003	 8.04561287078189E-0002	
 2.35050000000000E+0003	 7.95705584691358E-0002	
 2.35250000000000E+0003	 8.04149882304527E-0002	
 2.35450000000000E+0003	 8.10689179917695E-0002	
 2.35650000000000E+0003	 8.09118477530864E-0002	
 2.35850000000000E+0003	 8.07847775144033E-0002	
 2.36050000000000E+0003	 8.08537072757202E-0002	
 2.36250000000000E+0003	 8.09456370370370E-0002	
 2.36450000000000E+0003	 8.10320667983539E-0002	
 2.36650000000000E+0003	 8.11404965596708E-0002	
 2.36850000000000E+0003	 8.12564263209877E-0002	
 2.37050000000000E+0003	 8.13808560823045E-0002	
 2.37250000000000E+0003	 8.15152858436214E-0002	
 2.37450000000000E+0003	 8.16422156049383E-0002	
 2.37650000000000E+0003	 8.16911453662551E-0002	
 2.37850000000000E+0003	 8.16125751275720E-0002	
 2.38050000000000E+0003	 8.14890048888889E-0002	
 2.38250000000000E+0003	 8.14439346502058E-0002	
 2.38450000000000E+0003	 8.15018644115226E-0002	
 2.38650000000000E+0003	 8.16012941728395E-0002	
 2.38850000000000E+0003	 8.16912239341564E-0002	
 2.39050000000000E+0003	 8.17606536954733E-0002	
 2.39250000000000E+0003	 8.18095834567901E-0002	
 2.39450000000000E+0003	 8.18470132181070E-0002	
 2.39650000000000E+0003	 8.18774429794239E-0002	
 2.39850000000000E+0003	 8.19048727407407E-0002	
 2.40050000000000E+0003	 8.19263025020576E-0002	
 2.40250000000000E+0003	 8.19447322633745E-0002	
 2.40450000000000E+0003	 8.19551620246914E-0002	
 2.40650000000000E+0003	 8.19555917860082E-0002	
 2.40850000000000E+0003	 8.19535215473251E-0002	
 2.41050000000000E+0003	 8.19524513086420E-0002	
 2.41250000000000E+0003	 8.19503810699588E-0002	
 2.41450000000000E+0003	 8.19513108312757E-0002	
 2.41650000000000E+0003	 8.19502405925926E-0002	
 2.41850000000000E+0003	 8.19506703539095E-0002	
 2.42050000000000E+0003	 8.19501001152263E-0002	
 2.42250000000000E+0003	 8.19540298765432E-0002	
 2.42450000000000E+0003	 8.19579596378601E-0002	
 2.42650000000000E+0003	 8.19593893991770E-0002	
 2.42850000000000E+0003	 8.19568191604938E-0002	
 2.43050000000000E+0003	 8.19567489218107E-0002	
 2.43250000000000E+0003	 8.19551786831276E-0002	
 2.43450000000000E+0003	 8.19516084444444E-0002	
 2.43650000000000E+0003	 8.19505382057613E-0002	
 2.43850000000000E+0003	 8.19539679670782E-0002	
 2.44050000000000E+0003	 8.19543977283951E-0002	
 2.44250000000000E+0003	 8.19543274897119E-0002	
 2.44450000000000E+0003	 8.19552572510288E-0002	
 2.44650000000000E+0003	 8.19551870123457E-0002	
 2.44850000000000E+0003	 8.19556167736626E-0002	
 2.45050000000000E+0003	 8.19545465349794E-0002	
 2.45250000000000E+0003	 8.19519762962963E-0002	
 2.45450000000000E+0003	 8.19514060576132E-0002	
 2.45650000000000E+0003	 8.19498358189300E-0002	
 2.45850000000000E+0003	 8.19497655802469E-0002	
 2.46050000000000E+0003	 8.19526953415638E-0002	
 2.46250000000000E+0003	 8.19531251028807E-0002	
 2.46450000000000E+0003	 8.19520548641975E-0002	
 2.46650000000000E+0003	 8.19534846255144E-0002	
 2.46850000000000E+0003	 8.19579143868313E-0002	
 2.47050000000000E+0003	 8.19618441481481E-0002	
 2.47250000000000E+0003	 8.19617739094650E-0002	
 2.47450000000000E+0003	 8.19647036707819E-0002	
 2.47650000000000E+0003	 8.19711334320988E-0002	
 2.47850000000000E+0003	 8.19765631934156E-0002	
 2.48050000000000E+0003	 8.19794929547325E-0002	
 2.48250000000000E+0003	 8.19854227160494E-0002	
 2.48450000000000E+0003	 8.19943524773663E-0002	
 2.48650000000000E+0003	 8.20022822386831E-0002	
 2.48850000000000E+0003	 8.20072120000000E-0002	
 2.49050000000000E+0003	 8.20131417613169E-0002	
 2.49250000000000E+0003	 8.20210715226337E-0002	
 2.49450000000000E+0003	 8.20310012839506E-0002	
 2.49650000000000E+0003	 8.20404310452675E-0002	
 2.49850000000000E+0003	 8.20508608065844E-0002	
 2.50050000000000E+0003	 8.20577905679012E-0002	
 2.50250000000000E+0003	 8.20672203292181E-0002	
 2.50450000000000E+0003	 8.20816500905350E-0002	
 2.50650000000000E+0003	 8.20945798518519E-0002	
 2.50850000000000E+0003	 8.21025096131687E-0002	
 2.51050000000000E+0003	 8.21054393744856E-0002	
 2.51250000000000E+0003	 8.21038691358025E-0002	
 2.51450000000000E+0003	 8.21012988971193E-0002	
 2.51650000000000E+0003	 8.20992286584362E-0002	
 2.51850000000000E+0003	 8.20901584197531E-0002	
 2.52050000000000E+0003	 8.20785881810700E-0002	
 2.52250000000000E+0003	 8.20705179423868E-0002	
 2.52450000000000E+0003	 8.20654477037037E-0002	
 2.52650000000000E+0003	 8.20563774650206E-0002	
 2.52850000000000E+0003	 8.20448072263374E-0002	
 2.53050000000000E+0003	 8.20367369876543E-0002	
 2.53250000000000E+0003	 8.20291667489712E-0002	
 2.53450000000000E+0003	 8.20210965102881E-0002	
 2.53650000000000E+0003	 8.20115262716049E-0002	
 2.53850000000000E+0003	 8.20024560329218E-0002	
 2.54050000000000E+0003	 8.19943857942387E-0002	
 2.54250000000000E+0003	 8.19918155555556E-0002	
 2.54450000000000E+0003	 8.19832453168724E-0002	
 2.54650000000000E+0003	 8.19746750781893E-0002	
 2.54850000000000E+0003	 8.19661048395062E-0002	
 2.55050000000000E+0003	 8.19610346008230E-0002	
 2.55250000000000E+0003	 8.19529643621399E-0002	
 2.55450000000000E+0003	 8.19508941234568E-0002	
 2.55650000000000E+0003	 8.19498238847737E-0002	
 2.55850000000000E+0003	 8.19497536460905E-0002	
 2.56050000000000E+0003	 8.19491834074074E-0002	
 2.56250000000000E+0003	 8.19531131687243E-0002	
 2.56450000000000E+0003	 8.19525429300412E-0002	
 2.56650000000000E+0003	 8.19489726913580E-0002	
 2.56850000000000E+0003	 8.19464024526749E-0002	
 2.57050000000000E+0003	 8.19473322139918E-0002	
 2.57250000000000E+0003	 8.19447619753086E-0002	
 2.57450000000000E+0003	 8.19431917366255E-0002	
 2.57650000000000E+0003	 8.19436214979424E-0002	
 2.57850000000000E+0003	 8.19440512592593E-0002	
 2.58050000000000E+0003	 8.19454810205761E-0002	
 2.58250000000000E+0003	 8.19464107818930E-0002	
 2.58450000000000E+0003	 8.19443405432099E-0002	
 2.58650000000000E+0003	 8.19427703045267E-0002	
 2.58850000000000E+0003	 8.19452000658436E-0002	
 2.59050000000000E+0003	 8.19486298271605E-0002	
 2.59250000000000E+0003	 8.19475595884774E-0002	
 2.59450000000000E+0003	 8.19439893497942E-0002	
 2.59650000000000E+0003	 8.19419191111111E-0002	
 2.59850000000000E+0003	 8.19463488724280E-0002	
 2.60050000000000E+0003	 8.19487786337449E-0002	
 2.60250000000000E+0003	 8.19487083950617E-0002	
 2.60450000000000E+0003	 8.19461381563786E-0002	
 2.60650000000000E+0003	 8.19430679176955E-0002	
 2.60850000000000E+0003	 8.19454976790123E-0002	
 2.61050000000000E+0003	 8.19509274403292E-0002	
 2.61250000000000E+0003	 8.19473572016461E-0002	
 2.61450000000000E+0003	 8.19467869629630E-0002	
 2.61650000000000E+0003	 8.19487167242798E-0002	
 2.61850000000000E+0003	 8.19516464855967E-0002	
 2.62050000000000E+0003	 8.19520762469136E-0002	
 2.62250000000000E+0003	 8.19550060082305E-0002	
 2.62450000000000E+0003	 8.19599357695473E-0002	
 2.62650000000000E+0003	 8.19688655308642E-0002	
 2.62850000000000E+0003	 8.19717952921811E-0002	
 2.63050000000000E+0003	 8.19727250534979E-0002	
 2.63250000000000E+0003	 8.19801548148148E-0002	
 2.63450000000000E+0003	 8.19910845761317E-0002	
 2.63650000000000E+0003	 8.19985143374486E-0002	
 2.63850000000000E+0003	 8.20089440987654E-0002	
 2.64050000000000E+0003	 8.20123738600823E-0002	
 2.64250000000000E+0003	 8.20163036213992E-0002	
 2.64450000000000E+0003	 8.20242333827160E-0002	
 2.64650000000000E+0003	 8.20336631440329E-0002	
 2.64850000000000E+0003	 8.20445929053498E-0002	
 2.65050000000000E+0003	 8.20560226666667E-0002	
 2.65250000000000E+0003	 8.20664524279835E-0002	
 2.65450000000000E+0003	 8.20778821893004E-0002	
 2.65650000000000E+0003	 8.20873119506173E-0002	
 2.65850000000000E+0003	 8.20997417119342E-0002	
 2.66050000000000E+0003	 8.21086714732510E-0002	
 2.66250000000000E+0003	 8.21191012345679E-0002	
 2.66450000000000E+0003	 8.21320309958848E-0002	
 2.66650000000000E+0003	 8.21469607572016E-0002	
 2.66850000000000E+0003	 8.21608905185185E-0002	
 2.67050000000000E+0003	 8.21803202798354E-0002	
 2.67250000000000E+0003	 8.22082500411523E-0002	
 2.67450000000000E+0003	 8.22391798024691E-0002	
 2.67650000000000E+0003	 8.22701095637860E-0002	
 2.67850000000000E+0003	 8.23025393251029E-0002	
 2.68050000000000E+0003	 8.23224690864198E-0002	
 2.68250000000000E+0003	 8.23253988477366E-0002	
 2.68450000000000E+0003	 8.23298286090535E-0002	
 2.68650000000000E+0003	 8.23497583703704E-0002	
 2.68850000000000E+0003	 8.23721881316872E-0002	
 2.69050000000000E+0003	 8.24006178930041E-0002	
 2.69250000000000E+0003	 8.24320476543210E-0002	
 2.69450000000000E+0003	 8.24599774156379E-0002	
 2.69650000000000E+0003	 8.24889071769547E-0002	
 2.69850000000000E+0003	 8.25278369382716E-0002	
 2.70050000000000E+0003	 8.25677666995885E-0002	
 2.70250000000000E+0003	 8.26041964609053E-0002	
 2.70450000000000E+0003	 8.26456262222222E-0002	
 2.70650000000000E+0003	 8.26950559835391E-0002	
 2.70850000000000E+0003	 8.27479857448560E-0002	
 2.71050000000000E+0003	 8.28054155061728E-0002	
 2.71250000000000E+0003	 8.28648452674897E-0002	
 2.71450000000000E+0003	 8.29237750288066E-0002	
 2.71650000000000E+0003	 8.29812047901235E-0002	
 2.71850000000000E+0003	 8.30461345514403E-0002	
 2.72050000000000E+0003	 8.31255643127572E-0002	
 2.72250000000000E+0003	 8.32109940740741E-0002	
 2.72450000000000E+0003	 8.32929238353909E-0002	
 2.72650000000000E+0003	 8.33713535967078E-0002	
 2.72850000000000E+0003	 8.34172833580247E-0002	
 2.73050000000000E+0003	 8.34587131193416E-0002	
 2.73250000000000E+0003	 8.35166428806584E-0002	
 2.73450000000000E+0003	 8.35845726419753E-0002	
 2.73650000000000E+0003	 8.36545024032922E-0002	
 2.73850000000000E+0003	 8.37149321646091E-0002	
 2.74050000000000E+0003	 8.37598619259259E-0002	
 2.74250000000000E+0003	 8.38067916872428E-0002	
 2.74450000000000E+0003	 8.38592214485597E-0002	
 2.74650000000000E+0003	 8.39311512098765E-0002	
 2.74850000000000E+0003	 8.39985809711934E-0002	
 2.75050000000000E+0003	 8.40380107325103E-0002	
 2.75250000000000E+0003	 8.40639404938272E-0002	
 2.75450000000000E+0003	 8.41083702551440E-0002	
 2.75650000000000E+0003	 8.41628000164609E-0002	
 2.75850000000000E+0003	 8.42227297777778E-0002	
 2.76050000000000E+0003	 8.42826595390947E-0002	
 2.76250000000000E+0003	 8.43490893004115E-0002	
 2.76450000000000E+0003	 8.44195190617284E-0002	
 2.76650000000000E+0003	 8.44934488230453E-0002	
 2.76850000000000E+0003	 8.45648785843621E-0002	
 2.77050000000000E+0003	 8.46373083456790E-0002	
 2.77250000000000E+0003	 8.47217381069959E-0002	
 2.77450000000000E+0003	 8.48261678683128E-0002	
 2.77650000000000E+0003	 8.48985976296296E-0002	
 2.77850000000000E+0003	 8.49470273909465E-0002	
 2.78050000000000E+0003	 8.50164571522634E-0002	
 2.78250000000000E+0003	 8.51083869135802E-0002	
 2.78450000000000E+0003	 8.52058166748971E-0002	
 2.78650000000000E+0003	 8.53252464362140E-0002	
 2.78850000000000E+0003	 8.54761761975309E-0002	
 2.79050000000000E+0003	 8.56026059588477E-0002	
 2.79250000000000E+0003	 8.56910357201646E-0002	
 2.79450000000000E+0003	 8.57979654814815E-0002	
 2.79650000000000E+0003	 8.59418952427984E-0002	
 2.79850000000000E+0003	 8.60973250041152E-0002	
 2.80050000000000E+0003	 8.62182547654321E-0002	
 2.80250000000000E+0003	 8.63351845267490E-0002	
 2.80450000000000E+0003	 8.64836142880658E-0002	
 2.80650000000000E+0003	 8.66490440493827E-0002	
 2.80850000000000E+0003	 8.68324738106996E-0002	
 2.81050000000000E+0003	 8.70129035720165E-0002	
 2.81250000000000E+0003	 8.71658333333333E-0002	
 2.81450000000000E+0003	 8.73267630946502E-0002	
 2.81650000000000E+0003	 8.75116928559671E-0002	
 2.81850000000000E+0003	 8.77096226172840E-0002	
 2.82050000000000E+0003	 8.79125523786008E-0002	
 2.82250000000000E+0003	 8.81234821399177E-0002	
 2.82450000000000E+0003	 8.83429119012346E-0002	
 2.82650000000000E+0003	 8.85678416625514E-0002	
 2.82850000000000E+0003	 8.88067714238683E-0002	
 2.83050000000000E+0003	 8.90737011851852E-0002	
 2.83250000000000E+0003	 8.93756309465021E-0002	
 2.83450000000000E+0003	 8.97185607078189E-0002	
 2.83650000000000E+0003	 9.01244904691358E-0002	
 2.83850000000000E+0003	 9.06074202304527E-0002	
 2.84050000000000E+0003	 9.10863499917695E-0002	
 2.84250000000000E+0003	 9.16477797530864E-0002	
 2.84450000000000E+0003	 9.24417095144033E-0002	
 2.84650000000000E+0003	 9.34826392757202E-0002	
 2.84850000000000E+0003	 9.46670690370370E-0002	
 2.85050000000000E+0003	 9.58339987983539E-0002	
 2.85250000000000E+0003	 9.68304285596708E-0002	
 2.85450000000000E+0003	 9.75273583209877E-0002	
 2.85650000000000E+0003	 9.79132880823045E-0002	
 2.85850000000000E+0003	 9.81207178436214E-0002	
 2.86050000000000E+0003	 9.82636476049383E-0002	
 2.86250000000000E+0003	 9.84365773662551E-0002	
 2.86450000000000E+0003	 9.87580071275720E-0002	
 2.86650000000000E+0003	 9.92484368888889E-0002	
 2.86850000000000E+0003	 9.98418666502058E-0002	
 2.87050000000000E+0003	 1.00513796411523E-0001	
 2.87250000000000E+0003	 1.01193226172840E-0001	
 2.87450000000000E+0003	 1.01651155934156E-0001	
 2.87650000000000E+0003	 1.01825085695473E-0001	
 2.87850000000000E+0003	 1.01907515456790E-0001	
 2.88050000000000E+0003	 1.01969445218107E-0001	
 2.88250000000000E+0003	 1.02031374979424E-0001	
 2.88450000000000E+0003	 1.02135304740741E-0001	
 2.88650000000000E+0003	 1.02312234502058E-0001	
 2.88850000000000E+0003	 1.02565164263374E-0001	
 2.89050000000000E+0003	 1.02891094024691E-0001	
 2.89250000000000E+0003	 1.03291023786008E-0001	
 2.89450000000000E+0003	 1.03770953547325E-0001	
 2.89650000000000E+0003	 1.04274383308642E-0001	
 2.89850000000000E+0003	 1.04745313069959E-0001	
 2.90050000000000E+0003	 1.05229242831276E-0001	
 2.90250000000000E+0003	 1.05752172592593E-0001	
 2.90450000000000E+0003	 1.06308102353909E-0001	
 2.90650000000000E+0003	 1.06906032115226E-0001	
 2.90850000000000E+0003	 1.07608961876543E-0001	
 2.91050000000000E+0003	 1.08469391637860E-0001	
 2.91250000000000E+0003	 1.09501821399177E-0001	
 2.91450000000000E+0003	 1.10597251160494E-0001	
 2.91650000000000E+0003	 1.11675680921811E-0001	
 2.91850000000000E+0003	 1.12756610683128E-0001	
 2.92050000000000E+0003	 1.13778540444444E-0001	
 2.92250000000000E+0003	 1.14682470205761E-0001	
 2.92450000000000E+0003	 1.15393399967078E-0001	
 2.92650000000000E+0003	 1.15900329728395E-0001	
 2.92850000000000E+0003	 1.16264259489712E-0001	
 2.93050000000000E+0003	 1.16428689251029E-0001	
 2.93250000000000E+0003	 1.16347619012346E-0001	
 2.93450000000000E+0003	 1.16153548773663E-0001	
 2.93650000000000E+0003	 1.15862978534979E-0001	
 2.93850000000000E+0003	 1.15444408296296E-0001	
 2.94050000000000E+0003	 1.14933338057613E-0001	
 2.94250000000000E+0003	 1.14422767818930E-0001	
 2.94450000000000E+0003	 1.13897197580247E-0001	
 2.94650000000000E+0003	 1.13335627341564E-0001	
 2.94850000000000E+0003	 1.12820057102881E-0001	
 2.95050000000000E+0003	 1.12528986864198E-0001	
 2.95250000000000E+0003	 1.12520916625514E-0001	
 2.95450000000000E+0003	 1.12631846386831E-0001	
 2.95650000000000E+0003	 1.12815276148148E-0001	
 2.95850000000000E+0003	 1.13050705909465E-0001	
 2.96050000000000E+0003	 1.13223635670782E-0001	
 2.96250000000000E+0003	 1.13242565432099E-0001	
 2.96450000000000E+0003	 1.13037495193416E-0001	
 2.96650000000000E+0003	 1.12617924954733E-0001	
 2.96850000000000E+0003	 1.12007354716049E-0001	
 2.97050000000000E+0003	 1.11251284477366E-0001	
 2.97250000000000E+0003	 1.10447214238683E-0001	
 2.97450000000000E+0003	 1.09654144000000E-0001	
 2.97650000000000E+0003	 1.08874073761317E-0001	
 2.97850000000000E+0003	 1.08181503522634E-0001	
 2.98050000000000E+0003	 1.07558933283951E-0001	
 2.98250000000000E+0003	 1.06906863045267E-0001	
 2.98450000000000E+0003	 1.06262792806584E-0001	
 2.98650000000000E+0003	 1.05705222567901E-0001	
 2.98850000000000E+0003	 1.05233152329218E-0001	
 2.99050000000000E+0003	 1.04862082090535E-0001	
 2.99250000000000E+0003	 1.04543011851852E-0001	
 2.99450000000000E+0003	 1.04192441613169E-0001	
 2.99650000000000E+0003	 1.03919871374486E-0001	
 2.99850000000000E+0003	 1.03729301135802E-0001	
 3.00050000000000E+0003	 1.03554230897119E-0001	
 3.00250000000000E+0003	 1.03481660658436E-0001	
 3.00450000000000E+0003	 1.03508590419753E-0001	
 3.00650000000000E+0003	 1.03595520181070E-0001	
 3.00850000000000E+0003	 1.03794949942387E-0001	
 3.01050000000000E+0003	 1.04154379703704E-0001	
 3.01250000000000E+0003	 1.04550809465021E-0001	
 3.01450000000000E+0003	 1.04849239226337E-0001	
 3.01650000000000E+0003	 1.05063168987654E-0001	
 3.01850000000000E+0003	 1.05311598748971E-0001	
 3.02050000000000E+0003	 1.05629028510288E-0001	
 3.02250000000000E+0003	 1.06030958271605E-0001	
 3.02450000000000E+0003	 1.06511888032922E-0001	
 3.02650000000000E+0003	 1.06972817794239E-0001	
 3.02850000000000E+0003	 1.07437747555556E-0001	
 3.03050000000000E+0003	 1.07965677316872E-0001	
 3.03250000000000E+0003	 1.08535607078189E-0001	
 3.03450000000000E+0003	 1.09086036839506E-0001	
 3.03650000000000E+0003	 1.09537966600823E-0001	
 3.03850000000000E+0003	 1.10030896362140E-0001	
 3.04050000000000E+0003	 1.10676826123457E-0001	
 3.04250000000000E+0003	 1.11325755884774E-0001	
 3.04450000000000E+0003	 1.11863185646091E-0001	
 3.04650000000000E+0003	 1.12347115407407E-0001	
 3.04850000000000E+0003	 1.12894545168724E-0001	
 3.05050000000000E+0003	 1.13545974930041E-0001	
 3.05250000000000E+0003	 1.14163904691358E-0001	
 3.05450000000000E+0003	 1.14757334452675E-0001	
 3.05650000000000E+0003	 1.15366264213992E-0001	
 3.05850000000000E+0003	 1.15944193975309E-0001	
 3.06050000000000E+0003	 1.16514123736626E-0001	
 3.06250000000000E+0003	 1.17120053497942E-0001	
 3.06450000000000E+0003	 1.17749983259259E-0001	
 3.06650000000000E+0003	 1.18390413020576E-0001	
 3.06850000000000E+0003	 1.18929842781893E-0001	
 3.07050000000000E+0003	 1.19369272543210E-0001	
 3.07250000000000E+0003	 1.19831202304527E-0001	
 3.07450000000000E+0003	 1.20369132065844E-0001	
 3.07650000000000E+0003	 1.21002061827160E-0001	
 3.07850000000000E+0003	 1.21645991588477E-0001	
 3.08050000000000E+0003	 1.22159421349794E-0001	
 3.08250000000000E+0003	 1.22611351111111E-0001	
 3.08450000000000E+0003	 1.23072780872428E-0001	
 3.08650000000000E+0003	 1.23498710633745E-0001	
 3.08850000000000E+0003	 1.23949640395062E-0001	
 3.09050000000000E+0003	 1.24431570156379E-0001	
 3.09250000000000E+0003	 1.24837999917695E-0001	
 3.09450000000000E+0003	 1.25232429679012E-0001	
 3.09650000000000E+0003	 1.25692359440329E-0001	
 3.09850000000000E+0003	 1.26209789201646E-0001	
 3.10050000000000E+0003	 1.26715718962963E-0001	
 3.10250000000000E+0003	 1.27161148724280E-0001	
 3.10450000000000E+0003	 1.27616578485597E-0001	
 3.10650000000000E+0003	 1.28174008246914E-0001	
 3.10850000000000E+0003	 1.28773938008230E-0001	
 3.11050000000000E+0003	 1.29275367769547E-0001	
 3.11250000000000E+0003	 1.29781297530864E-0001	
 3.11450000000000E+0003	 1.30461227292181E-0001	
 3.11650000000000E+0003	 1.31194657053498E-0001	
 3.11850000000000E+0003	 1.31846086814815E-0001	
 3.12050000000000E+0003	 1.32396516576132E-0001	
 3.12250000000000E+0003	 1.32845946337449E-0001	
 3.12450000000000E+0003	 1.33346376098765E-0001	
 3.12650000000000E+0003	 1.33995305860082E-0001	
 3.12850000000000E+0003	 1.34729235621399E-0001	
 3.13050000000000E+0003	 1.35449165382716E-0001	
 3.13250000000000E+0003	 1.36130095144033E-0001	
 3.13450000000000E+0003	 1.36856024905350E-0001	
 3.13650000000000E+0003	 1.37684454666667E-0001	
 3.13850000000000E+0003	 1.38583384427984E-0001	
 3.14050000000000E+0003	 1.39374814189300E-0001	
 3.14250000000000E+0003	 1.40072743950617E-0001	
 3.14450000000000E+0003	 1.40842673711934E-0001	
 3.14650000000000E+0003	 1.41697103473251E-0001	
 3.14850000000000E+0003	 1.42617033234568E-0001	
 3.15050000000000E+0003	 1.43675462995885E-0001	
 3.15250000000000E+0003	 1.44735892757202E-0001	
 3.15450000000000E+0003	 1.45589322518519E-0001	
 3.15650000000000E+0003	 1.46398752279835E-0001	
 3.15850000000000E+0003	 1.47327682041152E-0001	
 3.16050000000000E+0003	 1.48322611802469E-0001	
 3.16250000000000E+0003	 1.49348041563786E-0001	
 3.16450000000000E+0003	 1.50395471325103E-0001	
 3.16650000000000E+0003	 1.51456401086420E-0001	
 3.16850000000000E+0003	 1.52522330847737E-0001	
 3.17050000000000E+0003	 1.53596760609053E-0001	
 3.17250000000000E+0003	 1.54687690370370E-0001	
 3.17450000000000E+0003	 1.55787620131687E-0001	
 3.17650000000000E+0003	 1.56885549893004E-0001	
 3.17850000000000E+0003	 1.57999979654321E-0001	
 3.18050000000000E+0003	 1.59123409415638E-0001	
 3.18250000000000E+0003	 1.60239339176955E-0001	
 3.18450000000000E+0003	 1.61351768938272E-0001	
 3.18650000000000E+0003	 1.62475698699588E-0001	
 3.18850000000000E+0003	 1.63601128460905E-0001	
 3.19050000000000E+0003	 1.64706058222222E-0001	
 3.19250000000000E+0003	 1.65792487983539E-0001	
 3.19450000000000E+0003	 1.66873917744856E-0001	
 3.19650000000000E+0003	 1.67952847506173E-0001	
 3.19850000000000E+0003	 1.69036277267490E-0001	
 3.20050000000000E+0003	 1.70120207028807E-0001	
 3.20250000000000E+0003	 1.71199136790123E-0001	
 3.20450000000000E+0003	 1.72266566551440E-0001	
 3.20650000000000E+0003	 1.73324496312757E-0001	
 3.20850000000000E+0003	 1.74365926074074E-0001	
 3.21050000000000E+0003	 1.75411855835391E-0001	
 3.21250000000000E+0003	 1.76466785596708E-0001	
 3.21450000000000E+0003	 1.77524715358025E-0001	
 3.21650000000000E+0003	 1.78576145119342E-0001	
 3.21850000000000E+0003	 1.79629574880658E-0001	
 3.22050000000000E+0003	 1.80663504641975E-0001	
 3.22250000000000E+0003	 1.81679934403292E-0001	
 3.22450000000000E+0003	 1.82700864164609E-0001	
 3.22650000000000E+0003	 1.83736793925926E-0001	
 3.22850000000000E+0003	 1.84796223687243E-0001	
 3.23050000000000E+0003	 1.85939153448560E-0001	
 3.23250000000000E+0003	 1.87164083209877E-0001	
 3.23450000000000E+0003	 1.88247512971193E-0001	
 3.23650000000000E+0003	 1.89168942732510E-0001	
 3.23850000000000E+0003	 1.90161372493827E-0001	
 3.24050000000000E+0003	 1.91246802255144E-0001	
 3.24250000000000E+0003	 1.92377232016461E-0001	
 3.24450000000000E+0003	 1.93577161777778E-0001	
 3.24650000000000E+0003	 1.94824591539095E-0001	
 3.24850000000000E+0003	 1.95966521300412E-0001	
 3.25050000000000E+0003	 1.97047951061728E-0001	
 3.25250000000000E+0003	 1.98216380823045E-0001	
 3.25450000000000E+0003	 1.99486310584362E-0001	
 3.25650000000000E+0003	 2.00739240345679E-0001	
 3.25850000000000E+0003	 2.01930670106996E-0001	
 3.26050000000000E+0003	 2.03139599868313E-0001	
 3.26250000000000E+0003	 2.04384029629630E-0001	
 3.26450000000000E+0003	 2.05628959390947E-0001	
 3.26650000000000E+0003	 2.06889889152263E-0001	
 3.26850000000000E+0003	 2.08230318913580E-0001	
 3.27050000000000E+0003	 2.09576748674897E-0001	
 3.27250000000000E+0003	 2.10718178436214E-0001	
 3.27450000000000E+0003	 2.11727608197531E-0001	
 3.27650000000000E+0003	 2.12734537958848E-0001	
 3.27850000000000E+0003	 2.13733467720165E-0001	
 3.28050000000000E+0003	 2.14728397481481E-0001	
 3.28250000000000E+0003	 2.15697827242798E-0001	
 3.28450000000000E+0003	 2.16629257004115E-0001	
 3.28650000000000E+0003	 2.17521186765432E-0001	
 3.28850000000000E+0003	 2.18410616526749E-0001	
 3.29050000000000E+0003	 2.19350046288066E-0001	
 3.29250000000000E+0003	 2.20252976049383E-0001	
 3.29450000000000E+0003	 2.21023905810700E-0001	
 3.29650000000000E+0003	 2.21696835572016E-0001	
 3.29850000000000E+0003	 2.22310265333333E-0001	
 3.30050000000000E+0003	 2.22944695094650E-0001	
 3.30250000000000E+0003	 2.23713124855967E-0001	
 3.30450000000000E+0003	 2.24595054617284E-0001	
 3.30650000000000E+0003	 2.25350484378601E-0001	
 3.30850000000000E+0003	 2.25872414139918E-0001	
 3.31050000000000E+0003	 2.26301343901235E-0001	
 3.31250000000000E+0003	 2.26782773662551E-0001	
 3.31450000000000E+0003	 2.27367203423868E-0001	
 3.31650000000000E+0003	 2.27999633185185E-0001	
 3.31850000000000E+0003	 2.28656062946502E-0001	
 3.32050000000000E+0003	 2.29333992707819E-0001	
 3.32250000000000E+0003	 2.30062422469136E-0001	
 3.32450000000000E+0003	 2.30857352230453E-0001	
 3.32650000000000E+0003	 2.31600281991770E-0001	
 3.32850000000000E+0003	 2.32252711753086E-0001	
 3.33050000000000E+0003	 2.32946641514403E-0001	
 3.33250000000000E+0003	 2.33706571275720E-0001	
 3.33450000000000E+0003	 2.34522001037037E-0001	
 3.33650000000000E+0003	 2.35438430798354E-0001	
 3.33850000000000E+0003	 2.36348360559671E-0001	
 3.34050000000000E+0003	 2.37115290320988E-0001	
 3.34250000000000E+0003	 2.37856720082305E-0001	
 3.34450000000000E+0003	 2.38606149843621E-0001	
 3.34650000000000E+0003	 2.39375579604938E-0001	
 3.34850000000000E+0003	 2.40303009366255E-0001	
 3.35050000000000E+0003	 2.41262939127572E-0001	
 3.35250000000000E+0003	 2.41994368888889E-0001	
 3.35450000000000E+0003	 2.42647298650206E-0001	
 3.35650000000000E+0003	 2.43421228411523E-0001	
 3.35850000000000E+0003	 2.44289658172840E-0001	
 3.36050000000000E+0003	 2.45160087934156E-0001	
 3.36250000000000E+0003	 2.45973017695473E-0001	
 3.36450000000000E+0003	 2.46867447456790E-0001	
 3.36650000000000E+0003	 2.47930877218107E-0001	
 3.36850000000000E+0003	 2.48941306979424E-0001	
 3.37050000000000E+0003	 2.49633236740741E-0001	
 3.37250000000000E+0003	 2.50137166502058E-0001	
 3.37450000000000E+0003	 2.50788596263374E-0001	
 3.37650000000000E+0003	 2.51580026024691E-0001	
 3.37850000000000E+0003	 2.52364955786008E-0001	
 3.38050000000000E+0003	 2.53100385547325E-0001	
 3.38250000000000E+0003	 2.53788815308642E-0001	
 3.38450000000000E+0003	 2.54485245069959E-0001	
 3.38650000000000E+0003	 2.55226674831276E-0001	
 3.38850000000000E+0003	 2.56104104592593E-0001	
 3.39050000000000E+0003	 2.57123034353909E-0001	
 3.39250000000000E+0003	 2.57899464115226E-0001	
 3.39450000000000E+0003	 2.58334393876543E-0001	
 3.39650000000000E+0003	 2.58891323637860E-0001	
 3.39850000000000E+0003	 2.59830253399177E-0001	
 3.40050000000000E+0003	 2.60749183160494E-0001	
 3.40250000000000E+0003	 2.61134112921811E-0001	
 3.40450000000000E+0003	 2.61298042683128E-0001	
 3.40650000000000E+0003	 2.61736972444444E-0001	
 3.40850000000000E+0003	 2.62359902205761E-0001	
 3.41050000000000E+0003	 2.62924831967078E-0001	
 3.41250000000000E+0003	 2.63404261728395E-0001	
 3.41450000000000E+0003	 2.63740191489712E-0001	
 3.41650000000000E+0003	 2.64005621251029E-0001	
 3.41850000000000E+0003	 2.64358051012346E-0001	
 3.42050000000000E+0003	 2.64735980773663E-0001	
 3.42250000000000E+0003	 2.65024910534979E-0001	
 3.42450000000000E+0003	 2.65288840296296E-0001	
 3.42650000000000E+0003	 2.65640270057613E-0001	
 3.42850000000000E+0003	 2.66047199818930E-0001	
 3.43050000000000E+0003	 2.66322129580247E-0001	
 3.43250000000000E+0003	 2.66523059341564E-0001	
 3.43450000000000E+0003	 2.66810489102881E-0001	
 3.43650000000000E+0003	 2.66907418864198E-0001	
 3.43850000000000E+0003	 2.66643348625514E-0001	
 3.44050000000000E+0003	 2.66315278386831E-0001	
 3.44250000000000E+0003	 2.66150708148148E-0001	
 3.44450000000000E+0003	 2.66066637909465E-0001	
 3.44650000000000E+0003	 2.65979067670782E-0001	
 3.44850000000000E+0003	 2.65799997432099E-0001	
 3.45050000000000E+0003	 2.65535927193416E-0001	
 3.45250000000000E+0003	 2.65279856954733E-0001	
 3.45450000000000E+0003	 2.65005286716049E-0001	
 3.45650000000000E+0003	 2.64738216477366E-0001	
 3.45850000000000E+0003	 2.64531146238683E-0001	
 3.46050000000000E+0003	 2.64224076000000E-0001	
 3.46250000000000E+0003	 2.63763005761317E-0001	
 3.46450000000000E+0003	 2.63447435522634E-0001	
 3.46650000000000E+0003	 2.63357865283951E-0001	
 3.46850000000000E+0003	 2.63041295045267E-0001	
 3.47050000000000E+0003	 2.62186224806584E-0001	
 3.47250000000000E+0003	 2.61178654567901E-0001	
 3.47450000000000E+0003	 2.60406584329218E-0001	
 3.47650000000000E+0003	 2.59846514090535E-0001	
 3.47850000000000E+0003	 2.59381443851852E-0001	
 3.48050000000000E+0003	 2.58697373613169E-0001	
 3.48250000000000E+0003	 2.57760303374486E-0001	
 3.48450000000000E+0003	 2.56951233135802E-0001	
 3.48650000000000E+0003	 2.56248662897119E-0001	
 3.48850000000000E+0003	 2.55407092658436E-0001	
 3.49050000000000E+0003	 2.54503022419753E-0001	
 3.49250000000000E+0003	 2.53678952181070E-0001	
 3.49450000000000E+0003	 2.52903381942387E-0001	
 3.49650000000000E+0003	 2.52106811703704E-0001	
 3.49850000000000E+0003	 2.51213741465021E-0001	
 3.50050000000000E+0003	 2.50351171226337E-0001	
 3.50250000000000E+0003	 2.49477100987654E-0001	
 3.50450000000000E+0003	 2.48311030748971E-0001	
 3.50650000000000E+0003	 2.47056460510288E-0001	
 3.50850000000000E+0003	 2.45964890271605E-0001	
 3.51050000000000E+0003	 2.45015320032922E-0001	
 3.51250000000000E+0003	 2.44145249794239E-0001	
 3.51450000000000E+0003	 2.43137179555556E-0001	
 3.51650000000000E+0003	 2.41937109316872E-0001	
 3.51850000000000E+0003	 2.40770039078189E-0001	
 3.52050000000000E+0003	 2.39750468839506E-0001	
 3.52250000000000E+0003	 2.38857398600823E-0001	
 3.52450000000000E+0003	 2.37741828362140E-0001	
 3.52650000000000E+0003	 2.36347758123457E-0001	
 3.52850000000000E+0003	 2.35042187884774E-0001	
 3.53050000000000E+0003	 2.33852117646091E-0001	
 3.53250000000000E+0003	 2.32723047407407E-0001	
 3.53450000000000E+0003	 2.31708477168724E-0001	
 3.53650000000000E+0003	 2.30614906930041E-0001	
 3.53850000000000E+0003	 2.29257836691358E-0001	
 3.54050000000000E+0003	 2.27985766452675E-0001	
 3.54250000000000E+0003	 2.26954196213992E-0001	
 3.54450000000000E+0003	 2.25833625975309E-0001	
 3.54650000000000E+0003	 2.24310555736626E-0001	
 3.54850000000000E+0003	 2.22625485497942E-0001	
 3.55050000000000E+0003	 2.21145415259259E-0001	
 3.55250000000000E+0003	 2.19727845020576E-0001	
 3.55450000000000E+0003	 2.18234274781893E-0001	
 3.55650000000000E+0003	 2.16790704543210E-0001	
 3.55850000000000E+0003	 2.15418134304527E-0001	
 3.56050000000000E+0003	 2.14033564065844E-0001	
 3.56250000000000E+0003	 2.12520993827160E-0001	
 3.56450000000000E+0003	 2.10877423588477E-0001	
 3.56650000000000E+0003	 2.09248853349794E-0001	
 3.56850000000000E+0003	 2.07736283111111E-0001	
 3.57050000000000E+0003	 2.06184712872428E-0001	
 3.57250000000000E+0003	 2.04536142633745E-0001	
 3.57450000000000E+0003	 2.02877072395062E-0001	
 3.57650000000000E+0003	 2.01256502156379E-0001	
 3.57850000000000E+0003	 1.99678431917695E-0001	
 3.58050000000000E+0003	 1.98163361679012E-0001	
 3.58250000000000E+0003	 1.96706791440329E-0001	
 3.58450000000000E+0003	 1.95202221201646E-0001	
 3.58650000000000E+0003	 1.93386150962963E-0001	
 3.58850000000000E+0003	 1.91314580724280E-0001	
 3.59050000000000E+0003	 1.89400510485597E-0001	
 3.59250000000000E+0003	 1.87680940246914E-0001	
 3.59450000000000E+0003	 1.85914370008230E-0001	
 3.59650000000000E+0003	 1.84156799769547E-0001	
 3.59850000000000E+0003	 1.82469229530864E-0001	
 3.60050000000000E+0003	 1.80722159292181E-0001	
 3.60250000000000E+0003	 1.78941089053498E-0001	
 3.60450000000000E+0003	 1.77159018814815E-0001	
 3.60650000000000E+0003	 1.75271948576132E-0001	
 3.60850000000000E+0003	 1.73341878337449E-0001	
 3.61050000000000E+0003	 1.71450808098765E-0001	
 3.61250000000000E+0003	 1.69631237860082E-0001	
 3.61450000000000E+0003	 1.67843667621399E-0001	
 3.61650000000000E+0003	 1.66049597382716E-0001	
 3.61850000000000E+0003	 1.64354027144033E-0001	
 3.62050000000000E+0003	 1.62567456905350E-0001	
 3.62250000000000E+0003	 1.60577886666667E-0001	
 3.62450000000000E+0003	 1.58697316427984E-0001	
 3.62650000000000E+0003	 1.56826246189300E-0001	
 3.62850000000000E+0003	 1.54862175950617E-0001	
 3.63050000000000E+0003	 1.52864105711934E-0001	
 3.63250000000000E+0003	 1.50981035473251E-0001	
 3.63450000000000E+0003	 1.49299965234568E-0001	
 3.63650000000000E+0003	 1.47505394995885E-0001	
 3.63850000000000E+0003	 1.45723324757202E-0001	
 3.64050000000000E+0003	 1.43950254518519E-0001	
 3.64250000000000E+0003	 1.42218184279835E-0001	
 3.64450000000000E+0003	 1.40492614041152E-0001	
 3.64650000000000E+0003	 1.38763043802469E-0001	
 3.64850000000000E+0003	 1.37021473563786E-0001	
 3.65050000000000E+0003	 1.35334403325103E-0001	
 3.65250000000000E+0003	 1.33567833086420E-0001	
 3.65450000000000E+0003	 1.31853262847737E-0001	
 3.65650000000000E+0003	 1.30374692609053E-0001	
 3.65850000000000E+0003	 1.28906622370370E-0001	
 3.66050000000000E+0003	 1.27403552131687E-0001	
 3.66250000000000E+0003	 1.25776981893004E-0001	
 3.66450000000000E+0003	 1.24213411654321E-0001	
 3.66650000000000E+0003	 1.22818841415638E-0001	
 3.66850000000000E+0003	 1.21408771176955E-0001	
 3.67050000000000E+0003	 1.20113200938272E-0001	
 3.67250000000000E+0003	 1.18755630699588E-0001	
 3.67450000000000E+0003	 1.17450560460905E-0001	
 3.67650000000000E+0003	 1.16234990222222E-0001	
 3.67850000000000E+0003	 1.14987419983539E-0001	
 3.68050000000000E+0003	 1.13998349744856E-0001	
 3.68250000000000E+0003	 1.13039779506173E-0001	
 3.68450000000000E+0003	 1.12218209267490E-0001	
 3.68650000000000E+0003	 1.11488139028807E-0001	
 3.68850000000000E+0003	 1.10741068790123E-0001	
 3.69050000000000E+0003	 1.09668998551440E-0001	
 3.69250000000000E+0003	 1.08574928312757E-0001	
 3.69450000000000E+0003	 1.07753858074074E-0001	
 3.69650000000000E+0003	 1.07070787835391E-0001	
 3.69850000000000E+0003	 1.06338717596708E-0001	
 3.70050000000000E+0003	 1.05608147358025E-0001	
 3.70250000000000E+0003	 1.04969077119342E-0001	
 3.70450000000000E+0003	 1.04329006880658E-0001	
 3.70650000000000E+0003	 1.03726936641975E-0001	
 3.70850000000000E+0003	 1.03110366403292E-0001	
 3.71050000000000E+0003	 1.02487796164609E-0001	
 3.71250000000000E+0003	 1.02046725925926E-0001	
 3.71450000000000E+0003	 1.01625655687243E-0001	
 3.71650000000000E+0003	 1.01149585448560E-0001	
 3.71850000000000E+0003	 1.00722015209877E-0001	
 3.72050000000000E+0003	 1.00250444971193E-0001	
 3.72250000000000E+0003	 9.97988747325103E-0002	
 3.72450000000000E+0003	 9.93183044938272E-0002	
 3.72650000000000E+0003	 9.88947342551440E-0002	
 3.72850000000000E+0003	 9.85071640164609E-0002	
 3.73050000000000E+0003	 9.81540937777778E-0002	
 3.73250000000000E+0003	 9.79305235390947E-0002	
 3.73450000000000E+0003	 9.76169533004115E-0002	
 3.73650000000000E+0003	 9.73188830617284E-0002	
 3.73850000000000E+0003	 9.69658128230453E-0002	
 3.74050000000000E+0003	 9.67207425843621E-0002	
 3.74250000000000E+0003	 9.62936723456790E-0002	
 3.74450000000000E+0003	 9.59566021069959E-0002	
 3.74650000000000E+0003	 9.55865318683128E-0002	
 3.74850000000000E+0003	 9.51814616296296E-0002	
 3.75050000000000E+0003	 9.48693913909465E-0002	
 3.75250000000000E+0003	 9.46308211522634E-0002	
 3.75450000000000E+0003	 9.44447509135802E-0002	
 3.75650000000000E+0003	 9.42466806748971E-0002	
 3.75850000000000E+0003	 9.40201104362140E-0002	
 3.76050000000000E+0003	 9.38195401975309E-0002	
 3.76250000000000E+0003	 9.35694699588477E-0002	
 3.76450000000000E+0003	 9.33503997201646E-0002	
 3.76650000000000E+0003	 9.31538294814815E-0002	
 3.76850000000000E+0003	 9.28417592427984E-0002	
 3.77050000000000E+0003	 9.26561890041152E-0002	
 3.77250000000000E+0003	 9.24446187654321E-0002	
 3.77450000000000E+0003	 9.22805485267490E-0002	
 3.77650000000000E+0003	 9.21094782880658E-0002	
 3.77850000000000E+0003	 9.19309080493827E-0002	
 3.78050000000000E+0003	 9.17523378106996E-0002	
 3.78250000000000E+0003	 9.14487675720165E-0002	
 3.78450000000000E+0003	 9.12351973333333E-0002	
 3.78650000000000E+0003	 9.10661270946502E-0002	
 3.78850000000000E+0003	 9.09060568559671E-0002	
 3.79050000000000E+0003	 9.07649866172840E-0002	
 3.79250000000000E+0003	 9.05804163786008E-0002	
 3.79450000000000E+0003	 9.03013461399177E-0002	
 3.79650000000000E+0003	 9.01697759012346E-0002	
 3.79850000000000E+0003	 8.99922056625514E-0002	
 3.80050000000000E+0003	 8.97141354238683E-0002	
 3.80250000000000E+0003	 8.96150651851852E-0002	
 3.80450000000000E+0003	 8.93299949465021E-0002	
 3.80650000000000E+0003	 8.92104247078189E-0002	
 3.80850000000000E+0003	 8.91163544691358E-0002	
 3.81050000000000E+0003	 8.89947842304527E-0002	
 3.81250000000000E+0003	 8.89462139917695E-0002	
 3.81450000000000E+0003	 8.87296437530864E-0002	
 3.81650000000000E+0003	 8.86470735144033E-0002	
 3.81850000000000E+0003	 8.83870032757202E-0002	
 3.82050000000000E+0003	 8.82174330370370E-0002	
 3.82250000000000E+0003	 8.81358627983539E-0002	
 3.82450000000000E+0003	 8.78702925596708E-0002	
 3.82650000000000E+0003	 8.78197223209877E-0002	
 3.82850000000000E+0003	 8.77206520823045E-0002	
 3.83050000000000E+0003	 8.75820818436214E-0002	
 3.83250000000000E+0003	 8.75765116049383E-0002	
 3.83450000000000E+0003	 8.76139413662551E-0002	
 3.83650000000000E+0003	 8.75258711275720E-0002	
 3.83850000000000E+0003	 8.72463008888889E-0002	
 3.84050000000000E+0003	 8.69527306502058E-0002	
 3.84250000000000E+0003	 8.68221604115226E-0002	
 3.84450000000000E+0003	 8.68320901728395E-0002	
 3.84650000000000E+0003	 8.67825199341564E-0002	
 3.84850000000000E+0003	 8.67639496954733E-0002	
 3.85050000000000E+0003	 8.67003794567901E-0002	
 3.85250000000000E+0003	 8.65018092181070E-0002	
 3.85450000000000E+0003	 8.63907389794239E-0002	
 3.85650000000000E+0003	 8.61431687407407E-0002	
 3.85850000000000E+0003	 8.60210985020576E-0002	
 3.86050000000000E+0003	 8.59760282633745E-0002	
 3.86250000000000E+0003	 8.58934580246914E-0002	
 3.86450000000000E+0003	 8.58753877860082E-0002	
 3.86650000000000E+0003	 8.58118175473251E-0002	
 3.86850000000000E+0003	 8.56202473086420E-0002	
 3.87050000000000E+0003	 8.55921770699588E-0002	
 3.87250000000000E+0003	 8.53776068312757E-0002	
 3.87450000000000E+0003	 8.53655365925926E-0002	
 3.87650000000000E+0003	 8.53269663539095E-0002	
 3.87850000000000E+0003	 8.51893961152263E-0002	
 3.88050000000000E+0003	 8.52313258765432E-0002	
 3.88250000000000E+0003	 8.52062556378601E-0002	
 3.88450000000000E+0003	 8.51181853991770E-0002	
 3.88650000000000E+0003	 8.50891151604938E-0002	
 3.88850000000000E+0003	 8.48745449218107E-0002	
 3.89050000000000E+0003	 8.48419746831276E-0002	
 3.89250000000000E+0003	 8.48354044444444E-0002	
 3.89450000000000E+0003	 8.47058342057613E-0002	
 3.89650000000000E+0003	 8.46482639670782E-0002	
 3.89850000000000E+0003	 8.46286937283951E-0002	
 3.90050000000000E+0003	 8.45151234897119E-0002	
 3.90250000000000E+0003	 8.43335532510288E-0002	
 3.90450000000000E+0003	 8.43404830123457E-0002	
 3.90650000000000E+0003	 8.42934127736626E-0002	
 3.90850000000000E+0003	 8.41843425349794E-0002	
 3.91050000000000E+0003	 8.41397722962963E-0002	
 3.91250000000000E+0003	 8.41217020576132E-0002	
 3.91450000000000E+0003	 8.40651318189300E-0002	
 3.91650000000000E+0003	 8.40000615802469E-0002	
 3.91850000000000E+0003	 8.39164913415638E-0002	
 3.92050000000000E+0003	 8.38689211028807E-0002	
 3.92250000000000E+0003	 8.38188508641975E-0002	
 3.92450000000000E+0003	 8.38022806255144E-0002	
 3.92650000000000E+0003	 8.37597103868313E-0002	
 3.92850000000000E+0003	 8.36776401481481E-0002	
 3.93050000000000E+0003	 8.36225699094650E-0002	
 3.93250000000000E+0003	 8.35714996707819E-0002	
 3.93450000000000E+0003	 8.35214294320988E-0002	
 3.93650000000000E+0003	 8.34673591934156E-0002	
 3.93850000000000E+0003	 8.34327889547325E-0002	
 3.94050000000000E+0003	 8.33667187160494E-0002	
 3.94250000000000E+0003	 8.33451484773663E-0002	
 3.94450000000000E+0003	 8.32885782386831E-0002	
 3.94650000000000E+0003	 8.31880080000000E-0002	
 3.94850000000000E+0003	 8.31449377613169E-0002	
 3.95050000000000E+0003	 8.31093675226337E-0002	
 3.95250000000000E+0003	 8.30557972839506E-0002	
 3.95450000000000E+0003	 8.30042270452675E-0002	
 3.95650000000000E+0003	 8.29611568065844E-0002	
 3.95850000000000E+0003	 8.29165865679012E-0002	
 3.96050000000000E+0003	 8.28620163292181E-0002	
 3.96250000000000E+0003	 8.28119460905350E-0002	
 3.96450000000000E+0003	 8.27648758518519E-0002	
 3.96650000000000E+0003	 8.27273056131687E-0002	
 3.96850000000000E+0003	 8.26872353744856E-0002	
 3.97050000000000E+0003	 8.26386651358025E-0002	
 3.97250000000000E+0003	 8.25915948971193E-0002	
 3.97450000000000E+0003	 8.25565246584362E-0002	
 3.97650000000000E+0003	 8.25204544197531E-0002	
 3.97850000000000E+0003	 8.24703841810700E-0002	
 3.98050000000000E+0003	 8.24353139423868E-0002	
 3.98250000000000E+0003	 8.24372437037037E-0002	
 3.98450000000000E+0003	 8.24191734650206E-0002	
 3.98650000000000E+0003	 8.23446032263374E-0002	
 3.98850000000000E+0003	 8.22595329876543E-0002	
 3.99050000000000E+0003	 8.22064627489712E-0002	
 3.99250000000000E+0003	 8.21558925102881E-0002	
 3.99450000000000E+0003	 8.21128222716049E-0002	
 3.99650000000000E+0003	 8.19602520329218E-0002	
 3.99850000000000E+0003	 8.19806817942387E-0002	

>1	DATALINE
