*CPCWIN*

>1	DATALINE
DATALINE
1
Operator:

Description:

Remarks:





15.9.2008
11:2


_x	_y
	
	
UNIT	UNIT
 4.50500000000000E+0002	 9.58375177364725E-0002	
 4.52500000000000E+0002	 9.59292169351508E-0002	
 4.54500000000000E+0002	 9.60134161338290E-0002	
 4.56500000000000E+0002	 9.60821153325072E-0002	
 4.58500000000000E+0002	 9.59713145311855E-0002	
 4.60500000000000E+0002	 9.63200137298637E-0002	
 4.62500000000000E+0002	 9.66872129285419E-0002	
 4.64500000000000E+0002	 9.70094121272202E-0002	
 4.66500000000000E+0002	 9.70351113258984E-0002	
 4.68500000000000E+0002	 9.72268105245766E-0002	
 4.70500000000000E+0002	 9.73735097232549E-0002	
 4.72500000000000E+0002	 9.75797089219331E-0002	
 4.74500000000000E+0002	 9.77194081206113E-0002	
 4.76500000000000E+0002	 9.79551073192895E-0002	
 4.78500000000000E+0002	 9.81323065179678E-0002	
 4.80500000000000E+0002	 9.84225057166460E-0002	
 4.82500000000000E+0002	 9.86307049153242E-0002	
 4.84500000000000E+0002	 9.89224041140025E-0002	
 4.86500000000000E+0002	 9.91416033126807E-0002	
 4.88500000000000E+0002	 9.95068025113589E-0002	
 4.90500000000000E+0002	 9.97730017100372E-0002	
 4.92500000000000E+0002	 1.00103700908715E-0001	
 4.94500000000000E+0002	 1.00423900107394E-0001	
 4.96500000000000E+0002	 1.00813099306072E-0001	
 4.98500000000000E+0002	 1.01153798504750E-0001	
 5.00500000000000E+0002	 1.01464997703428E-0001	
 5.02500000000000E+0002	 1.01739696902107E-0001	
 5.04500000000000E+0002	 1.02196896100785E-0001	
 5.06500000000000E+0002	 1.02572095299463E-0001	
 5.08500000000000E+0002	 1.03038294498141E-0001	
 5.10500000000000E+0002	 1.03436993696819E-0001	
 5.12500000000000E+0002	 1.03922192895498E-0001	
 5.14500000000000E+0002	 1.04329892094176E-0001	
 5.16500000000000E+0002	 1.04705091292854E-0001	
 5.18500000000000E+0002	 1.05108290491532E-0001	
 5.20500000000000E+0002	 1.05629489690211E-0001	
 5.22500000000000E+0002	 1.06041188888889E-0001	
 5.24500000000000E+0002	 1.06358888087567E-0001	
 5.26500000000000E+0002	 1.06592087286245E-0001	
 5.28500000000000E+0002	 1.06958286484924E-0001	
 5.30500000000000E+0002	 1.07226485683602E-0001	
 5.32500000000000E+0002	 1.07476184882280E-0001	
 5.34500000000000E+0002	 1.07604384080958E-0001	
 5.36500000000000E+0002	 1.07671583279637E-0001	
 5.38500000000000E+0002	 1.07673282478315E-0001	
 5.40500000000000E+0002	 1.07704981676993E-0001	
 5.42500000000000E+0002	 1.07639680875671E-0001	
 5.44500000000000E+0002	 1.07606880074349E-0001	
 5.46500000000000E+0002	 1.07562079273028E-0001	
 5.48500000000000E+0002	 1.07596778471706E-0001	
 5.50500000000000E+0002	 1.07615977670384E-0001	
 5.52500000000000E+0002	 1.07688176869062E-0001	
 5.54500000000000E+0002	 1.07685876067741E-0001	
 5.56500000000000E+0002	 1.07664075266419E-0001	
 5.58500000000000E+0002	 1.07551774465097E-0001	
 5.60500000000000E+0002	 1.07428473663775E-0001	
 5.62500000000000E+0002	 1.07182172862454E-0001	
 5.64500000000000E+0002	 1.06951372061132E-0001	
 5.66500000000000E+0002	 1.06689571259810E-0001	
 5.68500000000000E+0002	 1.06506770458488E-0001	
 5.70500000000000E+0002	 1.06297469657166E-0001	
 5.72500000000000E+0002	 1.06153668855845E-0001	
 5.74500000000000E+0002	 1.05984368054523E-0001	
 5.76500000000000E+0002	 1.05918567253201E-0001	
 5.78500000000000E+0002	 1.05860266451879E-0001	
 5.80500000000000E+0002	 1.05813465650558E-0001	
 5.82500000000000E+0002	 1.05684164849236E-0001	
 5.84500000000000E+0002	 1.05588864047914E-0001	
 5.86500000000000E+0002	 1.05505063246592E-0001	
 5.88500000000000E+0002	 1.05482762445271E-0001	
 5.90500000000000E+0002	 1.05375461643949E-0001	
 5.92500000000000E+0002	 1.05370660842627E-0001	
 5.94500000000000E+0002	 1.05418860041305E-0001	
 5.96500000000000E+0002	 1.05544559239983E-0001	
 5.98500000000000E+0002	 1.05567758438662E-0001	
 6.00500000000000E+0002	 1.05600457637340E-0001	
 6.02500000000000E+0002	 1.05649156836018E-0001	
 6.04500000000000E+0002	 1.05693356034696E-0001	
 6.06500000000000E+0002	 1.05588555233375E-0001	
 6.08500000000000E+0002	 1.05462254432053E-0001	
 6.10500000000000E+0002	 1.05266453630731E-0001	
 6.12500000000000E+0002	 1.05125652829409E-0001	
 6.14500000000000E+0002	 1.04999852028088E-0001	
 6.16500000000000E+0002	 1.05027551226766E-0001	
 6.18500000000000E+0002	 1.04846250425444E-0001	
 6.20500000000000E+0002	 1.04498949624122E-0001	
 6.22500000000000E+0002	 1.04201648822800E-0001	
 6.24500000000000E+0002	 1.03957848021479E-0001	
 6.26500000000000E+0002	 1.03693047220157E-0001	
 6.28500000000000E+0002	 1.03484746418835E-0001	
 6.30500000000000E+0002	 1.03242945617513E-0001	
 6.32500000000000E+0002	 1.02980144816192E-0001	
 6.34500000000000E+0002	 1.02657844014870E-0001	
 6.36500000000000E+0002	 1.02417043213548E-0001	
 6.38500000000000E+0002	 1.02193242412226E-0001	
 6.40500000000000E+0002	 1.01959941610905E-0001	
 6.42500000000000E+0002	 1.01690640809583E-0001	
 6.44500000000000E+0002	 1.01427340008261E-0001	
 6.46500000000000E+0002	 1.01163539206939E-0001	
 6.48500000000000E+0002	 1.00926238405618E-0001	
 6.50500000000000E+0002	 1.00590437604296E-0001	
 6.52500000000000E+0002	 1.00282636802974E-0001	
 6.54500000000000E+0002	 1.00023336001652E-0001	
 6.56500000000000E+0002	 9.98340352003304E-0002	
 6.58500000000000E+0002	 9.96627343990087E-0002	
 6.60500000000000E+0002	 9.95519335976869E-0002	
 6.62500000000000E+0002	 9.93451327963651E-0002	
 6.64500000000000E+0002	 9.85418319950434E-0002	
 6.66500000000000E+0002	 9.61750311937216E-0002	
 6.68500000000000E+0002	 9.54392303923998E-0002	
 6.70500000000000E+0002	 9.75249295910781E-0002	
 6.72500000000000E+0002	 9.80106287897563E-0002	
 6.74500000000000E+0002	 9.76598279884345E-0002	
 6.76500000000000E+0002	 9.72250271871128E-0002	
 6.78500000000000E+0002	 9.68137263857910E-0002	
 6.80500000000000E+0002	 9.64454255844692E-0002	
 6.82500000000000E+0002	 9.61101247831475E-0002	
 6.84500000000000E+0002	 9.58308239818257E-0002	
 6.86500000000000E+0002	 9.55850231805039E-0002	
 6.88500000000000E+0002	 9.53592223791822E-0002	
 6.90500000000000E+0002	 9.51794215778604E-0002	
 6.92500000000000E+0002	 9.50126207765386E-0002	
 6.94500000000000E+0002	 9.48533199752169E-0002	
 6.96500000000000E+0002	 9.47090191738951E-0002	
 6.98500000000000E+0002	 9.45462183725733E-0002	
 7.00500000000000E+0002	 9.43049175712515E-0002	
 7.02500000000000E+0002	 9.39891167699298E-0002	
 7.04500000000000E+0002	 9.35998159686080E-0002	
 7.06500000000000E+0002	 9.32045151672862E-0002	
 7.08500000000000E+0002	 9.28317143659645E-0002	
 7.10500000000000E+0002	 9.24869135646427E-0002	
 7.12500000000000E+0002	 9.21146127633209E-0002	
 7.14500000000000E+0002	 9.16513119619992E-0002	
 7.16500000000000E+0002	 9.11580111606774E-0002	
 7.18500000000000E+0002	 9.07897103593556E-0002	
 7.20500000000000E+0002	 9.03629095580339E-0002	
 7.22500000000000E+0002	 8.96416087567121E-0002	
 7.24500000000000E+0002	 8.89028079553903E-0002	
 7.26500000000000E+0002	 8.81760071540686E-0002	
 7.28500000000000E+0002	 8.74087063527468E-0002	
 7.30500000000000E+0002	 8.66544055514250E-0002	
 7.32500000000000E+0002	 8.59506047501033E-0002	
 7.34500000000000E+0002	 8.53168039487815E-0002	
 7.36500000000000E+0002	 8.47700031474597E-0002	
 7.38500000000000E+0002	 8.42802023461380E-0002	
 7.40500000000000E+0002	 8.38269015448162E-0002	
 7.42500000000000E+0002	 8.33856007434944E-0002	
 7.44500000000000E+0002	 8.29707999421727E-0002	
 7.46500000000000E+0002	 8.25749991408509E-0002	
 7.48500000000000E+0002	 8.21856983395291E-0002	
 7.50500000000000E+0002	 8.18108975382074E-0002	
 7.52500000000000E+0002	 8.14905967368856E-0002	
 7.54500000000000E+0002	 8.12152959355638E-0002	
 7.56500000000000E+0002	 8.10004951342420E-0002	
 7.58500000000000E+0002	 8.08396943329203E-0002	
 7.60500000000000E+0002	 8.07778935315985E-0002	
 7.62500000000000E+0002	 8.07485927302767E-0002	
 7.64500000000000E+0002	 8.06492919289550E-0002	
 7.66500000000000E+0002	 8.03224911276332E-0002	
 7.68500000000000E+0002	 7.97521903263114E-0002	
 7.70500000000000E+0002	 7.90253895249897E-0002	
 7.72500000000000E+0002	 7.83670887236679E-0002	
 7.74500000000000E+0002	 7.78927879223461E-0002	
 7.76500000000000E+0002	 7.77694871210244E-0002	
 7.78500000000000E+0002	 7.78566863197026E-0002	
 7.80500000000000E+0002	 7.77718855183808E-0002	
 7.82500000000000E+0002	 7.73000847170591E-0002	
 7.84500000000000E+0002	 7.67157839157373E-0002	
 7.86500000000000E+0002	 7.61354831144155E-0002	
 7.88500000000000E+0002	 7.55816823130938E-0002	
 7.90500000000000E+0002	 7.50443815117720E-0002	
 7.92500000000000E+0002	 7.46805807104502E-0002	
 7.94500000000000E+0002	 7.44587799091285E-0002	
 7.96500000000000E+0002	 7.42524791078067E-0002	
 7.98500000000000E+0002	 7.38711783064849E-0002	
 8.00500000000000E+0002	 7.33928775051632E-0002	
 8.02500000000000E+0002	 7.28760767038414E-0002	
 8.04500000000000E+0002	 7.24477759025196E-0002	
 8.06500000000000E+0002	 7.20569751011979E-0002	
 8.08500000000000E+0002	 7.17261742998761E-0002	
 8.10500000000000E+0002	 7.13833734985543E-0002	
 8.12500000000000E+0002	 7.10385726972325E-0002	
 8.14500000000000E+0002	 7.06077718959108E-0002	
 8.16500000000000E+0002	 7.01779710945890E-0002	
 8.18500000000000E+0002	 6.97361702932672E-0002	
 8.20500000000000E+0002	 6.93813694919455E-0002	
 8.22500000000000E+0002	 6.90655686906237E-0002	
 8.24500000000000E+0002	 6.88342678893019E-0002	
 8.26500000000000E+0002	 6.85969670879802E-0002	
 8.28500000000000E+0002	 6.83996662866584E-0002	
 8.30500000000000E+0002	 6.81888654853366E-0002	
 8.32500000000000E+0002	 6.80095646840149E-0002	
 8.34500000000000E+0002	 6.78017638826931E-0002	
 8.36500000000000E+0002	 6.75959630813713E-0002	
 8.38500000000000E+0002	 6.73306622800496E-0002	
 8.40500000000000E+0002	 6.70543614787278E-0002	
 8.42500000000000E+0002	 6.67290606774060E-0002	
 8.44500000000000E+0002	 6.64217598760843E-0002	
 8.46500000000000E+0002	 6.61154590747625E-0002	
 8.48500000000000E+0002	 6.58881582734407E-0002	
 8.50500000000000E+0002	 6.57203574721190E-0002	
 8.52500000000000E+0002	 6.56795566707972E-0002	
 8.54500000000000E+0002	 6.56992558694754E-0002	
 8.56500000000000E+0002	 6.57764550681537E-0002	
 8.58500000000000E+0002	 6.58091542668319E-0002	
 8.60500000000000E+0002	 6.57783534655101E-0002	
 8.62500000000000E+0002	 6.56020526641884E-0002	
 8.64500000000000E+0002	 6.53372518628666E-0002	
 8.66500000000000E+0002	 6.49924510615448E-0002	
 8.68500000000000E+0002	 6.47256502602230E-0002	
 8.70500000000000E+0002	 6.47328494589013E-0002	
 8.72500000000000E+0002	 6.48560486575795E-0002	
 8.74500000000000E+0002	 6.45537478562577E-0002	
 8.76500000000000E+0002	 6.40394470549360E-0002	
 8.78500000000000E+0002	 6.36111462536142E-0002	
 8.80500000000000E+0002	 6.33228454522924E-0002	
 8.82500000000000E+0002	 6.31040446509707E-0002	
 8.84500000000000E+0002	 6.29377438496489E-0002	
 8.86500000000000E+0002	 6.27479430483271E-0002	
 8.88500000000000E+0002	 6.25711422470054E-0002	
 8.90500000000000E+0002	 6.23703414456836E-0002	
 8.92500000000000E+0002	 6.21660406443618E-0002	
 8.94500000000000E+0002	 6.19447398430401E-0002	
 8.96500000000000E+0002	 6.17314390417183E-0002	
 8.98500000000000E+0002	 6.15271382403965E-0002	
 9.00500000000000E+0002	 6.13723374390748E-0002	
 9.02500000000000E+0002	 6.12885366377530E-0002	
 9.04500000000000E+0002	 6.13917358364312E-0002	
 9.06500000000000E+0002	 6.16899350351095E-0002	
 9.08500000000000E+0002	 6.21881342337877E-0002	
 9.10500000000000E+0002	 6.27643334324659E-0002	
 9.12500000000000E+0002	 6.33085326311442E-0002	
 9.14500000000000E+0002	 6.36842318298224E-0002	
 9.16500000000000E+0002	 6.38289310285006E-0002	
 9.18500000000000E+0002	 6.36946302271789E-0002	
 9.20500000000000E+0002	 6.33503294258571E-0002	
 9.22500000000000E+0002	 6.28495286245353E-0002	
 9.24500000000000E+0002	 6.23047278232135E-0002	
 9.26500000000000E+0002	 6.17529270218918E-0002	
 9.28500000000000E+0002	 6.12411262205700E-0002	
 9.30500000000000E+0002	 6.07808254192482E-0002	
 9.32500000000000E+0002	 6.04230246179265E-0002	
 9.34500000000000E+0002	 6.01362238166047E-0002	
 9.36500000000000E+0002	 5.99394230152829E-0002	
 9.38500000000000E+0002	 5.97986222139612E-0002	
 9.40500000000000E+0002	 5.97273214126394E-0002	
 9.42500000000000E+0002	 5.97215206113176E-0002	
 9.44500000000000E+0002	 5.98082198099959E-0002	
 9.46500000000000E+0002	 5.99499190086741E-0002	
 9.48500000000000E+0002	 6.01616182073523E-0002	
 9.50500000000000E+0002	 6.04183174060306E-0002	
 9.52500000000000E+0002	 6.07815166047088E-0002	
 9.54500000000000E+0002	 6.12782158033870E-0002	
 9.56500000000000E+0002	 6.19409150020653E-0002	
 9.58500000000000E+0002	 6.27196142007435E-0002	
 9.60500000000000E+0002	 6.35938133994217E-0002	
 9.62500000000000E+0002	 6.44910125981000E-0002	
 9.64500000000000E+0002	 6.53937117967782E-0002	
 9.66500000000000E+0002	 6.62484109954564E-0002	
 9.68500000000000E+0002	 6.70596101941347E-0002	
 9.70500000000000E+0002	 6.77783093928129E-0002	
 9.72500000000000E+0002	 6.84415085914911E-0002	
 9.74500000000000E+0002	 6.90977077901694E-0002	
 9.76500000000000E+0002	 6.99084069888476E-0002	
 9.78500000000000E+0002	 7.09936061875258E-0002	
 9.80500000000000E+0002	 7.24833053862040E-0002	
 9.82500000000000E+0002	 7.43475045848823E-0002	
 9.84500000000000E+0002	 7.64617037835605E-0002	
 9.86500000000000E+0002	 7.85719029822387E-0002	
 9.88500000000000E+0002	 8.04821021809170E-0002	
 9.90500000000000E+0002	 8.20418013795952E-0002	
 9.92500000000000E+0002	 8.33055005782734E-0002	
 9.94500000000000E+0002	 8.43961997769517E-0002	
 9.96500000000000E+0002	 8.55403989756299E-0002	
 9.98500000000000E+0002	 8.68915981743081E-0002	
 1.00050000000000E+0003	 8.85767973729864E-0002	
 1.00250000000000E+0003	 9.05579965716646E-0002	
 1.00450000000000E+0003	 9.27786957703428E-0002	
 1.00650000000000E+0003	 9.51243949690211E-0002	
 1.00850000000000E+0003	 9.75265941676993E-0002	
 1.01050000000000E+0003	 9.98992933663775E-0002	
 1.01250000000000E+0003	 1.02237992565056E-0001	
 1.01450000000000E+0003	 1.04489691763734E-0001	
 1.01650000000000E+0003	 1.06602390962412E-0001	
 1.01850000000000E+0003	 1.08443590161090E-0001	
 1.02050000000000E+0003	 1.09948289359769E-0001	
 1.02250000000000E+0003	 1.11100488558447E-0001	
 1.02450000000000E+0003	 1.12032187757125E-0001	
 1.02650000000000E+0003	 1.12874386955803E-0001	
 1.02850000000000E+0003	 1.13750086154482E-0001	
 1.03050000000000E+0003	 1.14656285353160E-0001	
 1.03250000000000E+0003	 1.15564984551838E-0001	
 1.03450000000000E+0003	 1.16397683750516E-0001	
 1.03650000000000E+0003	 1.17107882949195E-0001	
 1.03850000000000E+0003	 1.17641082147873E-0001	
 1.04050000000000E+0003	 1.18067781346551E-0001	
 1.04250000000000E+0003	 1.18489480545229E-0001	
 1.04450000000000E+0003	 1.19055179743907E-0001	
 1.04650000000000E+0003	 1.19866378942586E-0001	
 1.04850000000000E+0003	 1.20956578141264E-0001	
 1.05050000000000E+0003	 1.22180777339942E-0001	
 1.05250000000000E+0003	 1.23298476538620E-0001	
 1.05450000000000E+0003	 1.24063675737299E-0001	
 1.05650000000000E+0003	 1.24414874935977E-0001	
 1.05850000000000E+0003	 1.24388074134655E-0001	
 1.06050000000000E+0003	 1.24136773333333E-0001	
 1.06250000000000E+0003	 1.23881472532012E-0001	
 1.06450000000000E+0003	 1.23881171730690E-0001	
 1.06650000000000E+0003	 1.24303370929368E-0001	
 1.06850000000000E+0003	 1.25190570128046E-0001	
 1.07050000000000E+0003	 1.26400269326724E-0001	
 1.07250000000000E+0003	 1.27732468525403E-0001	
 1.07450000000000E+0003	 1.28986167724081E-0001	
 1.07650000000000E+0003	 1.30014866922759E-0001	
 1.07850000000000E+0003	 1.30684066121437E-0001	
 1.08050000000000E+0003	 1.30904265320116E-0001	
 1.08250000000000E+0003	 1.30595464518794E-0001	
 1.08450000000000E+0003	 1.29673163717472E-0001	
 1.08650000000000E+0003	 1.28052362916150E-0001	
 1.08850000000000E+0003	 1.25787062114829E-0001	
 1.09050000000000E+0003	 1.23147261313507E-0001	
 1.09250000000000E+0003	 1.20592460512185E-0001	
 1.09450000000000E+0003	 1.18509159710863E-0001	
 1.09650000000000E+0003	 1.17010358909542E-0001	
 1.09850000000000E+0003	 1.15920558108220E-0001	
 1.10050000000000E+0003	 1.14983757306898E-0001	
 1.10250000000000E+0003	 1.14013956505576E-0001	
 1.10450000000000E+0003	 1.12947155704254E-0001	
 1.10650000000000E+0003	 1.11814354902933E-0001	
 1.10850000000000E+0003	 1.10727054101611E-0001	
 1.11050000000000E+0003	 1.09772253300289E-0001	
 1.11250000000000E+0003	 1.08966452498967E-0001	
 1.11450000000000E+0003	 1.08225151697646E-0001	
 1.11650000000000E+0003	 1.07450350896324E-0001	
 1.11850000000000E+0003	 1.06561050095002E-0001	
 1.12050000000000E+0003	 1.05530249293680E-0001	
 1.12250000000000E+0003	 1.04339448492359E-0001	
 1.12450000000000E+0003	 1.03004147691037E-0001	
 1.12650000000000E+0003	 1.01556846889715E-0001	
 1.12850000000000E+0003	 1.00050546088393E-0001	
 1.13050000000000E+0003	 9.85057452870715E-0002	
 1.13250000000000E+0003	 9.70064444857497E-0002	
 1.13450000000000E+0003	 9.56136436844279E-0002	
 1.13650000000000E+0003	 9.43633428831062E-0002	
 1.13850000000000E+0003	 9.33215420817844E-0002	
 1.14050000000000E+0003	 9.25677412804626E-0002	
 1.14250000000000E+0003	 9.21164404791409E-0002	
 1.14450000000000E+0003	 9.19221396778191E-0002	
 1.14650000000000E+0003	 9.18503388764973E-0002	
 1.14850000000000E+0003	 9.17315380751755E-0002	
 1.15050000000000E+0003	 9.13842372738538E-0002	
 1.15250000000000E+0003	 9.07374364725320E-0002	
 1.15450000000000E+0003	 8.98051356712102E-0002	
 1.15650000000000E+0003	 8.86883348698885E-0002	
 1.15850000000000E+0003	 8.74860340685667E-0002	
 1.16050000000000E+0003	 8.62447332672449E-0002	
 1.16250000000000E+0003	 8.49249324659232E-0002	
 1.16450000000000E+0003	 8.35091316646014E-0002	
 1.16650000000000E+0003	 8.20043308632796E-0002	
 1.16850000000000E+0003	 8.04900300619579E-0002	
 1.17050000000000E+0003	 7.90177292606361E-0002	
 1.17250000000000E+0003	 7.76039284593143E-0002	
 1.17450000000000E+0003	 7.62166276579926E-0002	
 1.17650000000000E+0003	 7.48708268566708E-0002	
 1.17850000000000E+0003	 7.35970260553490E-0002	
 1.18050000000000E+0003	 7.24542252540273E-0002	
 1.18250000000000E+0003	 7.15004244527055E-0002	
 1.18450000000000E+0003	 7.07976236513837E-0002	
 1.18650000000000E+0003	 7.03438228500620E-0002	
 1.18850000000000E+0003	 7.01635220487402E-0002	
 1.19050000000000E+0003	 7.02427212474184E-0002	
 1.19250000000000E+0003	 7.05679204460967E-0002	
 1.19450000000000E+0003	 7.11136196447749E-0002	
 1.19650000000000E+0003	 7.18693188434531E-0002	
 1.19850000000000E+0003	 7.27805180421314E-0002	
 1.20050000000000E+0003	 7.37857172408096E-0002	
 1.20250000000000E+0003	 7.48054164394878E-0002	
 1.20450000000000E+0003	 7.58041156381660E-0002	
 1.20650000000000E+0003	 7.67498148368443E-0002	
 1.20850000000000E+0003	 7.76210140355225E-0002	
 1.21050000000000E+0003	 7.84327132342007E-0002	
 1.21250000000000E+0003	 7.92794124328790E-0002	
 1.21450000000000E+0003	 8.02111116315572E-0002	
 1.21650000000000E+0003	 8.11778108302354E-0002	
 1.21850000000000E+0003	 8.20355100289137E-0002	
 1.22050000000000E+0003	 8.27707092275919E-0002	
 1.22250000000000E+0003	 8.34689084262701E-0002	
 1.22450000000000E+0003	 8.41606076249484E-0002	
 1.22650000000000E+0003	 8.48378068236266E-0002	
 1.22850000000000E+0003	 8.55015060223048E-0002	
 1.23050000000000E+0003	 8.61112052209831E-0002	
 1.23250000000000E+0003	 8.66594044196613E-0002	
 1.23450000000000E+0003	 8.71141036183395E-0002	
 1.23650000000000E+0003	 8.74613028170178E-0002	
 1.23850000000000E+0003	 8.76810020156960E-0002	
 1.24050000000000E+0003	 8.77877012143742E-0002	
 1.24250000000000E+0003	 8.77739004130525E-0002	
 1.24450000000000E+0003	 8.76395996117307E-0002	
 1.24650000000000E+0003	 8.73687988104089E-0002	
 1.24850000000000E+0003	 8.69649980090872E-0002	
 1.25050000000000E+0003	 8.64331972077654E-0002	
 1.25250000000000E+0003	 8.58113964064436E-0002	
 1.25450000000000E+0003	 8.51210956051219E-0002	
 1.25650000000000E+0003	 8.44087948038001E-0002	
 1.25850000000000E+0003	 8.36819940024783E-0002	
 1.26050000000000E+0003	 8.29506932011565E-0002	
 1.26250000000000E+0003	 8.22058923998348E-0002	
 1.26450000000000E+0003	 8.14480915985130E-0002	
 1.26650000000000E+0003	 8.06877907971912E-0002	
 1.26850000000000E+0003	 7.99839899958695E-0002	
 1.27050000000000E+0003	 7.93441891945477E-0002	
 1.27250000000000E+0003	 7.87988883932259E-0002	
 1.27450000000000E+0003	 7.83290875919042E-0002	
 1.27650000000000E+0003	 7.79312867905824E-0002	
 1.27850000000000E+0003	 7.76014859892606E-0002	
 1.28050000000000E+0003	 7.73326851879389E-0002	
 1.28250000000000E+0003	 7.70473843866171E-0002	
 1.28450000000000E+0003	 7.67330835852953E-0002	
 1.28650000000000E+0003	 7.64092827839736E-0002	
 1.28850000000000E+0003	 7.61414819826518E-0002	
 1.29050000000000E+0003	 7.59636811813300E-0002	
 1.29250000000000E+0003	 7.58713803800083E-0002	
 1.29450000000000E+0003	 7.58190795786865E-0002	
 1.29650000000000E+0003	 7.58202787773647E-0002	
 1.29850000000000E+0003	 7.58999779760430E-0002	
 1.30050000000000E+0003	 7.60646771747212E-0002	
 1.30250000000000E+0003	 7.62438763733994E-0002	
 1.30450000000000E+0003	 7.64075755720777E-0002	
 1.30650000000000E+0003	 7.65352747707559E-0002	
 1.30850000000000E+0003	 7.66654739694341E-0002	
 1.31050000000000E+0003	 7.67861731681124E-0002	
 1.31250000000000E+0003	 7.68763723667906E-0002	
 1.31450000000000E+0003	 7.69455715654688E-0002	
 1.31650000000000E+0003	 7.69637707641470E-0002	
 1.31850000000000E+0003	 7.68839699628253E-0002	
 1.32050000000000E+0003	 7.67616691615035E-0002	
 1.32250000000000E+0003	 7.65948683601817E-0002	
 1.32450000000000E+0003	 7.64055675588600E-0002	
 1.32650000000000E+0003	 7.62272667575382E-0002	
 1.32850000000000E+0003	 7.61194659562164E-0002	
 1.33050000000000E+0003	 7.60996651548947E-0002	
 1.33250000000000E+0003	 7.61653643535729E-0002	
 1.33450000000000E+0003	 7.62270635522511E-0002	
 1.33650000000000E+0003	 7.61992627509294E-0002	
 1.33850000000000E+0003	 7.60684619496076E-0002	
 1.34050000000000E+0003	 7.60431611482858E-0002	
 1.34250000000000E+0003	 7.61233603469641E-0002	
 1.34450000000000E+0003	 7.60815595456423E-0002	
 1.34650000000000E+0003	 7.59022587443205E-0002	
 1.34850000000000E+0003	 7.57189579429988E-0002	
 1.35050000000000E+0003	 7.56091571416770E-0002	
 1.35250000000000E+0003	 7.55798563403552E-0002	
 1.35450000000000E+0003	 7.55870555390335E-0002	
 1.35650000000000E+0003	 7.56632547377117E-0002	
 1.35850000000000E+0003	 7.57909539363899E-0002	
 1.36050000000000E+0003	 7.59261531350682E-0002	
 1.36250000000000E+0003	 7.62008523337464E-0002	
 1.36450000000000E+0003	 7.69560515324246E-0002	
 1.36650000000000E+0003	 7.79402507311029E-0002	
 1.36850000000000E+0003	 7.89584499297811E-0002	
 1.37050000000000E+0003	 7.99146491284593E-0002	
 1.37250000000000E+0003	 8.06993483271375E-0002	
 1.37450000000000E+0003	 8.14820475258158E-0002	
 1.37650000000000E+0003	 8.22862467244940E-0002	
 1.37850000000000E+0003	 8.28994459231722E-0002	
 1.38050000000000E+0003	 8.34421451218505E-0002	
 1.38250000000000E+0003	 8.39673443205287E-0002	
 1.38450000000000E+0003	 8.43440435192069E-0002	
 1.38650000000000E+0003	 8.43677427178852E-0002	
 1.38850000000000E+0003	 8.45384419165634E-0002	
 1.39050000000000E+0003	 8.50871411152416E-0002	
 1.39250000000000E+0003	 8.57023403139199E-0002	
 1.39450000000000E+0003	 8.62205395125981E-0002	
 1.39650000000000E+0003	 8.68342387112763E-0002	
 1.39850000000000E+0003	 8.74299379099546E-0002	
 1.40050000000000E+0003	 8.79811371086328E-0002	
 1.40250000000000E+0003	 8.81223363073110E-0002	
 1.40450000000000E+0003	 8.78760355059893E-0002	
 1.40650000000000E+0003	 8.74502347046675E-0002	
 1.40850000000000E+0003	 8.69319339033457E-0002	
 1.41050000000000E+0003	 8.63366331020240E-0002	
 1.41250000000000E+0003	 8.57538323007022E-0002	
 1.41450000000000E+0003	 8.51990314993804E-0002	
 1.41650000000000E+0003	 8.44777306980587E-0002	
 1.41850000000000E+0003	 8.35019298967369E-0002	
 1.42050000000000E+0003	 8.27581290954151E-0002	
 1.42250000000000E+0003	 8.23833282940933E-0002	
 1.42450000000000E+0003	 8.20590274927716E-0002	
 1.42650000000000E+0003	 8.15322266914498E-0002	
 1.42850000000000E+0003	 8.09224258901280E-0002	
 1.43050000000000E+0003	 8.04761250888063E-0002	
 1.43250000000000E+0003	 8.02573242874845E-0002	
 1.43450000000000E+0003	 8.00995234861627E-0002	
 1.43650000000000E+0003	 7.99032226848410E-0002	
 1.43850000000000E+0003	 8.02404218835192E-0002	
 1.44050000000000E+0003	 8.09216210821974E-0002	
 1.44250000000000E+0003	 8.15853202808757E-0002	
 1.44450000000000E+0003	 8.19610194795539E-0002	
 1.44650000000000E+0003	 8.22172186782321E-0002	
 1.44850000000000E+0003	 8.25179178769104E-0002	
 1.45050000000000E+0003	 8.28466170755886E-0002	
 1.45250000000000E+0003	 8.30998162742668E-0002	
 1.45450000000000E+0003	 8.29170154729451E-0002	
 1.45650000000000E+0003	 8.17472146716233E-0002	
 1.45850000000000E+0003	 8.08359138703015E-0002	
 1.46050000000000E+0003	 8.06301130689798E-0002	
 1.46250000000000E+0003	 8.03148122676580E-0002	
 1.46450000000000E+0003	 7.93680114663362E-0002	
 1.46650000000000E+0003	 7.83762106650145E-0002	
 1.46850000000000E+0003	 7.74609098636927E-0002	
 1.47050000000000E+0003	 7.61861090623709E-0002	
 1.47250000000000E+0003	 7.42008082610492E-0002	
 1.47450000000000E+0003	 7.24265074597274E-0002	
 1.47650000000000E+0003	 7.14542066584056E-0002	
 1.47850000000000E+0003	 7.09904058570838E-0002	
 1.48050000000000E+0003	 7.05506050557621E-0002	
 1.48250000000000E+0003	 7.02753042544403E-0002	
 1.48450000000000E+0003	 7.00810034531185E-0002	
 1.48650000000000E+0003	 6.99607026517968E-0002	
 1.48850000000000E+0003	 6.99104018504750E-0002	
 1.49050000000000E+0003	 7.02811010491532E-0002	
 1.49250000000000E+0003	 7.11233002478315E-0002	
 1.49450000000000E+0003	 7.18464994465097E-0002	
 1.49650000000000E+0003	 7.24451986451879E-0002	
 1.49850000000000E+0003	 7.33858978438662E-0002	
 1.50050000000000E+0003	 7.46280970425444E-0002	
 1.50250000000000E+0003	 7.59097962412226E-0002	
 1.50450000000000E+0003	 7.66829954399009E-0002	
 1.50650000000000E+0003	 7.74936946385791E-0002	
 1.50850000000000E+0003	 7.95278938372573E-0002	
 1.51050000000000E+0003	 8.20705930359356E-0002	
 1.51250000000000E+0003	 8.49167922346138E-0002	
 1.51450000000000E+0003	 8.72569914332920E-0002	
 1.51650000000000E+0003	 8.92586906319703E-0002	
 1.51850000000000E+0003	 9.10033898306485E-0002	
 1.52050000000000E+0003	 9.20020890293267E-0002	
 1.52250000000000E+0003	 9.37247882280050E-0002	
 1.52450000000000E+0003	 9.57654874266832E-0002	
 1.52650000000000E+0003	 9.80916866253614E-0002	
 1.52850000000000E+0003	 1.00517385824040E-0001	
 1.53050000000000E+0003	 1.02606585022718E-0001	
 1.53250000000000E+0003	 1.04436784221396E-0001	
 1.53450000000000E+0003	 1.06701483420074E-0001	
 1.53650000000000E+0003	 1.08371182618753E-0001	
 1.53850000000000E+0003	 1.09381881817431E-0001	
 1.54050000000000E+0003	 1.10852081016109E-0001	
 1.54250000000000E+0003	 1.12414780214787E-0001	
 1.54450000000000E+0003	 1.13847979413466E-0001	
 1.54650000000000E+0003	 1.15044678612144E-0001	
 1.54850000000000E+0003	 1.15312877810822E-0001	
 1.55050000000000E+0003	 1.14861577009500E-0001	
 1.55250000000000E+0003	 1.13730276208178E-0001	
 1.55450000000000E+0003	 1.11927475406857E-0001	
 1.55650000000000E+0003	 1.09824174605535E-0001	
 1.55850000000000E+0003	 1.06955873804213E-0001	
 1.56050000000000E+0003	 1.04516573002891E-0001	
 1.56250000000000E+0003	 1.03024772201570E-0001	
 1.56450000000000E+0003	 1.02474971400248E-0001	
 1.56650000000000E+0003	 1.01270170598926E-0001	
 1.56850000000000E+0003	 9.96263697976043E-0002	
 1.57050000000000E+0003	 9.81405689962825E-0002	
 1.57250000000000E+0003	 9.69292681949608E-0002	
 1.57450000000000E+0003	 9.56164673936390E-0002	
 1.57650000000000E+0003	 9.39931665923172E-0002	
 1.57850000000000E+0003	 9.29023657909955E-0002	
 1.58050000000000E+0003	 9.25750649896737E-0002	
 1.58250000000000E+0003	 9.21922641883519E-0002	
 1.58450000000000E+0003	 9.17629633870302E-0002	
 1.58650000000000E+0003	 9.15411625857084E-0002	
 1.58850000000000E+0003	 9.16443617843866E-0002	
 1.59050000000000E+0003	 9.20265609830648E-0002	
 1.59250000000000E+0003	 9.27447601817431E-0002	
 1.59450000000000E+0003	 9.36939593804213E-0002	
 1.59650000000000E+0003	 9.49386585790995E-0002	
 1.59850000000000E+0003	 9.63263577777778E-0002	
 1.60050000000000E+0003	 9.79430569764560E-0002	
 1.60250000000000E+0003	 9.97762561751342E-0002	
 1.60450000000000E+0003	 1.01887955373812E-0001	
 1.60650000000000E+0003	 1.04160154572491E-0001	
 1.60850000000000E+0003	 1.06786353771169E-0001	
 1.61050000000000E+0003	 1.09753052969847E-0001	
 1.61250000000000E+0003	 1.12978252168525E-0001	
 1.61450000000000E+0003	 1.16019451367204E-0001	
 1.61650000000000E+0003	 1.19513150565882E-0001	
 1.61850000000000E+0003	 1.23792349764560E-0001	
 1.62050000000000E+0003	 1.27890548963238E-0001	
 1.62250000000000E+0003	 1.32432248161917E-0001	
 1.62450000000000E+0003	 1.37494947360595E-0001	
 1.62650000000000E+0003	 1.42127146559273E-0001	
 1.62850000000000E+0003	 1.47117345757951E-0001	
 1.63050000000000E+0003	 1.52010544956629E-0001	
 1.63250000000000E+0003	 1.55980244155308E-0001	
 1.63450000000000E+0003	 1.59360943353986E-0001	
 1.63650000000000E+0003	 1.63063142552664E-0001	
 1.63850000000000E+0003	 1.65979841751342E-0001	
 1.64050000000000E+0003	 1.68231040950021E-0001	
 1.64250000000000E+0003	 1.70010240148699E-0001	
 1.64450000000000E+0003	 1.70930439347377E-0001	
 1.64650000000000E+0003	 1.71783138546055E-0001	
 1.64850000000000E+0003	 1.73251837744734E-0001	
 1.65050000000000E+0003	 1.74012036943412E-0001	
 1.65250000000000E+0003	 1.73711236142090E-0001	
 1.65450000000000E+0003	 1.74140435340768E-0001	
 1.65650000000000E+0003	 1.74169134539447E-0001	
 1.65850000000000E+0003	 1.74024833738125E-0001	
 1.66050000000000E+0003	 1.72372032936803E-0001	
 1.66250000000000E+0003	 1.69618232135481E-0001	
 1.66450000000000E+0003	 1.66457931334159E-0001	
 1.66650000000000E+0003	 1.63300630532838E-0001	
 1.66850000000000E+0003	 1.59812829731516E-0001	
 1.67050000000000E+0003	 1.56122528930194E-0001	
 1.67250000000000E+0003	 1.52804228128872E-0001	
 1.67450000000000E+0003	 1.49503427327551E-0001	
 1.67650000000000E+0003	 1.46059626526229E-0001	
 1.67850000000000E+0003	 1.42963825724907E-0001	
 1.68050000000000E+0003	 1.40052524923585E-0001	
 1.68250000000000E+0003	 1.36757724122264E-0001	
 1.68450000000000E+0003	 1.32540423320942E-0001	
 1.68650000000000E+0003	 1.28830622519620E-0001	
 1.68850000000000E+0003	 1.26176821718298E-0001	
 1.69050000000000E+0003	 1.23600520916976E-0001	
 1.69250000000000E+0003	 1.20505220115655E-0001	
 1.69450000000000E+0003	 1.16806419314333E-0001	
 1.69650000000000E+0003	 1.12507618513011E-0001	
 1.69850000000000E+0003	 1.09085817711689E-0001	
 1.70050000000000E+0003	 1.05910516910368E-0001	
 1.70250000000000E+0003	 1.03412716109046E-0001	
 1.70450000000000E+0003	 1.01667415307724E-0001	
 1.70650000000000E+0003	 1.00200114506402E-0001	
 1.70850000000000E+0003	 9.84333137050805E-0002	
 1.71050000000000E+0003	 9.67850129037588E-0002	
 1.71250000000000E+0003	 9.50727121024370E-0002	
 1.71450000000000E+0003	 9.30659113011152E-0002	
 1.71650000000000E+0003	 9.05406104997935E-0002	
 1.71850000000000E+0003	 8.80078096984717E-0002	
 1.72050000000000E+0003	 8.63215088971499E-0002	
 1.72250000000000E+0003	 8.48967080958282E-0002	
 1.72450000000000E+0003	 8.32804072945064E-0002	
 1.72650000000000E+0003	 8.16106064931846E-0002	
 1.72850000000000E+0003	 7.99633056918629E-0002	
 1.73050000000000E+0003	 7.85180048905411E-0002	
 1.73250000000000E+0003	 7.68532040892193E-0002	
 1.73450000000000E+0003	 7.52109032878976E-0002	
 1.73650000000000E+0003	 7.45231024865758E-0002	
 1.73850000000000E+0003	 7.42303016852540E-0002	
 1.74050000000000E+0003	 7.39130008839323E-0002	
 1.74250000000000E+0003	 7.31817000826105E-0002	
 1.74450000000000E+0003	 7.24683992812887E-0002	
 1.74650000000000E+0003	 7.17400984799670E-0002	
 1.74850000000000E+0003	 7.07827976786452E-0002	
 1.75050000000000E+0003	 6.95854968773234E-0002	
 1.75250000000000E+0003	 6.84211960760017E-0002	
 1.75450000000000E+0003	 6.76038952746799E-0002	
 1.75650000000000E+0003	 6.67170944733581E-0002	
 1.75850000000000E+0003	 6.57702936720363E-0002	
 1.76050000000000E+0003	 6.46459928707146E-0002	
 1.76250000000000E+0003	 6.36861920693928E-0002	
 1.76450000000000E+0003	 6.28883912680710E-0002	
 1.76650000000000E+0003	 6.20645904667493E-0002	
 1.76850000000000E+0003	 6.12212896654275E-0002	
 1.77050000000000E+0003	 6.03984888641057E-0002	
 1.77250000000000E+0003	 5.96691880627840E-0002	
 1.77450000000000E+0003	 5.91333872614622E-0002	
 1.77650000000000E+0003	 5.87890864601404E-0002	
 1.77850000000000E+0003	 5.86047856588187E-0002	
 1.78050000000000E+0003	 5.82029848574969E-0002	
 1.78250000000000E+0003	 5.78526840561751E-0002	
 1.78450000000000E+0003	 5.73688832548534E-0002	
 1.78650000000000E+0003	 5.70480824535316E-0002	
 1.78850000000000E+0003	 5.67512816522098E-0002	
 1.79050000000000E+0003	 5.62734808508881E-0002	
 1.79250000000000E+0003	 5.57891800495663E-0002	
 1.79450000000000E+0003	 5.54963792482445E-0002	
 1.79650000000000E+0003	 5.52805784469228E-0002	
 1.79850000000000E+0003	 5.51502776456010E-0002	
 1.80050000000000E+0003	 5.48424768442792E-0002	
 1.80250000000000E+0003	 5.45411760429575E-0002	
 1.80450000000000E+0003	 5.43423752416357E-0002	
 1.80650000000000E+0003	 5.41930744403139E-0002	
 1.80850000000000E+0003	 5.39512736389922E-0002	
 1.81050000000000E+0003	 5.36894728376704E-0002	
 1.81250000000000E+0003	 5.35006720363486E-0002	
 1.81450000000000E+0003	 5.33138712350268E-0002	
 1.81650000000000E+0003	 5.31070704337051E-0002	
 1.81850000000000E+0003	 5.29267696323833E-0002	
 1.82050000000000E+0003	 5.27534688310615E-0002	
 1.82250000000000E+0003	 5.25376680297398E-0002	
 1.82450000000000E+0003	 5.22198672284180E-0002	
 1.82650000000000E+0003	 5.20605664270962E-0002	
 1.82850000000000E+0003	 5.17802656257745E-0002	
 1.83050000000000E+0003	 5.16894648244527E-0002	
 1.83250000000000E+0003	 5.16126640231309E-0002	
 1.83450000000000E+0003	 5.14543632218092E-0002	
 1.83650000000000E+0003	 5.13945624204874E-0002	
 1.83850000000000E+0003	 5.12872616191656E-0002	
 1.84050000000000E+0003	 5.11554608178439E-0002	
 1.84250000000000E+0003	 5.07916600165221E-0002	
 1.84450000000000E+0003	 5.04433592152003E-0002	
 1.84650000000000E+0003	 5.03270584138786E-0002	
 1.84850000000000E+0003	 5.03257576125568E-0002	
 1.85050000000000E+0003	 5.04684568112350E-0002	
 1.85250000000000E+0003	 5.04361560099133E-0002	
 1.85450000000000E+0003	 5.03658552085915E-0002	
 1.85650000000000E+0003	 5.02545544072697E-0002	
 1.85850000000000E+0003	 5.01382536059480E-0002	
 1.86050000000000E+0003	 5.00254528046262E-0002	
 1.86250000000000E+0003	 4.99331520033044E-0002	
 1.86450000000000E+0003	 4.98328512019827E-0002	
 1.86650000000000E+0003	 4.96405504006609E-0002	
 1.86850000000000E+0003	 4.94277495993391E-0002	
 1.87050000000000E+0003	 4.93914487980173E-0002	
 1.87250000000000E+0003	 4.93526479966956E-0002	
 1.87450000000000E+0003	 4.93938471953738E-0002	
 1.87650000000000E+0003	 4.94050463940520E-0002	
 1.87850000000000E+0003	 4.93342455927303E-0002	
 1.88050000000000E+0003	 4.92659447914085E-0002	
 1.88250000000000E+0003	 4.92026439900867E-0002	
 1.88450000000000E+0003	 4.91438431887650E-0002	
 1.88650000000000E+0003	 4.90720423874432E-0002	
 1.88850000000000E+0003	 4.89187415861214E-0002	
 1.89050000000000E+0003	 4.88779407847997E-0002	
 1.89250000000000E+0003	 4.88391399834779E-0002	
 1.89450000000000E+0003	 4.87608391821561E-0002	
 1.89650000000000E+0003	 4.87770383808344E-0002	
 1.89850000000000E+0003	 4.87457375795126E-0002	
 1.90050000000000E+0003	 4.87119367781908E-0002	
 1.90250000000000E+0003	 4.86736359768691E-0002	
 1.90450000000000E+0003	 4.86358351755473E-0002	
 1.90650000000000E+0003	 4.85770343742255E-0002	
 1.90850000000000E+0003	 4.84962335729038E-0002	
 1.91050000000000E+0003	 4.84684327715820E-0002	
 1.91250000000000E+0003	 4.84596319702602E-0002	
 1.91450000000000E+0003	 4.84353311689385E-0002	
 1.91650000000000E+0003	 4.83125303676167E-0002	
 1.91850000000000E+0003	 4.82327295662949E-0002	
 1.92050000000000E+0003	 4.82039287649732E-0002	
 1.92250000000000E+0003	 4.81331279636514E-0002	
 1.92450000000000E+0003	 4.82318271623296E-0002	
 1.92650000000000E+0003	 4.82570263610078E-0002	
 1.92850000000000E+0003	 4.82727255596861E-0002	
 1.93050000000000E+0003	 4.82714247583643E-0002	
 1.93250000000000E+0003	 4.82516239570425E-0002	
 1.93450000000000E+0003	 4.82423231557208E-0002	
 1.93650000000000E+0003	 4.82320223543990E-0002	
 1.93850000000000E+0003	 4.82262215530772E-0002	
 1.94050000000000E+0003	 4.81444207517555E-0002	
 1.94250000000000E+0003	 4.80601199504337E-0002	
 1.94450000000000E+0003	 4.80938191491119E-0002	
 1.94650000000000E+0003	 4.81090183477902E-0002	
 1.94850000000000E+0003	 4.81582175464684E-0002	
 1.95050000000000E+0003	 4.81739167451466E-0002	
 1.95250000000000E+0003	 4.81766159438249E-0002	
 1.95450000000000E+0003	 4.81728151425031E-0002	
 1.95650000000000E+0003	 4.81825143411813E-0002	
 1.95850000000000E+0003	 4.81892135398596E-0002	
 1.96050000000000E+0003	 4.81859127385378E-0002	
 1.96250000000000E+0003	 4.81971119372160E-0002	
 1.96450000000000E+0003	 4.81783111358943E-0002	
 1.96650000000000E+0003	 4.81285103345725E-0002	
 1.96850000000000E+0003	 4.81457095332507E-0002	
 1.97050000000000E+0003	 4.81779087319290E-0002	
 1.97250000000000E+0003	 4.81966079306072E-0002	
 1.97450000000000E+0003	 4.82183071292854E-0002	
 1.97650000000000E+0003	 4.82255063279637E-0002	
 1.97850000000000E+0003	 4.82372055266419E-0002	
 1.98050000000000E+0003	 4.82439047253201E-0002	
 1.98250000000000E+0003	 4.82531039239983E-0002	
 1.98450000000000E+0003	 4.82608031226766E-0002	
 1.98650000000000E+0003	 4.82525023213548E-0002	
 1.98850000000000E+0003	 4.82417015200330E-0002	
 1.99050000000000E+0003	 4.82049007187113E-0002	
 1.99250000000000E+0003	 4.81970999173895E-0002	
 1.99450000000000E+0003	 4.82607991160677E-0002	
 1.99650000000000E+0003	 4.82934983147460E-0002	
 1.99850000000000E+0003	 4.83396975134242E-0002	
 2.00050000000000E+0003	 4.83638967121024E-0002	
 2.00250000000000E+0003	 4.83815959107807E-0002	
 2.00450000000000E+0003	 4.83962951094589E-0002	
 2.00650000000000E+0003	 4.84149943081371E-0002	
 2.00850000000000E+0003	 4.84321935068154E-0002	
 2.01050000000000E+0003	 4.84548927054936E-0002	
 2.01250000000000E+0003	 4.84800919041718E-0002	
 2.01450000000000E+0003	 4.84892911028501E-0002	
 2.01650000000000E+0003	 4.84729903015283E-0002	
 2.01850000000000E+0003	 4.84981895002065E-0002	
 2.02050000000000E+0003	 4.85403886988848E-0002	
 2.02250000000000E+0003	 4.85845878975630E-0002	
 2.02450000000000E+0003	 4.86252870962412E-0002	
 2.02650000000000E+0003	 4.86569862949195E-0002	
 2.02850000000000E+0003	 4.86836854935977E-0002	
 2.03050000000000E+0003	 4.87093846922759E-0002	
 2.03250000000000E+0003	 4.87360838909542E-0002	
 2.03450000000000E+0003	 4.87587830896324E-0002	
 2.03650000000000E+0003	 4.87789822883106E-0002	
 2.03850000000000E+0003	 4.87951814869888E-0002	
 2.04050000000000E+0003	 4.87943806856671E-0002	
 2.04250000000000E+0003	 4.88080798843453E-0002	
 2.04450000000000E+0003	 4.88377790830235E-0002	
 2.04650000000000E+0003	 4.88614782817018E-0002	
 2.04850000000000E+0003	 4.88791774803800E-0002	
 2.05050000000000E+0003	 4.88908766790582E-0002	
 2.05250000000000E+0003	 4.89030758777365E-0002	
 2.05450000000000E+0003	 4.89122750764147E-0002	
 2.05650000000000E+0003	 4.89189742750929E-0002	
 2.05850000000000E+0003	 4.89246734737712E-0002	
 2.06050000000000E+0003	 4.89298726724494E-0002	
 2.06250000000000E+0003	 4.89270718711276E-0002	
 2.06450000000000E+0003	 4.89062710698059E-0002	
 2.06650000000000E+0003	 4.89124702684841E-0002	
 2.06850000000000E+0003	 4.89271694671623E-0002	
 2.07050000000000E+0003	 4.89403686658406E-0002	
 2.07250000000000E+0003	 4.89500678645188E-0002	
 2.07450000000000E+0003	 4.89507670631970E-0002	
 2.07650000000000E+0003	 4.89519662618753E-0002	
 2.07850000000000E+0003	 4.89496654605535E-0002	
 2.08050000000000E+0003	 4.89438646592317E-0002	
 2.08250000000000E+0003	 4.89385638579100E-0002	
 2.08450000000000E+0003	 4.89367630565882E-0002	
 2.08650000000000E+0003	 4.89284622552664E-0002	
 2.08850000000000E+0003	 4.89131614539447E-0002	
 2.09050000000000E+0003	 4.89018606526229E-0002	
 2.09250000000000E+0003	 4.89020598513011E-0002	
 2.09450000000000E+0003	 4.88972590499793E-0002	
 2.09650000000000E+0003	 4.88894582486576E-0002	
 2.09850000000000E+0003	 4.88796574473358E-0002	
 2.10050000000000E+0003	 4.88663566460140E-0002	
 2.10250000000000E+0003	 4.88550558446923E-0002	
 2.10450000000000E+0003	 4.88432550433705E-0002	
 2.10650000000000E+0003	 4.88379542420487E-0002	
 2.10850000000000E+0003	 4.88216534407270E-0002	
 2.11050000000000E+0003	 4.88068526394052E-0002	
 2.11250000000000E+0003	 4.87900518380834E-0002	
 2.11450000000000E+0003	 4.87707510367617E-0002	
 2.11650000000000E+0003	 4.87504502354399E-0002	
 2.11850000000000E+0003	 4.87381494341181E-0002	
 2.12050000000000E+0003	 4.87183486327964E-0002	
 2.12250000000000E+0003	 4.86995478314746E-0002	
 2.12450000000000E+0003	 4.86792470301528E-0002	
 2.12650000000000E+0003	 4.86629462288311E-0002	
 2.12850000000000E+0003	 4.86376454275093E-0002	
 2.13050000000000E+0003	 4.86098446261875E-0002	
 2.13250000000000E+0003	 4.85855438248658E-0002	
 2.13450000000000E+0003	 4.85607430235440E-0002	
 2.13650000000000E+0003	 4.85289422222222E-0002	
 2.13850000000000E+0003	 4.84966414209005E-0002	
 2.14050000000000E+0003	 4.84698406195787E-0002	
 2.14250000000000E+0003	 4.84475398182569E-0002	
 2.14450000000000E+0003	 4.84197390169352E-0002	
 2.14650000000000E+0003	 4.83879382156134E-0002	
 2.14850000000000E+0003	 4.83581374142916E-0002	
 2.15050000000000E+0003	 4.83298366129698E-0002	
 2.15250000000000E+0003	 4.82975358116481E-0002	
 2.15450000000000E+0003	 4.82612350103263E-0002	
 2.15650000000000E+0003	 4.82249342090045E-0002	
 2.15850000000000E+0003	 4.81901334076828E-0002	
 2.16050000000000E+0003	 4.81523326063610E-0002	
 2.16250000000000E+0003	 4.81135318050392E-0002	
 2.16450000000000E+0003	 4.80752310037175E-0002	
 2.16650000000000E+0003	 4.80419302023957E-0002	
 2.16850000000000E+0003	 4.80156294010739E-0002	
 2.17050000000000E+0003	 4.79778285997522E-0002	
 2.17250000000000E+0003	 4.79290277984304E-0002	
 2.17450000000000E+0003	 4.78807269971086E-0002	
 2.17650000000000E+0003	 4.78344261957869E-0002	
 2.17850000000000E+0003	 4.77926253944651E-0002	
 2.18050000000000E+0003	 4.77518245931433E-0002	
 2.18250000000000E+0003	 4.77080237918216E-0002	
 2.18450000000000E+0003	 4.76642229904998E-0002	
 2.18650000000000E+0003	 4.76244221891780E-0002	
 2.18850000000000E+0003	 4.75891213878563E-0002	
 2.19050000000000E+0003	 4.75508205865345E-0002	
 2.19250000000000E+0003	 4.75125197852127E-0002	
 2.19450000000000E+0003	 4.74752189838910E-0002	
 2.19650000000000E+0003	 4.74339181825692E-0002	
 2.19850000000000E+0003	 4.73911173812474E-0002	
 2.20050000000000E+0003	 4.73523165799257E-0002	
 2.20250000000000E+0003	 4.73165157786039E-0002	
 2.20450000000000E+0003	 4.72802149772821E-0002	
 2.20650000000000E+0003	 4.72419141759603E-0002	
 2.20850000000000E+0003	 4.72046133746386E-0002	
 2.21050000000000E+0003	 4.71708125733168E-0002	
 2.21250000000000E+0003	 4.71385117719950E-0002	
 2.21450000000000E+0003	 4.71042109706733E-0002	
 2.21650000000000E+0003	 4.70679101693515E-0002	
 2.21850000000000E+0003	 4.70316093680297E-0002	
 2.22050000000000E+0003	 4.69983085667080E-0002	
 2.22250000000000E+0003	 4.69640077653862E-0002	
 2.22450000000000E+0003	 4.69282069640644E-0002	
 2.22650000000000E+0003	 4.68949061627427E-0002	
 2.22850000000000E+0003	 4.68616053614209E-0002	
 2.23050000000000E+0003	 4.68323045600991E-0002	
 2.23250000000000E+0003	 4.68035037587774E-0002	
 2.23450000000000E+0003	 4.67722029574556E-0002	
 2.23650000000000E+0003	 4.67399021561338E-0002	
 2.23850000000000E+0003	 4.67141013548121E-0002	
 2.24050000000000E+0003	 4.66918005534903E-0002	
 2.24250000000000E+0003	 4.66664997521685E-0002	
 2.24450000000000E+0003	 4.66416989508468E-0002	
 2.24650000000000E+0003	 4.66198981495250E-0002	
 2.24850000000000E+0003	 4.65995973482032E-0002	
 2.25050000000000E+0003	 4.65832965468815E-0002	
 2.25250000000000E+0003	 4.65674957455597E-0002	
 2.25450000000000E+0003	 4.65501949442379E-0002	
 2.25650000000000E+0003	 4.65283941429162E-0002	
 2.25850000000000E+0003	 4.65045933415944E-0002	
 2.26050000000000E+0003	 4.64787925402726E-0002	
 2.26250000000000E+0003	 4.64524917389508E-0002	
 2.26450000000000E+0003	 4.64266909376291E-0002	
 2.26650000000000E+0003	 4.64003901363073E-0002	
 2.26850000000000E+0003	 4.63725893349855E-0002	
 2.27050000000000E+0003	 4.63462885336638E-0002	
 2.27250000000000E+0003	 4.63244877323420E-0002	
 2.27450000000000E+0003	 4.63101869310202E-0002	
 2.27650000000000E+0003	 4.63008861296985E-0002	
 2.27850000000000E+0003	 4.62925853283767E-0002	
 2.28050000000000E+0003	 4.62782845270549E-0002	
 2.28250000000000E+0003	 4.62644837257332E-0002	
 2.28450000000000E+0003	 4.62771829244114E-0002	
 2.28650000000000E+0003	 4.63313821230896E-0002	
 2.28850000000000E+0003	 4.64095813217679E-0002	
 2.29050000000000E+0003	 4.64992805204461E-0002	
 2.29250000000000E+0003	 4.66074797191243E-0002	
 2.29450000000000E+0003	 4.67236789178026E-0002	
 2.29650000000000E+0003	 4.68128781164808E-0002	
 2.29850000000000E+0003	 4.68575773151590E-0002	
 2.30050000000000E+0003	 4.68512765138373E-0002	
 2.30250000000000E+0003	 4.67704757125155E-0002	
 2.30450000000000E+0003	 4.67011749111937E-0002	
 2.30650000000000E+0003	 4.67428741098720E-0002	
 2.30850000000000E+0003	 4.68040733085502E-0002	
 2.31050000000000E+0003	 4.67482725072284E-0002	
 2.31250000000000E+0003	 4.65604717059067E-0002	
 2.31450000000000E+0003	 4.64396709045849E-0002	
 2.31650000000000E+0003	 4.64638701032631E-0002	
 2.31850000000000E+0003	 4.64455693019413E-0002	
 2.32050000000000E+0003	 4.64317685006196E-0002	
 2.32250000000000E+0003	 4.65064676992978E-0002	
 2.32450000000000E+0003	 4.65681668979760E-0002	
 2.32650000000000E+0003	 4.65148660966543E-0002	
 2.32850000000000E+0003	 4.62975652953325E-0002	
 2.33050000000000E+0003	 4.60287644940107E-0002	
 2.33250000000000E+0003	 4.58764636926890E-0002	
 2.33450000000000E+0003	 4.58076628913672E-0002	
 2.33650000000000E+0003	 4.58183620900454E-0002	
 2.33850000000000E+0003	 4.59125612887237E-0002	
 2.34050000000000E+0003	 4.62197604874019E-0002	
 2.34250000000000E+0003	 4.65484596860801E-0002	
 2.34450000000000E+0003	 4.64146588847584E-0002	
 2.34650000000000E+0003	 4.60573580834366E-0002	
 2.34850000000000E+0003	 4.59430572821148E-0002	
 2.35050000000000E+0003	 4.58962564807931E-0002	
 2.35250000000000E+0003	 4.57949556794713E-0002	
 2.35450000000000E+0003	 4.57666548781495E-0002	
 2.35650000000000E+0003	 4.58838540768278E-0002	
 2.35850000000000E+0003	 4.58795532755060E-0002	
 2.36050000000000E+0003	 4.57127524741842E-0002	
 2.36250000000000E+0003	 4.56514516728625E-0002	
 2.36450000000000E+0003	 4.57111508715407E-0002	
 2.36650000000000E+0003	 4.57903500702189E-0002	
 2.36850000000000E+0003	 4.58755492688972E-0002	
 2.37050000000000E+0003	 4.58567484675754E-0002	
 2.37250000000000E+0003	 4.55894476662536E-0002	
 2.37450000000000E+0003	 4.52081468649318E-0002	
 2.37650000000000E+0003	 4.51078460636101E-0002	
 2.37850000000000E+0003	 4.54740452622883E-0002	
 2.38050000000000E+0003	 4.60192444609665E-0002	
 2.38250000000000E+0003	 4.63254436596448E-0002	
 2.38450000000000E+0003	 4.62841428583230E-0002	
 2.38650000000000E+0003	 4.60868420570012E-0002	
 2.38850000000000E+0003	 4.59220412556795E-0002	
 2.39050000000000E+0003	 4.58437404543577E-0002	
 2.39250000000000E+0003	 4.58234396530359E-0002	
 2.39450000000000E+0003	 4.58306388517142E-0002	
 2.39650000000000E+0003	 4.58448380503924E-0002	
 2.39850000000000E+0003	 4.58620372490706E-0002	
 2.40050000000000E+0003	 4.58792364477489E-0002	
 2.40250000000000E+0003	 4.59024356464271E-0002	
 2.40450000000000E+0003	 4.59256348451053E-0002	
 2.40650000000000E+0003	 4.59488340437836E-0002	
 2.40850000000000E+0003	 4.59665332424618E-0002	
 2.41050000000000E+0003	 4.59862324411400E-0002	
 2.41250000000000E+0003	 4.60109316398183E-0002	
 2.41450000000000E+0003	 4.60421308384965E-0002	
 2.41650000000000E+0003	 4.60718300371747E-0002	
 2.41850000000000E+0003	 4.61010292358530E-0002	
 2.42050000000000E+0003	 4.61317284345312E-0002	
 2.42250000000000E+0003	 4.61674276332094E-0002	
 2.42450000000000E+0003	 4.62006268318876E-0002	
 2.42650000000000E+0003	 4.62353260305659E-0002	
 2.42850000000000E+0003	 4.62700252292441E-0002	
 2.43050000000000E+0003	 4.63067244279223E-0002	
 2.43250000000000E+0003	 4.63394236266006E-0002	
 2.43450000000000E+0003	 4.63776228252788E-0002	
 2.43650000000000E+0003	 4.64158220239570E-0002	
 2.43850000000000E+0003	 4.64530212226353E-0002	
 2.44050000000000E+0003	 4.64897204213135E-0002	
 2.44250000000000E+0003	 4.65304196199917E-0002	
 2.44450000000000E+0003	 4.65681188186700E-0002	
 2.44650000000000E+0003	 4.66073180173482E-0002	
 2.44850000000000E+0003	 4.66440172160264E-0002	
 2.45050000000000E+0003	 4.66817164147047E-0002	
 2.45250000000000E+0003	 4.67229156133829E-0002	
 2.45450000000000E+0003	 4.67656148120611E-0002	
 2.45650000000000E+0003	 4.68073140107394E-0002	
 2.45850000000000E+0003	 4.68520132094176E-0002	
 2.46050000000000E+0003	 4.68962124080958E-0002	
 2.46250000000000E+0003	 4.69429116067741E-0002	
 2.46450000000000E+0003	 4.69891108054523E-0002	
 2.46650000000000E+0003	 4.70363100041305E-0002	
 2.46850000000000E+0003	 4.70840092028088E-0002	
 2.47050000000000E+0003	 4.71337084014870E-0002	
 2.47250000000000E+0003	 4.71819076001652E-0002	
 2.47450000000000E+0003	 4.72311067988435E-0002	
 2.47650000000000E+0003	 4.72818059975217E-0002	
 2.47850000000000E+0003	 4.73355051961999E-0002	
 2.48050000000000E+0003	 4.73872043948781E-0002	
 2.48250000000000E+0003	 4.74364035935564E-0002	
 2.48450000000000E+0003	 4.74851027922346E-0002	
 2.48650000000000E+0003	 4.75328019909128E-0002	
 2.48850000000000E+0003	 4.75825011895911E-0002	
 2.49050000000000E+0003	 4.76367003882693E-0002	
 2.49250000000000E+0003	 4.76918995869475E-0002	
 2.49450000000000E+0003	 4.77430987856258E-0002	
 2.49650000000000E+0003	 4.77917979843040E-0002	
 2.49850000000000E+0003	 4.78399971829822E-0002	
 2.50050000000000E+0003	 4.78891963816605E-0002	
 2.50250000000000E+0003	 4.79413955803387E-0002	
 2.50450000000000E+0003	 4.79945947790169E-0002	
 2.50650000000000E+0003	 4.80467939776952E-0002	
 2.50850000000000E+0003	 4.80979931763734E-0002	
 2.51050000000000E+0003	 4.81426923750516E-0002	
 2.51250000000000E+0003	 4.81873915737299E-0002	
 2.51450000000000E+0003	 4.82325907724081E-0002	
 2.51650000000000E+0003	 4.82732899710863E-0002	
 2.51850000000000E+0003	 4.83144891697646E-0002	
 2.52050000000000E+0003	 4.83596883684428E-0002	
 2.52250000000000E+0003	 4.84013875671210E-0002	
 2.52450000000000E+0003	 4.84410867657993E-0002	
 2.52650000000000E+0003	 4.84837859644775E-0002	
 2.52850000000000E+0003	 4.85269851631557E-0002	
 2.53050000000000E+0003	 4.85706843618340E-0002	
 2.53250000000000E+0003	 4.86133835605122E-0002	
 2.53450000000000E+0003	 4.86510827591904E-0002	
 2.53650000000000E+0003	 4.86882819578686E-0002	
 2.53850000000000E+0003	 4.87334811565469E-0002	
 2.54050000000000E+0003	 4.87806803552251E-0002	
 2.54250000000000E+0003	 4.88223795539033E-0002	
 2.54450000000000E+0003	 4.88625787525816E-0002	
 2.54650000000000E+0003	 4.89067779512598E-0002	
 2.54850000000000E+0003	 4.89524771499380E-0002	
 2.55050000000000E+0003	 4.89946763486163E-0002	
 2.55250000000000E+0003	 4.90373755472945E-0002	
 2.55450000000000E+0003	 4.90870747459727E-0002	
 2.55650000000000E+0003	 4.91342739446510E-0002	
 2.55850000000000E+0003	 4.91799731433292E-0002	
 2.56050000000000E+0003	 4.92256723420074E-0002	
 2.56250000000000E+0003	 4.92738715406857E-0002	
 2.56450000000000E+0003	 4.93230707393639E-0002	
 2.56650000000000E+0003	 4.93712699380421E-0002	
 2.56850000000000E+0003	 4.94174691367204E-0002	
 2.57050000000000E+0003	 4.94706683353986E-0002	
 2.57250000000000E+0003	 4.95248675340768E-0002	
 2.57450000000000E+0003	 4.95780667327551E-0002	
 2.57650000000000E+0003	 4.96322659314333E-0002	
 2.57850000000000E+0003	 4.96924651301115E-0002	
 2.58050000000000E+0003	 4.97541643287898E-0002	
 2.58250000000000E+0003	 4.98193635274680E-0002	
 2.58450000000000E+0003	 4.98810627261462E-0002	
 2.58650000000000E+0003	 4.99457619248245E-0002	
 2.58850000000000E+0003	 5.00124611235027E-0002	
 2.59050000000000E+0003	 5.00846603221809E-0002	
 2.59250000000000E+0003	 5.01568595208591E-0002	
 2.59450000000000E+0003	 5.02310587195374E-0002	
 2.59650000000000E+0003	 5.03057579182156E-0002	
 2.59850000000000E+0003	 5.03829571168938E-0002	
 2.60050000000000E+0003	 5.04581563155721E-0002	
 2.60250000000000E+0003	 5.05383555142503E-0002	
 2.60450000000000E+0003	 5.06190547129285E-0002	
 2.60650000000000E+0003	 5.06972539116068E-0002	
 2.60850000000000E+0003	 5.07749531102850E-0002	
 2.61050000000000E+0003	 5.08596523089632E-0002	
 2.61250000000000E+0003	 5.09443515076415E-0002	
 2.61450000000000E+0003	 5.10275507063197E-0002	
 2.61650000000000E+0003	 5.11062499049979E-0002	
 2.61850000000000E+0003	 5.11854491036762E-0002	
 2.62050000000000E+0003	 5.12661483023544E-0002	
 2.62250000000000E+0003	 5.13538475010326E-0002	
 2.62450000000000E+0003	 5.14460466997109E-0002	
 2.62650000000000E+0003	 5.15322458983891E-0002	
 2.62850000000000E+0003	 5.16149450970673E-0002	
 2.63050000000000E+0003	 5.17001442957456E-0002	
 2.63250000000000E+0003	 5.17878434944238E-0002	
 2.63450000000000E+0003	 5.18775426931020E-0002	
 2.63650000000000E+0003	 5.19677418917803E-0002	
 2.63850000000000E+0003	 5.20574410904585E-0002	
 2.64050000000000E+0003	 5.21391402891367E-0002	
 2.64250000000000E+0003	 5.22208394878150E-0002	
 2.64450000000000E+0003	 5.23100386864932E-0002	
 2.64650000000000E+0003	 5.24012378851714E-0002	
 2.64850000000000E+0003	 5.24889370838496E-0002	
 2.65050000000000E+0003	 5.25796362825279E-0002	
 2.65250000000000E+0003	 5.26728354812061E-0002	
 2.65450000000000E+0003	 5.27650346798843E-0002	
 2.65650000000000E+0003	 5.28557338785626E-0002	
 2.65850000000000E+0003	 5.29459330772408E-0002	
 2.66050000000000E+0003	 5.30361322759190E-0002	
 2.66250000000000E+0003	 5.31248314745973E-0002	
 2.66450000000000E+0003	 5.32135306732755E-0002	
 2.66650000000000E+0003	 5.33047298719537E-0002	
 2.66850000000000E+0003	 5.33969290706320E-0002	
 2.67050000000000E+0003	 5.34951282693102E-0002	
 2.67250000000000E+0003	 5.35983274679884E-0002	
 2.67450000000000E+0003	 5.36995266666667E-0002	
 2.67650000000000E+0003	 5.38017258653449E-0002	
 2.67850000000000E+0003	 5.39104250640231E-0002	
 2.68050000000000E+0003	 5.40101242627014E-0002	
 2.68250000000000E+0003	 5.40903234613796E-0002	
 2.68450000000000E+0003	 5.41655226600578E-0002	
 2.68650000000000E+0003	 5.42562218587361E-0002	
 2.68850000000000E+0003	 5.43534210574143E-0002	
 2.69050000000000E+0003	 5.44501202560925E-0002	
 2.69250000000000E+0003	 5.45453194547708E-0002	
 2.69450000000000E+0003	 5.46405186534490E-0002	
 2.69650000000000E+0003	 5.47402178521272E-0002	
 2.69850000000000E+0003	 5.48494170508055E-0002	
 2.70050000000000E+0003	 5.49556162494837E-0002	
 2.70250000000000E+0003	 5.50603154481619E-0002	
 2.70450000000000E+0003	 5.51660146468401E-0002	
 2.70650000000000E+0003	 5.52767138455184E-0002	
 2.70850000000000E+0003	 5.53954130441966E-0002	
 2.71050000000000E+0003	 5.55191122428748E-0002	
 2.71250000000000E+0003	 5.56363114415531E-0002	
 2.71450000000000E+0003	 5.57615106402313E-0002	
 2.71650000000000E+0003	 5.58922098389095E-0002	
 2.71850000000000E+0003	 5.60259090375878E-0002	
 2.72050000000000E+0003	 5.61706082362660E-0002	
 2.72250000000000E+0003	 5.63243074349442E-0002	
 2.72450000000000E+0003	 5.64735066336225E-0002	
 2.72650000000000E+0003	 5.66172058323007E-0002	
 2.72850000000000E+0003	 5.67289050309789E-0002	
 2.73050000000000E+0003	 5.68396042296572E-0002	
 2.73250000000000E+0003	 5.69663034283354E-0002	
 2.73450000000000E+0003	 5.71020026270136E-0002	
 2.73650000000000E+0003	 5.72417018256919E-0002	
 2.73850000000000E+0003	 5.73704010243701E-0002	
 2.74050000000000E+0003	 5.74841002230483E-0002	
 2.74250000000000E+0003	 5.76012994217266E-0002	
 2.74450000000000E+0003	 5.77244986204048E-0002	
 2.74650000000000E+0003	 5.78701978190830E-0002	
 2.74850000000000E+0003	 5.80103970177613E-0002	
 2.75050000000000E+0003	 5.81210962164395E-0002	
 2.75250000000000E+0003	 5.82197954151177E-0002	
 2.75450000000000E+0003	 5.83369946137960E-0002	
 2.75650000000000E+0003	 5.84641938124742E-0002	
 2.75850000000000E+0003	 5.85938930111524E-0002	
 2.76050000000000E+0003	 5.87260922098306E-0002	
 2.76250000000000E+0003	 5.88627914085089E-0002	
 2.76450000000000E+0003	 5.90024906071871E-0002	
 2.76650000000000E+0003	 5.91461898058653E-0002	
 2.76850000000000E+0003	 5.92913890045436E-0002	
 2.77050000000000E+0003	 5.94385882032218E-0002	
 2.77250000000000E+0003	 5.95977874019000E-0002	
 2.77450000000000E+0003	 5.97719866005783E-0002	
 2.77650000000000E+0003	 5.99136857992565E-0002	
 2.77850000000000E+0003	 6.00323849979347E-0002	
 2.78050000000000E+0003	 6.01765841966130E-0002	
 2.78250000000000E+0003	 6.03357833952912E-0002	
 2.78450000000000E+0003	 6.04994825939694E-0002	
 2.78650000000000E+0003	 6.06886817926477E-0002	
 2.78850000000000E+0003	 6.09088809913259E-0002	
 2.79050000000000E+0003	 6.11060801900041E-0002	
 2.79250000000000E+0003	 6.12652793886824E-0002	
 2.79450000000000E+0003	 6.14364785873606E-0002	
 2.79650000000000E+0003	 6.16401777860388E-0002	
 2.79850000000000E+0003	 6.18503769847171E-0002	
 2.80050000000000E+0003	 6.20270761833953E-0002	
 2.80250000000000E+0003	 6.21972753820735E-0002	
 2.80450000000000E+0003	 6.23944745807518E-0002	
 2.80650000000000E+0003	 6.26081737794300E-0002	
 2.80850000000000E+0003	 6.28383729781082E-0002	
 2.81050000000000E+0003	 6.30700721767865E-0002	
 2.81250000000000E+0003	 6.32697713754647E-0002	
 2.81450000000000E+0003	 6.34689705741429E-0002	
 2.81650000000000E+0003	 6.36881697728211E-0002	
 2.81850000000000E+0003	 6.39233689714994E-0002	
 2.82050000000000E+0003	 6.41625681701776E-0002	
 2.82250000000000E+0003	 6.44057673688558E-0002	
 2.82450000000000E+0003	 6.46564665675341E-0002	
 2.82650000000000E+0003	 6.49196657662123E-0002	
 2.82850000000000E+0003	 6.51948649648905E-0002	
 2.83050000000000E+0003	 6.54950641635688E-0002	
 2.83250000000000E+0003	 6.58287633622470E-0002	
 2.83450000000000E+0003	 6.61974625609252E-0002	
 2.83650000000000E+0003	 6.66186617596035E-0002	
 2.83850000000000E+0003	 6.71013609582817E-0002	
 2.84050000000000E+0003	 6.75695601569599E-0002	
 2.84250000000000E+0003	 6.81017593556382E-0002	
 2.84450000000000E+0003	 6.88414585543164E-0002	
 2.84650000000000E+0003	 6.98011577529946E-0002	
 2.84850000000000E+0003	 7.08863569516729E-0002	
 2.85050000000000E+0003	 7.19695561503511E-0002	
 2.85250000000000E+0003	 7.29382553490293E-0002	
 2.85450000000000E+0003	 7.36654545477076E-0002	
 2.85650000000000E+0003	 7.41136537463858E-0002	
 2.85850000000000E+0003	 7.43823529450640E-0002	
 2.86050000000000E+0003	 7.45690521437423E-0002	
 2.86250000000000E+0003	 7.47672513424205E-0002	
 2.86450000000000E+0003	 7.50944505410987E-0002	
 2.86650000000000E+0003	 7.55776497397770E-0002	
 2.86850000000000E+0003	 7.61583489384552E-0002	
 2.87050000000000E+0003	 7.68160481371334E-0002	
 2.87250000000000E+0003	 7.74857473358116E-0002	
 2.87450000000000E+0003	 7.79624465344899E-0002	
 2.87650000000000E+0003	 7.81801457331681E-0002	
 2.87850000000000E+0003	 7.83108449318463E-0002	
 2.88050000000000E+0003	 7.84290441305246E-0002	
 2.88250000000000E+0003	 7.85472433292028E-0002	
 2.88450000000000E+0003	 7.86909425278810E-0002	
 2.88650000000000E+0003	 7.88916417265593E-0002	
 2.88850000000000E+0003	 7.91558409252375E-0002	
 2.89050000000000E+0003	 7.94845401239157E-0002	
 2.89250000000000E+0003	 7.98737393225940E-0002	
 2.89450000000000E+0003	 8.03344385212722E-0002	
 2.89650000000000E+0003	 8.08161377199504E-0002	
 2.89850000000000E+0003	 8.12768369186287E-0002	
 2.90050000000000E+0003	 8.17715361173069E-0002	
 2.90250000000000E+0003	 8.23402353159851E-0002	
 2.90450000000000E+0003	 8.29644345146634E-0002	
 2.90650000000000E+0003	 8.36516337133416E-0002	
 2.90850000000000E+0003	 8.44513329120198E-0002	
 2.91050000000000E+0003	 8.54130321106981E-0002	
 2.91250000000000E+0003	 8.65407313093763E-0002	
 2.91450000000000E+0003	 8.77434305080545E-0002	
 2.91650000000000E+0003	 8.89496297067328E-0002	
 2.91850000000000E+0003	 9.01698289054110E-0002	
 2.92050000000000E+0003	 9.13395281040892E-0002	
 2.92250000000000E+0003	 9.24052273027675E-0002	
 2.92450000000000E+0003	 9.32954265014457E-0002	
 2.92650000000000E+0003	 9.39856257001239E-0002	
 2.92850000000000E+0003	 9.45118248988021E-0002	
 2.93050000000000E+0003	 9.48110240974804E-0002	
 2.93250000000000E+0003	 9.48387232961586E-0002	
 2.93450000000000E+0003	 9.47179224948368E-0002	
 2.93650000000000E+0003	 9.44671216935151E-0002	
 2.93850000000000E+0003	 9.40628208921933E-0002	
 2.94050000000000E+0003	 9.35520200908715E-0002	
 2.94250000000000E+0003	 9.30397192895498E-0002	
 2.94450000000000E+0003	 9.25269184882280E-0002	
 2.94650000000000E+0003	 9.19981176869062E-0002	
 2.94850000000000E+0003	 9.15318168855845E-0002	
 2.95050000000000E+0003	 9.12890160842627E-0002	
 2.95250000000000E+0003	 9.13052152829409E-0002	
 2.95450000000000E+0003	 9.14069144816192E-0002	
 2.95650000000000E+0003	 9.15556136802974E-0002	
 2.95850000000000E+0003	 9.17418128789756E-0002	
 2.96050000000000E+0003	 9.18620120776539E-0002	
 2.96250000000000E+0003	 9.18342112763321E-0002	
 2.96450000000000E+0003	 9.16039104750103E-0002	
 2.96650000000000E+0003	 9.12126096736886E-0002	
 2.96850000000000E+0003	 9.07078088723668E-0002	
 2.97050000000000E+0003	 9.01150080710450E-0002	
 2.97250000000000E+0003	 8.94832072697233E-0002	
 2.97450000000000E+0003	 8.88544064684015E-0002	
 2.97650000000000E+0003	 8.82281056670797E-0002	
 2.97850000000000E+0003	 8.76633048657580E-0002	
 2.98050000000000E+0003	 8.71355040644362E-0002	
 2.98250000000000E+0003	 8.65692032631144E-0002	
 2.98450000000000E+0003	 8.60104024617926E-0002	
 2.98650000000000E+0003	 8.55306016604709E-0002	
 2.98850000000000E+0003	 8.51308008591491E-0002	
 2.99050000000000E+0003	 8.48265000578273E-0002	
 2.99250000000000E+0003	 8.45711992565056E-0002	
 2.99450000000000E+0003	 8.42818984551838E-0002	
 2.99650000000000E+0003	 8.40610976538620E-0002	
 2.99850000000000E+0003	 8.39252968525403E-0002	
 3.00050000000000E+0003	 8.38099960512185E-0002	
 3.00250000000000E+0003	 8.37876952498967E-0002	
 3.00450000000000E+0003	 8.38538944485750E-0002	
 3.00650000000000E+0003	 8.39720936472532E-0002	
 3.00850000000000E+0003	 8.41932928459314E-0002	
 3.01050000000000E+0003	 8.45554920446097E-0002	
 3.01250000000000E+0003	 8.49541912432879E-0002	
 3.01450000000000E+0003	 8.52773904419661E-0002	
 3.01650000000000E+0003	 8.55225896406444E-0002	
 3.01850000000000E+0003	 8.57847888393226E-0002	
 3.02050000000000E+0003	 8.61094880380008E-0002	
 3.02250000000000E+0003	 8.65156872366791E-0002	
 3.02450000000000E+0003	 8.69968864353573E-0002	
 3.02650000000000E+0003	 8.74585856340355E-0002	
 3.02850000000000E+0003	 8.79292848327138E-0002	
 3.03050000000000E+0003	 8.84634840313920E-0002	
 3.03250000000000E+0003	 8.90291832300702E-0002	
 3.03450000000000E+0003	 8.95693824287485E-0002	
 3.03650000000000E+0003	 9.00245816274267E-0002	
 3.03850000000000E+0003	 9.05172808261049E-0002	
 3.04050000000000E+0003	 9.11534800247831E-0002	
 3.04250000000000E+0003	 9.17961792234614E-0002	
 3.04450000000000E+0003	 9.23418784221396E-0002	
 3.04650000000000E+0003	 9.28390776208178E-0002	
 3.04850000000000E+0003	 9.33957768194961E-0002	
 3.05050000000000E+0003	 9.40409760181743E-0002	
 3.05250000000000E+0003	 9.46626752168525E-0002	
 3.05450000000000E+0003	 9.52698744155308E-0002	
 3.05650000000000E+0003	 9.58915736142090E-0002	
 3.05850000000000E+0003	 9.64782728128872E-0002	
 3.06050000000000E+0003	 9.70539720115655E-0002	
 3.06250000000000E+0003	 9.76576712102437E-0002	
 3.06450000000000E+0003	 9.82793704089219E-0002	
 3.06650000000000E+0003	 9.89000696076002E-0002	
 3.06850000000000E+0003	 9.94322688062784E-0002	
 3.07050000000000E+0003	 9.98704680049566E-0002	
 3.07250000000000E+0003	 1.00333167203635E-0001	
 3.07450000000000E+0003	 1.00860866402313E-0001	
 3.07650000000000E+0003	 1.01469065600991E-0001	
 3.07850000000000E+0003	 1.02080764799670E-0001	
 3.08050000000000E+0003	 1.02576463998348E-0001	
 3.08250000000000E+0003	 1.03015163197026E-0001	
 3.08450000000000E+0003	 1.03465862395704E-0001	
 3.08650000000000E+0003	 1.03875561594382E-0001	
 3.08850000000000E+0003	 1.04298760793061E-0001	
 3.09050000000000E+0003	 1.04749959991739E-0001	
 3.09250000000000E+0003	 1.05135659190417E-0001	
 3.09450000000000E+0003	 1.05506358389095E-0001	
 3.09650000000000E+0003	 1.05943057587774E-0001	
 3.09850000000000E+0003	 1.06438756786452E-0001	
 3.10050000000000E+0003	 1.06924455985130E-0001	
 3.10250000000000E+0003	 1.07341155183808E-0001	
 3.10450000000000E+0003	 1.07763354382487E-0001	
 3.10650000000000E+0003	 1.08283053581165E-0001	
 3.10850000000000E+0003	 1.08853252779843E-0001	
 3.11050000000000E+0003	 1.09339951978521E-0001	
 3.11250000000000E+0003	 1.09830651177200E-0001	
 3.11450000000000E+0003	 1.10477350375878E-0001	
 3.11650000000000E+0003	 1.11170549574556E-0001	
 3.11850000000000E+0003	 1.11792248773234E-0001	
 3.12050000000000E+0003	 1.12328947971912E-0001	
 3.12250000000000E+0003	 1.12781647170591E-0001	
 3.12450000000000E+0003	 1.13277346369269E-0001	
 3.12650000000000E+0003	 1.13901545567947E-0001	
 3.12850000000000E+0003	 1.14611244766625E-0001	
 3.13050000000000E+0003	 1.15316943965304E-0001	
 3.13250000000000E+0003	 1.15986643163982E-0001	
 3.13450000000000E+0003	 1.16699342362660E-0001	
 3.13650000000000E+0003	 1.17508041561338E-0001	
 3.13850000000000E+0003	 1.18382240760017E-0001	
 3.14050000000000E+0003	 1.19165439958695E-0001	
 3.14250000000000E+0003	 1.19863639157373E-0001	
 3.14450000000000E+0003	 1.20628338356051E-0001	
 3.14650000000000E+0003	 1.21475037554729E-0001	
 3.14850000000000E+0003	 1.22382736753408E-0001	
 3.15050000000000E+0003	 1.23403935952086E-0001	
 3.15250000000000E+0003	 1.24429635150764E-0001	
 3.15450000000000E+0003	 1.25280834349442E-0001	
 3.15650000000000E+0003	 1.26091033548121E-0001	
 3.15850000000000E+0003	 1.27003232746799E-0001	
 3.16050000000000E+0003	 1.27978931945477E-0001	
 3.16250000000000E+0003	 1.28982131144155E-0001	
 3.16450000000000E+0003	 1.30005830342834E-0001	
 3.16650000000000E+0003	 1.31044029541512E-0001	
 3.16850000000000E+0003	 1.32084228740190E-0001	
 3.17050000000000E+0003	 1.33134427938868E-0001	
 3.17250000000000E+0003	 1.34200627137546E-0001	
 3.17450000000000E+0003	 1.35273826336225E-0001	
 3.17650000000000E+0003	 1.36347025534903E-0001	
 3.17850000000000E+0003	 1.37432724733581E-0001	
 3.18050000000000E+0003	 1.38519923932259E-0001	
 3.18250000000000E+0003	 1.39603123130938E-0001	
 3.18450000000000E+0003	 1.40683822329616E-0001	
 3.18650000000000E+0003	 1.41767521528294E-0001	
 3.18850000000000E+0003	 1.42851720726972E-0001	
 3.19050000000000E+0003	 1.43920919925651E-0001	
 3.19250000000000E+0003	 1.44973119124329E-0001	
 3.19450000000000E+0003	 1.46014818323007E-0001	
 3.19650000000000E+0003	 1.47051517521685E-0001	
 3.19850000000000E+0003	 1.48094216720363E-0001	
 3.20050000000000E+0003	 1.49130915919042E-0001	
 3.20250000000000E+0003	 1.50160615117720E-0001	
 3.20450000000000E+0003	 1.51186814316398E-0001	
 3.20650000000000E+0003	 1.52202013515076E-0001	
 3.20850000000000E+0003	 1.53196212713755E-0001	
 3.21050000000000E+0003	 1.54193911912433E-0001	
 3.21250000000000E+0003	 1.55208611111111E-0001	
 3.21450000000000E+0003	 1.56228310309789E-0001	
 3.21650000000000E+0003	 1.57235009508468E-0001	
 3.21850000000000E+0003	 1.58245208707146E-0001	
 3.22050000000000E+0003	 1.59243407905824E-0001	
 3.22250000000000E+0003	 1.60229107104502E-0001	
 3.22450000000000E+0003	 1.61229306303181E-0001	
 3.22650000000000E+0003	 1.62249505501859E-0001	
 3.22850000000000E+0003	 1.63287204700537E-0001	
 3.23050000000000E+0003	 1.64399903899215E-0001	
 3.23250000000000E+0003	 1.65593103097893E-0001	
 3.23450000000000E+0003	 1.66664802296572E-0001	
 3.23650000000000E+0003	 1.67589501495250E-0001	
 3.23850000000000E+0003	 1.68579200693928E-0001	
 3.24050000000000E+0003	 1.69661399892606E-0001	
 3.24250000000000E+0003	 1.70783099091285E-0001	
 3.24450000000000E+0003	 1.71964798289963E-0001	
 3.24650000000000E+0003	 1.73186997488641E-0001	
 3.24850000000000E+0003	 1.74312196687319E-0001	
 3.25050000000000E+0003	 1.75382395885998E-0001	
 3.25250000000000E+0003	 1.76528595084676E-0001	
 3.25450000000000E+0003	 1.77761794283354E-0001	
 3.25650000000000E+0003	 1.78972993482032E-0001	
 3.25850000000000E+0003	 1.80123692680710E-0001	
 3.26050000000000E+0003	 1.81292391879389E-0001	
 3.26250000000000E+0003	 1.82496591078067E-0001	
 3.26450000000000E+0003	 1.83697790276745E-0001	
 3.26650000000000E+0003	 1.84906989475423E-0001	
 3.26850000000000E+0003	 1.86185688674102E-0001	
 3.27050000000000E+0003	 1.87474887872780E-0001	
 3.27250000000000E+0003	 1.88594087071458E-0001	
 3.27450000000000E+0003	 1.89598786270136E-0001	
 3.27650000000000E+0003	 1.90591985468815E-0001	
 3.27850000000000E+0003	 1.91577184667493E-0001	
 3.28050000000000E+0003	 1.92563883866171E-0001	
 3.28250000000000E+0003	 1.93533083064849E-0001	
 3.28450000000000E+0003	 1.94466282263527E-0001	
 3.28650000000000E+0003	 1.95361981462206E-0001	
 3.28850000000000E+0003	 1.96254680660884E-0001	
 3.29050000000000E+0003	 1.97184379859562E-0001	
 3.29250000000000E+0003	 1.98073079058240E-0001	
 3.29450000000000E+0003	 1.98844278256919E-0001	
 3.29650000000000E+0003	 1.99527977455597E-0001	
 3.29850000000000E+0003	 2.00147676654275E-0001	
 3.30050000000000E+0003	 2.00774375852953E-0001	
 3.30250000000000E+0003	 2.01515075051632E-0001	
 3.30450000000000E+0003	 2.02355774250310E-0001	
 3.30650000000000E+0003	 2.03091973448988E-0001	
 3.30850000000000E+0003	 2.03624672647666E-0001	
 3.31050000000000E+0003	 2.04062371846344E-0001	
 3.31250000000000E+0003	 2.04534571045023E-0001	
 3.31450000000000E+0003	 2.05086770243701E-0001	
 3.31650000000000E+0003	 2.05674469442379E-0001	
 3.31850000000000E+0003	 2.06276168641057E-0001	
 3.32050000000000E+0003	 2.06897867839736E-0001	
 3.32250000000000E+0003	 2.07556067038414E-0001	
 3.32450000000000E+0003	 2.08261766237092E-0001	
 3.32650000000000E+0003	 2.08921465435770E-0001	
 3.32850000000000E+0003	 2.09500164634449E-0001	
 3.33050000000000E+0003	 2.10110863833127E-0001	
 3.33250000000000E+0003	 2.10783063031805E-0001	
 3.33450000000000E+0003	 2.11509262230483E-0001	
 3.33650000000000E+0003	 2.12322961429162E-0001	
 3.33850000000000E+0003	 2.13127660627840E-0001	
 3.34050000000000E+0003	 2.13816859826518E-0001	
 3.34250000000000E+0003	 2.14488059025196E-0001	
 3.34450000000000E+0003	 2.15166758223874E-0001	
 3.34650000000000E+0003	 2.15862457422553E-0001	
 3.34850000000000E+0003	 2.16696156621231E-0001	
 3.35050000000000E+0003	 2.17566355819909E-0001	
 3.35250000000000E+0003	 2.18249055018587E-0001	
 3.35450000000000E+0003	 2.18861754217266E-0001	
 3.35650000000000E+0003	 2.19578453415944E-0001	
 3.35850000000000E+0003	 2.20376152614622E-0001	
 3.36050000000000E+0003	 2.21173351813300E-0001	
 3.36250000000000E+0003	 2.21915051011979E-0001	
 3.36450000000000E+0003	 2.22729250210657E-0001	
 3.36650000000000E+0003	 2.23689449409335E-0001	
 3.36850000000000E+0003	 2.24595648608013E-0001	
 3.37050000000000E+0003	 2.25233347806691E-0001	
 3.37250000000000E+0003	 2.25712047005370E-0001	
 3.37450000000000E+0003	 2.26313246204048E-0001	
 3.37650000000000E+0003	 2.27040445402726E-0001	
 3.37850000000000E+0003	 2.27754644601404E-0001	
 3.38050000000000E+0003	 2.28424843800083E-0001	
 3.38250000000000E+0003	 2.29052042998761E-0001	
 3.38450000000000E+0003	 2.29680742197439E-0001	
 3.38650000000000E+0003	 2.30346941396117E-0001	
 3.38850000000000E+0003	 2.31123640594796E-0001	
 3.39050000000000E+0003	 2.32018339793474E-0001	
 3.39250000000000E+0003	 2.32726038992152E-0001	
 3.39450000000000E+0003	 2.33146238190830E-0001	
 3.39650000000000E+0003	 2.33647937389508E-0001	
 3.39850000000000E+0003	 2.34457136588187E-0001	
 3.40050000000000E+0003	 2.35255835786865E-0001	
 3.40250000000000E+0003	 2.35617034985543E-0001	
 3.40450000000000E+0003	 2.35780234184221E-0001	
 3.40650000000000E+0003	 2.36167933382900E-0001	
 3.40850000000000E+0003	 2.36716132581578E-0001	
 3.41050000000000E+0003	 2.37210831780256E-0001	
 3.41250000000000E+0003	 2.37627530978934E-0001	
 3.41450000000000E+0003	 2.37926730177613E-0001	
 3.41650000000000E+0003	 2.38168429376291E-0001	
 3.41850000000000E+0003	 2.38481628574969E-0001	
 3.42050000000000E+0003	 2.38815827773647E-0001	
 3.42250000000000E+0003	 2.39064526972325E-0001	
 3.42450000000000E+0003	 2.39295726171004E-0001	
 3.42650000000000E+0003	 2.39603425369682E-0001	
 3.42850000000000E+0003	 2.39949624568360E-0001	
 3.43050000000000E+0003	 2.40175823767038E-0001	
 3.43250000000000E+0003	 2.40331522965717E-0001	
 3.43450000000000E+0003	 2.40567222164395E-0001	
 3.43650000000000E+0003	 2.40664921363073E-0001	
 3.43850000000000E+0003	 2.40456120561751E-0001	
 3.44050000000000E+0003	 2.40172319760430E-0001	
 3.44250000000000E+0003	 2.40025018959108E-0001	
 3.44450000000000E+0003	 2.39950218157786E-0001	
 3.44650000000000E+0003	 2.39869417356464E-0001	
 3.44850000000000E+0003	 2.39705116555143E-0001	
 3.45050000000000E+0003	 2.39466815753821E-0001	
 3.45250000000000E+0003	 2.39245514952499E-0001	
 3.45450000000000E+0003	 2.39008214151177E-0001	
 3.45650000000000E+0003	 2.38769913349855E-0001	
 3.45850000000000E+0003	 2.38582612548534E-0001	
 3.46050000000000E+0003	 2.38316811747212E-0001	
 3.46250000000000E+0003	 2.37910010945890E-0001	
 3.46450000000000E+0003	 2.37610210144568E-0001	
 3.46650000000000E+0003	 2.37495409343247E-0001	
 3.46850000000000E+0003	 2.37209108541925E-0001	
 3.47050000000000E+0003	 2.36493807740603E-0001	
 3.47250000000000E+0003	 2.35648506939281E-0001	
 3.47450000000000E+0003	 2.34989706137960E-0001	
 3.47650000000000E+0003	 2.34504405336638E-0001	
 3.47850000000000E+0003	 2.34095104535316E-0001	
 3.48050000000000E+0003	 2.33503303733994E-0001	
 3.48250000000000E+0003	 2.32704002932672E-0001	
 3.48450000000000E+0003	 2.32015702131351E-0001	
 3.48650000000000E+0003	 2.31425401330029E-0001	
 3.48850000000000E+0003	 2.30714600528707E-0001	
 3.49050000000000E+0003	 2.29943299727385E-0001	
 3.49250000000000E+0003	 2.29248498926064E-0001	
 3.49450000000000E+0003	 2.28598698124742E-0001	
 3.49650000000000E+0003	 2.27926397323420E-0001	
 3.49850000000000E+0003	 2.27173596522098E-0001	
 3.50050000000000E+0003	 2.26442295720777E-0001	
 3.50250000000000E+0003	 2.25705994919455E-0001	
 3.50450000000000E+0003	 2.24735694118133E-0001	
 3.50650000000000E+0003	 2.23688893316811E-0001	
 3.50850000000000E+0003	 2.22783592515489E-0001	
 3.51050000000000E+0003	 2.21986291714168E-0001	
 3.51250000000000E+0003	 2.21248990912846E-0001	
 3.51450000000000E+0003	 2.20413190111524E-0001	
 3.51650000000000E+0003	 2.19428389310202E-0001	
 3.51850000000000E+0003	 2.18467088508881E-0001	
 3.52050000000000E+0003	 2.17625787707559E-0001	
 3.52250000000000E+0003	 2.16886486906237E-0001	
 3.52450000000000E+0003	 2.15966186104915E-0001	
 3.52650000000000E+0003	 2.14810385303594E-0001	
 3.52850000000000E+0003	 2.13717084502272E-0001	
 3.53050000000000E+0003	 2.12716783700950E-0001	
 3.53250000000000E+0003	 2.11779482899628E-0001	
 3.53450000000000E+0003	 2.10932182098306E-0001	
 3.53650000000000E+0003	 2.10010881296985E-0001	
 3.53850000000000E+0003	 2.08875580495663E-0001	
 3.54050000000000E+0003	 2.07834779694341E-0001	
 3.54250000000000E+0003	 2.07003478893019E-0001	
 3.54450000000000E+0003	 2.06075678091698E-0001	
 3.54650000000000E+0003	 2.04795877290376E-0001	
 3.54850000000000E+0003	 2.03392576489054E-0001	
 3.55050000000000E+0003	 2.02161275687732E-0001	
 3.55250000000000E+0003	 2.00968474886411E-0001	
 3.55450000000000E+0003	 1.99693674085089E-0001	
 3.55650000000000E+0003	 1.98479373283767E-0001	
 3.55850000000000E+0003	 1.97335572482445E-0001	
 3.56050000000000E+0003	 1.96180271681124E-0001	
 3.56250000000000E+0003	 1.94950470879802E-0001	
 3.56450000000000E+0003	 1.93641670078480E-0001	
 3.56650000000000E+0003	 1.92292869277158E-0001	
 3.56850000000000E+0003	 1.90958068475836E-0001	
 3.57050000000000E+0003	 1.89597267674515E-0001	
 3.57250000000000E+0003	 1.88200466873193E-0001	
 3.57450000000000E+0003	 1.86801166071871E-0001	
 3.57650000000000E+0003	 1.85426865270549E-0001	
 3.57850000000000E+0003	 1.84085064469228E-0001	
 3.58050000000000E+0003	 1.82802763667906E-0001	
 3.58250000000000E+0003	 1.81600462866584E-0001	
 3.58450000000000E+0003	 1.80395662065262E-0001	
 3.58650000000000E+0003	 1.78900861263941E-0001	
 3.58850000000000E+0003	 1.77126060462619E-0001	
 3.59050000000000E+0003	 1.75510259661297E-0001	
 3.59250000000000E+0003	 1.74096958859975E-0001	
 3.59450000000000E+0003	 1.72604158058653E-0001	
 3.59650000000000E+0003	 1.71075357257332E-0001	
 3.59850000000000E+0003	 1.69631556456010E-0001	
 3.60050000000000E+0003	 1.68152255654688E-0001	
 3.60250000000000E+0003	 1.66639954853366E-0001	
 3.60450000000000E+0003	 1.65187154052045E-0001	
 3.60650000000000E+0003	 1.63663353250723E-0001	
 3.60850000000000E+0003	 1.62051052449401E-0001	
 3.61050000000000E+0003	 1.60418751648079E-0001	
 3.61250000000000E+0003	 1.58854950846758E-0001	
 3.61450000000000E+0003	 1.57363650045436E-0001	
 3.61650000000000E+0003	 1.55826849244114E-0001	
 3.61850000000000E+0003	 1.54307548442792E-0001	
 3.62050000000000E+0003	 1.52781747641470E-0001	
 3.62250000000000E+0003	 1.51225446840149E-0001	
 3.62450000000000E+0003	 1.49834146038827E-0001	
 3.62650000000000E+0003	 1.48414345237505E-0001	
 3.62850000000000E+0003	 1.46849544436183E-0001	
 3.63050000000000E+0003	 1.45116243634862E-0001	
 3.63250000000000E+0003	 1.43486442833540E-0001	
 3.63450000000000E+0003	 1.42080642032218E-0001	
 3.63650000000000E+0003	 1.40561341230896E-0001	
 3.63850000000000E+0003	 1.39065540429575E-0001	
 3.64050000000000E+0003	 1.37574739628253E-0001	
 3.64250000000000E+0003	 1.36167438826931E-0001	
 3.64450000000000E+0003	 1.34841138025609E-0001	
 3.64650000000000E+0003	 1.33547837224287E-0001	
 3.64850000000000E+0003	 1.32133536422966E-0001	
 3.65050000000000E+0003	 1.30694235621644E-0001	
 3.65250000000000E+0003	 1.29247934820322E-0001	
 3.65450000000000E+0003	 1.27824634019000E-0001	
 3.65650000000000E+0003	 1.26631333217679E-0001	
 3.65850000000000E+0003	 1.25423032416357E-0001	
 3.66050000000000E+0003	 1.24199731615035E-0001	
 3.66250000000000E+0003	 1.22898430813713E-0001	
 3.66450000000000E+0003	 1.21687630012392E-0001	
 3.66650000000000E+0003	 1.20653829211070E-0001	
 3.66850000000000E+0003	 1.19549028409748E-0001	
 3.67050000000000E+0003	 1.18561227608426E-0001	
 3.67250000000000E+0003	 1.17549426807105E-0001	
 3.67450000000000E+0003	 1.16583626005783E-0001	
 3.67650000000000E+0003	 1.15658825204461E-0001	
 3.67850000000000E+0003	 1.14607024403139E-0001	
 3.68050000000000E+0003	 1.13799223601817E-0001	
 3.68250000000000E+0003	 1.13048422800496E-0001	
 3.68450000000000E+0003	 1.12441621999174E-0001	
 3.68650000000000E+0003	 1.11866821197852E-0001	
 3.68850000000000E+0003	 1.11330020396530E-0001	
 3.69050000000000E+0003	 1.10560219595209E-0001	
 3.69250000000000E+0003	 1.09777418793887E-0001	
 3.69450000000000E+0003	 1.09128117992565E-0001	
 3.69650000000000E+0003	 1.08598817191243E-0001	
 3.69850000000000E+0003	 1.08051016389922E-0001	
 3.70050000000000E+0003	 1.07498715588600E-0001	
 3.70250000000000E+0003	 1.07028914787278E-0001	
 3.70450000000000E+0003	 1.06574113985956E-0001	
 3.70650000000000E+0003	 1.06206313184634E-0001	
 3.70850000000000E+0003	 1.05877012383313E-0001	
 3.71050000000000E+0003	 1.05433711581991E-0001	
 3.71250000000000E+0003	 1.04999910780669E-0001	
 3.71450000000000E+0003	 1.04616109979347E-0001	
 3.71650000000000E+0003	 1.04278809178026E-0001	
 3.71850000000000E+0003	 1.04006508376704E-0001	
 3.72050000000000E+0003	 1.03708707575382E-0001	
 3.72250000000000E+0003	 1.03469406774060E-0001	
 3.72450000000000E+0003	 1.03161605972739E-0001	
 3.72650000000000E+0003	 1.02889305171417E-0001	
 3.72850000000000E+0003	 1.02608004370095E-0001	
 3.73050000000000E+0003	 1.02347203568773E-0001	
 3.73250000000000E+0003	 1.02299402767451E-0001	
 3.73450000000000E+0003	 1.02148601966130E-0001	
 3.73650000000000E+0003	 1.01978801164808E-0001	
 3.73850000000000E+0003	 1.01707500363486E-0001	
 3.74050000000000E+0003	 1.01538699562164E-0001	
 3.74250000000000E+0003	 1.01148898760843E-0001	
 3.74450000000000E+0003	 1.00959097959521E-0001	
 3.74650000000000E+0003	 1.00671797158199E-0001	
 3.74850000000000E+0003	 1.00346496356877E-0001	
 3.75050000000000E+0003	 1.00106195555556E-0001	
 3.75250000000000E+0003	 9.99258947542338E-0002	
 3.75450000000000E+0003	 9.98000939529120E-0002	
 3.75650000000000E+0003	 9.96517931515903E-0002	
 3.75850000000000E+0003	 9.94744923502685E-0002	
 3.76050000000000E+0003	 9.93641915489467E-0002	
 3.76250000000000E+0003	 9.92088907476249E-0002	
 3.76450000000000E+0003	 9.90825899463032E-0002	
 3.76650000000000E+0003	 9.89972891449814E-0002	
 3.76850000000000E+0003	 9.87899883436596E-0002	
 3.77050000000000E+0003	 9.86851875423379E-0002	
 3.77250000000000E+0003	 9.85123867410161E-0002	
 3.77450000000000E+0003	 9.84190859396943E-0002	
 3.77650000000000E+0003	 9.83527851383726E-0002	
 3.77850000000000E+0003	 9.82819843370508E-0002	
 3.78050000000000E+0003	 9.82056835357290E-0002	
 3.78250000000000E+0003	 9.79853827344073E-0002	
 3.78450000000000E+0003	 9.78355819330855E-0002	
 3.78650000000000E+0003	 9.77362811317637E-0002	
 3.78850000000000E+0003	 9.76599803304420E-0002	
 3.79050000000000E+0003	 9.75986795291202E-0002	
 3.79250000000000E+0003	 9.75303787277984E-0002	
 3.79450000000000E+0003	 9.73680779264767E-0002	
 3.79650000000000E+0003	 9.73617771251549E-0002	
 3.79850000000000E+0003	 9.72489763238331E-0002	
 3.80050000000000E+0003	 9.70381755225114E-0002	
 3.80250000000000E+0003	 9.71003747211896E-0002	
 3.80450000000000E+0003	 9.69095739198678E-0002	
 3.80650000000000E+0003	 9.68487731185461E-0002	
 3.80850000000000E+0003	 9.68099723172243E-0002	
 3.81050000000000E+0003	 9.67376715159025E-0002	
 3.81250000000000E+0003	 9.67433707145808E-0002	
 3.81450000000000E+0003	 9.65860699132590E-0002	
 3.81650000000000E+0003	 9.66872691119372E-0002	
 3.81850000000000E+0003	 9.65669683106154E-0002	
 3.82050000000000E+0003	 9.64781675092937E-0002	
 3.82250000000000E+0003	 9.64918667079719E-0002	
 3.82450000000000E+0003	 9.62795659066501E-0002	
 3.82650000000000E+0003	 9.62572651053284E-0002	
 3.82850000000000E+0003	 9.62209643040066E-0002	
 3.83050000000000E+0003	 9.61676635026848E-0002	
 3.83250000000000E+0003	 9.62413627013631E-0002	
 3.83450000000000E+0003	 9.63130619000413E-0002	
 3.83650000000000E+0003	 9.62782610987195E-0002	
 3.83850000000000E+0003	 9.61489602973978E-0002	
 3.84050000000000E+0003	 9.59951594960760E-0002	
 3.84250000000000E+0003	 9.59173586947542E-0002	
 3.84450000000000E+0003	 9.59450578934325E-0002	
 3.84650000000000E+0003	 9.59372570921107E-0002	
 3.84850000000000E+0003	 9.59984562907889E-0002	
 3.85050000000000E+0003	 9.59756554894672E-0002	
 3.85250000000000E+0003	 9.58153546881454E-0002	
 3.85450000000000E+0003	 9.58215538868236E-0002	
 3.85650000000000E+0003	 9.57297530855019E-0002	
 3.85850000000000E+0003	 9.56894522841801E-0002	
 3.86050000000000E+0003	 9.57206514828583E-0002	
 3.86250000000000E+0003	 9.56748506815366E-0002	
 3.86450000000000E+0003	 9.57055498802148E-0002	
 3.86650000000000E+0003	 9.57517490788930E-0002	
 3.86850000000000E+0003	 9.56234482775713E-0002	
 3.87050000000000E+0003	 9.56831474762495E-0002	
 3.87250000000000E+0003	 9.55153466749277E-0002	
 3.87450000000000E+0003	 9.55455458736059E-0002	
 3.87650000000000E+0003	 9.56062450722842E-0002	
 3.87850000000000E+0003	 9.55479442709624E-0002	
 3.88050000000000E+0003	 9.56446434696406E-0002	
 3.88250000000000E+0003	 9.56758426683189E-0002	
 3.88450000000000E+0003	 9.56255418669971E-0002	
 3.88650000000000E+0003	 9.57072410656753E-0002	
 3.88850000000000E+0003	 9.55724402643536E-0002	
 3.89050000000000E+0003	 9.55376394630318E-0002	
 3.89250000000000E+0003	 9.55438386617100E-0002	
 3.89450000000000E+0003	 9.55185378603883E-0002	
 3.89650000000000E+0003	 9.55637370590665E-0002	
 3.89850000000000E+0003	 9.56584362577447E-0002	
 3.90050000000000E+0003	 9.56861354564230E-0002	
 3.90250000000000E+0003	 9.55643346551012E-0002	
 3.90450000000000E+0003	 9.55290338537794E-0002	
 3.90650000000000E+0003	 9.54852330524577E-0002	
 3.90850000000000E+0003	 9.54409322511359E-0002	
 3.91050000000000E+0003	 9.54566314498141E-0002	
 3.91250000000000E+0003	 9.55203306484924E-0002	
 3.91450000000000E+0003	 9.55620298471706E-0002	
 3.91650000000000E+0003	 9.55857290458488E-0002	
 3.91850000000000E+0003	 9.55604282445271E-0002	
 3.92050000000000E+0003	 9.55706274432053E-0002	
 3.92250000000000E+0003	 9.55513266418835E-0002	
 3.92450000000000E+0003	 9.55500258405618E-0002	
 3.92650000000000E+0003	 9.55752250392400E-0002	
 3.92850000000000E+0003	 9.56079242379182E-0002	
 3.93050000000000E+0003	 9.56266234365964E-0002	
 3.93250000000000E+0003	 9.56243226352747E-0002	
 3.93450000000000E+0003	 9.56215218339529E-0002	
 3.93650000000000E+0003	 9.56147210326311E-0002	
 3.93850000000000E+0003	 9.56499202313094E-0002	
 3.94050000000000E+0003	 9.56491194299876E-0002	
 3.94250000000000E+0003	 9.56673186286658E-0002	
 3.94450000000000E+0003	 9.56815178273441E-0002	
 3.94650000000000E+0003	 9.56702170260223E-0002	
 3.94850000000000E+0003	 9.56669162247005E-0002	
 3.95050000000000E+0003	 9.56601154233788E-0002	
 3.95250000000000E+0003	 9.56703146220570E-0002	
 3.95450000000000E+0003	 9.56860138207352E-0002	
 3.95650000000000E+0003	 9.57062130194135E-0002	
 3.95850000000000E+0003	 9.57299122180917E-0002	
 3.96050000000000E+0003	 9.57341114167699E-0002	
 3.96250000000000E+0003	 9.57358106154482E-0002	
 3.96450000000000E+0003	 9.57435098141264E-0002	
 3.96650000000000E+0003	 9.57637090128046E-0002	
 3.96850000000000E+0003	 9.57814082114829E-0002	
 3.97050000000000E+0003	 9.57931074101611E-0002	
 3.97250000000000E+0003	 9.58058066088393E-0002	
 3.97450000000000E+0003	 9.58260058075176E-0002	
 3.97650000000000E+0003	 9.58457050061958E-0002	
 3.97850000000000E+0003	 9.58564042048740E-0002	
 3.98050000000000E+0003	 9.58766034035523E-0002	
 3.98250000000000E+0003	 9.59298026022305E-0002	
 3.98450000000000E+0003	 9.59695018009087E-0002	
 3.98650000000000E+0003	 9.59642009995869E-0002	
 3.98850000000000E+0003	 9.59419001982652E-0002	
 3.99050000000000E+0003	 9.59460993969434E-0002	
 3.99250000000000E+0003	 9.59547985956216E-0002	
 3.99450000000000E+0003	 9.59684977942999E-0002	
 3.99650000000000E+0003	 9.59876969929781E-0002	
 3.99850000000000E+0003	 9.59868961916563E-0002	

>1	DATALINE
