*CPCWIN*

>1	DATALINE
DATALINE
1
Operator:

Description:

Remarks:





15.9.2008
11:1


_x	_y
	
	
UNIT	UNIT
 4.50500000000000E+0002	 1.40217363129252E-0001	
 4.52500000000000E+0002	 1.39020560544218E-0001	
 4.54500000000000E+0002	 1.42783757959184E-0001	
 4.56500000000000E+0002	 1.42611455374150E-0001	
 4.58500000000000E+0002	 1.43102652789116E-0001	
 4.60500000000000E+0002	 1.44337350204082E-0001	
 4.62500000000000E+0002	 1.45192547619048E-0001	
 4.64500000000000E+0002	 1.45746245034014E-0001	
 4.66500000000000E+0002	 1.46276442448980E-0001	
 4.68500000000000E+0002	 1.46943639863946E-0001	
 4.70500000000000E+0002	 1.47093837278912E-0001	
 4.72500000000000E+0002	 1.47667534693878E-0001	
 4.74500000000000E+0002	 1.48202232108844E-0001	
 4.76500000000000E+0002	 1.48851929523810E-0001	
 4.78500000000000E+0002	 1.49415626938776E-0001	
 4.80500000000000E+0002	 1.50050824353741E-0001	
 4.82500000000000E+0002	 1.50733521768707E-0001	
 4.84500000000000E+0002	 1.51540219183673E-0001	
 4.86500000000000E+0002	 1.52234416598639E-0001	
 4.88500000000000E+0002	 1.52929114013605E-0001	
 4.90500000000000E+0002	 1.53746311428571E-0001	
 4.92500000000000E+0002	 1.54717008843537E-0001	
 4.94500000000000E+0002	 1.55457206258503E-0001	
 4.96500000000000E+0002	 1.56106903673469E-0001	
 4.98500000000000E+0002	 1.56773601088435E-0001	
 5.00500000000000E+0002	 1.57289798503401E-0001	
 5.02500000000000E+0002	 1.58053995918367E-0001	
 5.04500000000000E+0002	 1.59122693333333E-0001	
 5.06500000000000E+0002	 1.60259390748299E-0001	
 5.08500000000000E+0002	 1.61277588163265E-0001	
 5.10500000000000E+0002	 1.62278785578231E-0001	
 5.12500000000000E+0002	 1.63133482993197E-0001	
 5.14500000000000E+0002	 1.64056680408163E-0001	
 5.16500000000000E+0002	 1.65057877823129E-0001	
 5.18500000000000E+0002	 1.66189075238095E-0001	
 5.20500000000000E+0002	 1.67106772653061E-0001	
 5.22500000000000E+0002	 1.67951970068027E-0001	
 5.24500000000000E+0002	 1.68634667482993E-0001	
 5.26500000000000E+0002	 1.69874364897959E-0001	
 5.28500000000000E+0002	 1.71111562312925E-0001	
 5.30500000000000E+0002	 1.71972259727891E-0001	
 5.32500000000000E+0002	 1.72408457142857E-0001	
 5.34500000000000E+0002	 1.72846154557823E-0001	
 5.36500000000000E+0002	 1.72923851972789E-0001	
 5.38500000000000E+0002	 1.72943049387755E-0001	
 5.40500000000000E+0002	 1.72735746802721E-0001	
 5.42500000000000E+0002	 1.72670444217687E-0001	
 5.44500000000000E+0002	 1.72472141632653E-0001	
 5.46500000000000E+0002	 1.72507839047619E-0001	
 5.48500000000000E+0002	 1.72327036462585E-0001	
 5.50500000000000E+0002	 1.72369233877551E-0001	
 5.52500000000000E+0002	 1.72200431292517E-0001	
 5.54500000000000E+0002	 1.72119628707483E-0001	
 5.56500000000000E+0002	 1.71707326122449E-0001	
 5.58500000000000E+0002	 1.71460023537415E-0001	
 5.60500000000000E+0002	 1.70905720952381E-0001	
 5.62500000000000E+0002	 1.70515918367347E-0001	
 5.64500000000000E+0002	 1.69891615782313E-0001	
 5.66500000000000E+0002	 1.69616813197279E-0001	
 5.68500000000000E+0002	 1.69145010612245E-0001	
 5.70500000000000E+0002	 1.68975208027211E-0001	
 5.72500000000000E+0002	 1.68535405442177E-0001	
 5.74500000000000E+0002	 1.68419102857143E-0001	
 5.76500000000000E+0002	 1.68142800272109E-0001	
 5.78500000000000E+0002	 1.68248497687075E-0001	
 5.80500000000000E+0002	 1.68065195102041E-0001	
 5.82500000000000E+0002	 1.68109392517007E-0001	
 5.84500000000000E+0002	 1.67761089931973E-0001	
 5.86500000000000E+0002	 1.67707287346939E-0001	
 5.88500000000000E+0002	 1.67410484761905E-0001	
 5.90500000000000E+0002	 1.67579682176871E-0001	
 5.92500000000000E+0002	 1.67520879591837E-0001	
 5.94500000000000E+0002	 1.67839577006803E-0001	
 5.96500000000000E+0002	 1.67905774421769E-0001	
 5.98500000000000E+0002	 1.68371471836735E-0001	
 6.00500000000000E+0002	 1.68496169251701E-0001	
 6.02500000000000E+0002	 1.68873866666667E-0001	
 6.04500000000000E+0002	 1.68781064081633E-0001	
 6.06500000000000E+0002	 1.68839261496599E-0001	
 6.08500000000000E+0002	 1.68422958911565E-0001	
 6.10500000000000E+0002	 1.68268156326531E-0001	
 6.12500000000000E+0002	 1.67765853741497E-0001	
 6.14500000000000E+0002	 1.67623551156463E-0001	
 6.16500000000000E+0002	 1.67196748571429E-0001	
 6.18500000000000E+0002	 1.67069945986395E-0001	
 6.20500000000000E+0002	 1.66611643401361E-0001	
 6.22500000000000E+0002	 1.66402340816327E-0001	
 6.24500000000000E+0002	 1.65918038231293E-0001	
 6.26500000000000E+0002	 1.65730735646259E-0001	
 6.28500000000000E+0002	 1.65296933061224E-0001	
 6.30500000000000E+0002	 1.65096130476190E-0001	
 6.32500000000000E+0002	 1.64608827891156E-0001	
 6.34500000000000E+0002	 1.64300025306122E-0001	
 6.36500000000000E+0002	 1.63749222721088E-0001	
 6.38500000000000E+0002	 1.63389920136054E-0001	
 6.40500000000000E+0002	 1.62868617551020E-0001	
 6.42500000000000E+0002	 1.62523814965986E-0001	
 6.44500000000000E+0002	 1.62029512380952E-0001	
 6.46500000000000E+0002	 1.61638709795918E-0001	
 6.48500000000000E+0002	 1.61169907210884E-0001	
 6.50500000000000E+0002	 1.60771604625850E-0001	
 6.52500000000000E+0002	 1.60269802040816E-0001	
 6.54500000000000E+0002	 1.59899499455782E-0001	
 6.56500000000000E+0002	 1.59519696870748E-0001	
 6.58500000000000E+0002	 1.59188394285714E-0001	
 6.60500000000000E+0002	 1.58871091700680E-0001	
 6.62500000000000E+0002	 1.58531289115646E-0001	
 6.64500000000000E+0002	 1.57949986530612E-0001	
 6.66500000000000E+0002	 1.56828183945578E-0001	
 6.68500000000000E+0002	 1.56331381360544E-0001	
 6.70500000000000E+0002	 1.56638078775510E-0001	
 6.72500000000000E+0002	 1.56371276190476E-0001	
 6.74500000000000E+0002	 1.55743473605442E-0001	
 6.76500000000000E+0002	 1.55219671020408E-0001	
 6.78500000000000E+0002	 1.54594868435374E-0001	
 6.80500000000000E+0002	 1.54123565850340E-0001	
 6.82500000000000E+0002	 1.53529263265306E-0001	
 6.84500000000000E+0002	 1.53165460680272E-0001	
 6.86500000000000E+0002	 1.52658658095238E-0001	
 6.88500000000000E+0002	 1.52398855510204E-0001	
 6.90500000000000E+0002	 1.52001552925170E-0001	
 6.92500000000000E+0002	 1.51793250340136E-0001	
 6.94500000000000E+0002	 1.51421947755102E-0001	
 6.96500000000000E+0002	 1.51333645170068E-0001	
 6.98500000000000E+0002	 1.50998842585034E-0001	
 7.00500000000000E+0002	 1.50831540000000E-0001	
 7.02500000000000E+0002	 1.50286737414966E-0001	
 7.04500000000000E+0002	 1.49916934829932E-0001	
 7.06500000000000E+0002	 1.49252632244898E-0001	
 7.08500000000000E+0002	 1.48909329659864E-0001	
 7.10500000000000E+0002	 1.48382027074830E-0001	
 7.12500000000000E+0002	 1.48105724489796E-0001	
 7.14500000000000E+0002	 1.47185421904762E-0001	
 7.16500000000000E+0002	 1.46336619319728E-0001	
 7.18500000000000E+0002	 1.45268316734694E-0001	
 7.20500000000000E+0002	 1.44518014149660E-0001	
 7.22500000000000E+0002	 1.43374711564626E-0001	
 7.24500000000000E+0002	 1.42384408979592E-0001	
 7.26500000000000E+0002	 1.40941106394558E-0001	
 7.28500000000000E+0002	 1.39670303809524E-0001	
 7.30500000000000E+0002	 1.38094501224490E-0001	
 7.32500000000000E+0002	 1.36883698639456E-0001	
 7.34500000000000E+0002	 1.35584396054422E-0001	
 7.36500000000000E+0002	 1.34704093469388E-0001	
 7.38500000000000E+0002	 1.33705790884354E-0001	
 7.40500000000000E+0002	 1.33037488299320E-0001	
 7.42500000000000E+0002	 1.32183685714286E-0001	
 7.44500000000000E+0002	 1.31571883129252E-0001	
 7.46500000000000E+0002	 1.30792580544218E-0001	
 7.48500000000000E+0002	 1.30245777959184E-0001	
 7.50500000000000E+0002	 1.29564975374150E-0001	
 7.52500000000000E+0002	 1.29187172789116E-0001	
 7.54500000000000E+0002	 1.28822370204082E-0001	
 7.56500000000000E+0002	 1.28759067619048E-0001	
 7.58500000000000E+0002	 1.28720765034014E-0001	
 7.60500000000000E+0002	 1.29003462448980E-0001	
 7.62500000000000E+0002	 1.29289159863946E-0001	
 7.64500000000000E+0002	 1.29457857278912E-0001	
 7.66500000000000E+0002	 1.28970054693878E-0001	
 7.68500000000000E+0002	 1.27888752108844E-0001	
 7.70500000000000E+0002	 1.26393949523810E-0001	
 7.72500000000000E+0002	 1.25043646938776E-0001	
 7.74500000000000E+0002	 1.24109344353741E-0001	
 7.76500000000000E+0002	 1.23907041768707E-0001	
 7.78500000000000E+0002	 1.24145239183673E-0001	
 7.80500000000000E+0002	 1.24015936598639E-0001	
 7.82500000000000E+0002	 1.23166634013605E-0001	
 7.84500000000000E+0002	 1.22018331428571E-0001	
 7.86500000000000E+0002	 1.20938528843537E-0001	
 7.88500000000000E+0002	 1.19814226258503E-0001	
 7.90500000000000E+0002	 1.18777923673469E-0001	
 7.92500000000000E+0002	 1.17966121088435E-0001	
 7.94500000000000E+0002	 1.17540318503401E-0001	
 7.96500000000000E+0002	 1.17035515918367E-0001	
 7.98500000000000E+0002	 1.16308213333333E-0001	
 8.00500000000000E+0002	 1.15333910748299E-0001	
 8.02500000000000E+0002	 1.14518108163265E-0001	
 8.04500000000000E+0002	 1.13810805578231E-0001	
 8.06500000000000E+0002	 1.13347502993197E-0001	
 8.08500000000000E+0002	 1.12864200408163E-0001	
 8.10500000000000E+0002	 1.12422397823129E-0001	
 8.12500000000000E+0002	 1.11755595238095E-0001	
 8.14500000000000E+0002	 1.11019792653061E-0001	
 8.16500000000000E+0002	 1.10098990068027E-0001	
 8.18500000000000E+0002	 1.09304187482993E-0001	
 8.20500000000000E+0002	 1.08548384897959E-0001	
 8.22500000000000E+0002	 1.08044582312925E-0001	
 8.24500000000000E+0002	 1.07604779727891E-0001	
 8.26500000000000E+0002	 1.07365977142857E-0001	
 8.28500000000000E+0002	 1.07134674557823E-0001	
 8.30500000000000E+0002	 1.07058871972789E-0001	
 8.32500000000000E+0002	 1.07000069387755E-0001	
 8.34500000000000E+0002	 1.07087766802721E-0001	
 8.36500000000000E+0002	 1.07112964217687E-0001	
 8.38500000000000E+0002	 1.07166661632653E-0001	
 8.40500000000000E+0002	 1.07080859047619E-0001	
 8.42500000000000E+0002	 1.06957056462585E-0001	
 8.44500000000000E+0002	 1.06716253877551E-0001	
 8.46500000000000E+0002	 1.06530451292517E-0001	
 8.48500000000000E+0002	 1.06330648707483E-0001	
 8.50500000000000E+0002	 1.06218346122449E-0001	
 8.52500000000000E+0002	 1.06181043537415E-0001	
 8.54500000000000E+0002	 1.06292240952381E-0001	
 8.56500000000000E+0002	 1.06397438367347E-0001	
 8.58500000000000E+0002	 1.06436635782313E-0001	
 8.60500000000000E+0002	 1.06226833197279E-0001	
 8.62500000000000E+0002	 1.05774030612245E-0001	
 8.64500000000000E+0002	 1.05040728027211E-0001	
 8.66500000000000E+0002	 1.04197425442177E-0001	
 8.68500000000000E+0002	 1.03697622857143E-0001	
 8.70500000000000E+0002	 1.04457820272109E-0001	
 8.72500000000000E+0002	 1.05557017687075E-0001	
 8.74500000000000E+0002	 1.04877715102041E-0001	
 8.76500000000000E+0002	 1.03038412517007E-0001	
 8.78500000000000E+0002	 1.01523109931973E-0001	
 8.80500000000000E+0002	 1.00482807346939E-0001	
 8.82500000000000E+0002	 9.98330047619048E-0002	
 8.84500000000000E+0002	 9.93632021768707E-0002	
 8.86500000000000E+0002	 9.89803995918367E-0002	
 8.88500000000000E+0002	 9.85910970068027E-0002	
 8.90500000000000E+0002	 9.82167944217687E-0002	
 8.92500000000000E+0002	 9.77969918367347E-0002	
 8.94500000000000E+0002	 9.73621892517007E-0002	
 8.96500000000000E+0002	 9.68888866666667E-0002	
 8.98500000000000E+0002	 9.64705840816327E-0002	
 9.00500000000000E+0002	 9.61857814965986E-0002	
 9.02500000000000E+0002	 9.62104789115646E-0002	
 9.04500000000000E+0002	 9.65951763265306E-0002	
 9.06500000000000E+0002	 9.74273737414966E-0002	
 9.08500000000000E+0002	 9.86390711564626E-0002	
 9.10500000000000E+0002	 1.00053268571429E-0001	
 9.12500000000000E+0002	 1.01355965986395E-0001	
 9.14500000000000E+0002	 1.02307663401361E-0001	
 9.16500000000000E+0002	 1.02729360816327E-0001	
 9.18500000000000E+0002	 1.02590058231293E-0001	
 9.20500000000000E+0002	 1.01930255646259E-0001	
 9.22500000000000E+0002	 1.00904953061224E-0001	
 9.24500000000000E+0002	 9.96846504761905E-0002	
 9.26500000000000E+0002	 9.83833478911565E-0002	
 9.28500000000000E+0002	 9.71195453061224E-0002	
 9.30500000000000E+0002	 9.59687427210884E-0002	
 9.32500000000000E+0002	 9.50319401360544E-0002	
 9.34500000000000E+0002	 9.42881375510204E-0002	
 9.36500000000000E+0002	 9.37408349659864E-0002	
 9.38500000000000E+0002	 9.33025323809524E-0002	
 9.40500000000000E+0002	 9.30242297959184E-0002	
 9.42500000000000E+0002	 9.28449272108844E-0002	
 9.44500000000000E+0002	 9.28936246258503E-0002	
 9.46500000000000E+0002	 9.31053220408163E-0002	
 9.48500000000000E+0002	 9.35805194557823E-0002	
 9.50500000000000E+0002	 9.41967168707483E-0002	
 9.52500000000000E+0002	 9.50929142857143E-0002	
 9.54500000000000E+0002	 9.61471117006803E-0002	
 9.56500000000000E+0002	 9.75073091156463E-0002	
 9.58500000000000E+0002	 9.89720065306122E-0002	
 9.60500000000000E+0002	 1.00651703945578E-0001	
 9.62500000000000E+0002	 1.02297901360544E-0001	
 9.64500000000000E+0002	 1.04020098775510E-0001	
 9.66500000000000E+0002	 1.05593296190476E-0001	
 9.68500000000000E+0002	 1.07219993605442E-0001	
 9.70500000000000E+0002	 1.08718191020408E-0001	
 9.72500000000000E+0002	 1.10393388435374E-0001	
 9.74500000000000E+0002	 1.12200585850340E-0001	
 9.76500000000000E+0002	 1.14607783265306E-0001	
 9.78500000000000E+0002	 1.17659480680272E-0001	
 9.80500000000000E+0002	 1.21766178095238E-0001	
 9.82500000000000E+0002	 1.26685375510204E-0001	
 9.84500000000000E+0002	 1.32323072925170E-0001	
 9.86500000000000E+0002	 1.37909770340136E-0001	
 9.88500000000000E+0002	 1.43080967755102E-0001	
 9.90500000000000E+0002	 1.47261165170068E-0001	
 9.92500000000000E+0002	 1.50681362585034E-0001	
 9.94500000000000E+0002	 1.53546560000000E-0001	
 9.96500000000000E+0002	 1.56609257414966E-0001	
 9.98500000000000E+0002	 1.60206954829932E-0001	
 1.00050000000000E+0003	 1.64765152244898E-0001	
 1.00250000000000E+0003	 1.70066349659864E-0001	
 1.00450000000000E+0003	 1.75980047074830E-0001	
 1.00650000000000E+0003	 1.82059744489796E-0001	
 1.00850000000000E+0003	 1.88154941904762E-0001	
 1.01050000000000E+0003	 1.94019139319728E-0001	
 1.01250000000000E+0003	 1.99672836734694E-0001	
 1.01450000000000E+0003	 2.04965034149660E-0001	
 1.01650000000000E+0003	 2.09738731564626E-0001	
 1.01850000000000E+0003	 2.13663428979592E-0001	
 1.02050000000000E+0003	 2.16542626394558E-0001	
 1.02250000000000E+0003	 2.18410323809524E-0001	
 1.02450000000000E+0003	 2.19582021224490E-0001	
 1.02650000000000E+0003	 2.20526718639456E-0001	
 1.02850000000000E+0003	 2.21544916054422E-0001	
 1.03050000000000E+0003	 2.22822613469388E-0001	
 1.03250000000000E+0003	 2.24212310884354E-0001	
 1.03450000000000E+0003	 2.25622508299320E-0001	
 1.03650000000000E+0003	 2.26795705714286E-0001	
 1.03850000000000E+0003	 2.27714403129252E-0001	
 1.04050000000000E+0003	 2.28326600544218E-0001	
 1.04250000000000E+0003	 2.28966797959184E-0001	
 1.04450000000000E+0003	 2.29780995374150E-0001	
 1.04650000000000E+0003	 2.31150692789116E-0001	
 1.04850000000000E+0003	 2.33033390204082E-0001	
 1.05050000000000E+0003	 2.35336087619048E-0001	
 1.05250000000000E+0003	 2.37411785034014E-0001	
 1.05450000000000E+0003	 2.38821982448980E-0001	
 1.05650000000000E+0003	 2.39162679863946E-0001	
 1.05850000000000E+0003	 2.38603377278912E-0001	
 1.06050000000000E+0003	 2.37317574693878E-0001	
 1.06250000000000E+0003	 2.35984772108844E-0001	
 1.06450000000000E+0003	 2.35173969523810E-0001	
 1.06650000000000E+0003	 2.35574166938776E-0001	
 1.06850000000000E+0003	 2.37368364353741E-0001	
 1.07050000000000E+0003	 2.40458061768707E-0001	
 1.07250000000000E+0003	 2.44298759183673E-0001	
 1.07450000000000E+0003	 2.48308456598639E-0001	
 1.07650000000000E+0003	 2.51841154013605E-0001	
 1.07850000000000E+0003	 2.54420851428571E-0001	
 1.08050000000000E+0003	 2.55737548843537E-0001	
 1.08250000000000E+0003	 2.55528246258503E-0001	
 1.08450000000000E+0003	 2.53570943673469E-0001	
 1.08650000000000E+0003	 2.49678641088435E-0001	
 1.08850000000000E+0003	 2.44102338503401E-0001	
 1.09050000000000E+0003	 2.37498035918367E-0001	
 1.09250000000000E+0003	 2.31053733333333E-0001	
 1.09450000000000E+0003	 2.25576930748299E-0001	
 1.09650000000000E+0003	 2.21486628163265E-0001	
 1.09850000000000E+0003	 2.18275325578231E-0001	
 1.10050000000000E+0003	 2.15515522993197E-0001	
 1.10250000000000E+0003	 2.12606220408163E-0001	
 1.10450000000000E+0003	 2.09559417823129E-0001	
 1.10650000000000E+0003	 2.06255615238095E-0001	
 1.10850000000000E+0003	 2.03146312653061E-0001	
 1.11050000000000E+0003	 2.00227510068027E-0001	
 1.11250000000000E+0003	 1.97775707482993E-0001	
 1.11450000000000E+0003	 1.95460904897959E-0001	
 1.11650000000000E+0003	 1.93349602312925E-0001	
 1.11850000000000E+0003	 1.91053299727891E-0001	
 1.12050000000000E+0003	 1.88707497142857E-0001	
 1.12250000000000E+0003	 1.86002194557823E-0001	
 1.12450000000000E+0003	 1.83189391972789E-0001	
 1.12650000000000E+0003	 1.80140089387755E-0001	
 1.12850000000000E+0003	 1.77182286802721E-0001	
 1.13050000000000E+0003	 1.74137984217687E-0001	
 1.13250000000000E+0003	 1.71326681632653E-0001	
 1.13450000000000E+0003	 1.68687879047619E-0001	
 1.13650000000000E+0003	 1.66511576462585E-0001	
 1.13850000000000E+0003	 1.64697273877551E-0001	
 1.14050000000000E+0003	 1.63486971292517E-0001	
 1.14250000000000E+0003	 1.62736668707483E-0001	
 1.14450000000000E+0003	 1.62450866122449E-0001	
 1.14650000000000E+0003	 1.62235563537415E-0001	
 1.14850000000000E+0003	 1.61817760952381E-0001	
 1.15050000000000E+0003	 1.60758958367347E-0001	
 1.15250000000000E+0003	 1.58961655782313E-0001	
 1.15450000000000E+0003	 1.56451353197279E-0001	
 1.15650000000000E+0003	 1.53521550612245E-0001	
 1.15850000000000E+0003	 1.50427248027211E-0001	
 1.16050000000000E+0003	 1.47285445442177E-0001	
 1.16250000000000E+0003	 1.44072642857143E-0001	
 1.16450000000000E+0003	 1.40699340272109E-0001	
 1.16650000000000E+0003	 1.37237537687075E-0001	
 1.16850000000000E+0003	 1.33784235102041E-0001	
 1.17050000000000E+0003	 1.30561932517007E-0001	
 1.17250000000000E+0003	 1.27533629931973E-0001	
 1.17450000000000E+0003	 1.24767827346939E-0001	
 1.17650000000000E+0003	 1.22173524761905E-0001	
 1.17850000000000E+0003	 1.19969722176871E-0001	
 1.18050000000000E+0003	 1.18128919591837E-0001	
 1.18250000000000E+0003	 1.16851117006803E-0001	
 1.18450000000000E+0003	 1.16064314421769E-0001	
 1.18650000000000E+0003	 1.15942511836735E-0001	
 1.18850000000000E+0003	 1.16334209251701E-0001	
 1.19050000000000E+0003	 1.17347906666667E-0001	
 1.19250000000000E+0003	 1.18819604081633E-0001	
 1.19450000000000E+0003	 1.20821801496599E-0001	
 1.19650000000000E+0003	 1.23110498911565E-0001	
 1.19850000000000E+0003	 1.25659196326531E-0001	
 1.20050000000000E+0003	 1.28189393741497E-0001	
 1.20250000000000E+0003	 1.30656091156463E-0001	
 1.20450000000000E+0003	 1.32832788571429E-0001	
 1.20650000000000E+0003	 1.34740485986395E-0001	
 1.20850000000000E+0003	 1.36367683401361E-0001	
 1.21050000000000E+0003	 1.37976880816327E-0001	
 1.21250000000000E+0003	 1.39764078231293E-0001	
 1.21450000000000E+0003	 1.41949775646259E-0001	
 1.21650000000000E+0003	 1.44238973061224E-0001	
 1.21850000000000E+0003	 1.45865170476190E-0001	
 1.22050000000000E+0003	 1.46818367891156E-0001	
 1.22250000000000E+0003	 1.47937065306122E-0001	
 1.22450000000000E+0003	 1.49410762721088E-0001	
 1.22650000000000E+0003	 1.50806960136054E-0001	
 1.22850000000000E+0003	 1.52006657551020E-0001	
 1.23050000000000E+0003	 1.52820854965986E-0001	
 1.23250000000000E+0003	 1.53266552380952E-0001	
 1.23450000000000E+0003	 1.53250749795918E-0001	
 1.23650000000000E+0003	 1.52972947210884E-0001	
 1.23850000000000E+0003	 1.52386644625850E-0001	
 1.24050000000000E+0003	 1.51710842040816E-0001	
 1.24250000000000E+0003	 1.50852539455782E-0001	
 1.24450000000000E+0003	 1.49977736870748E-0001	
 1.24650000000000E+0003	 1.48906434285714E-0001	
 1.24850000000000E+0003	 1.47835631700680E-0001	
 1.25050000000000E+0003	 1.46585829115646E-0001	
 1.25250000000000E+0003	 1.45330026530612E-0001	
 1.25450000000000E+0003	 1.43906723945578E-0001	
 1.25650000000000E+0003	 1.42554421360544E-0001	
 1.25850000000000E+0003	 1.41129618775510E-0001	
 1.26050000000000E+0003	 1.39811316190476E-0001	
 1.26250000000000E+0003	 1.38370513605442E-0001	
 1.26450000000000E+0003	 1.37043211020408E-0001	
 1.26650000000000E+0003	 1.35729908435374E-0001	
 1.26850000000000E+0003	 1.34620605850340E-0001	
 1.27050000000000E+0003	 1.33560303265306E-0001	
 1.27250000000000E+0003	 1.32676000680272E-0001	
 1.27450000000000E+0003	 1.31813198095238E-0001	
 1.27650000000000E+0003	 1.31143395510204E-0001	
 1.27850000000000E+0003	 1.30530592925170E-0001	
 1.28050000000000E+0003	 1.30036290340136E-0001	
 1.28250000000000E+0003	 1.29506987755102E-0001	
 1.28450000000000E+0003	 1.29035685170068E-0001	
 1.28650000000000E+0003	 1.28607382585034E-0001	
 1.28850000000000E+0003	 1.28289080000000E-0001	
 1.29050000000000E+0003	 1.28004277414966E-0001	
 1.29250000000000E+0003	 1.27840474829932E-0001	
 1.29450000000000E+0003	 1.27807172244898E-0001	
 1.29650000000000E+0003	 1.27940869659864E-0001	
 1.29850000000000E+0003	 1.28221067074830E-0001	
 1.30050000000000E+0003	 1.28636264489796E-0001	
 1.30250000000000E+0003	 1.29150461904762E-0001	
 1.30450000000000E+0003	 1.29679159319728E-0001	
 1.30650000000000E+0003	 1.30204356734694E-0001	
 1.30850000000000E+0003	 1.30689554149660E-0001	
 1.31050000000000E+0003	 1.31145251564626E-0001	
 1.31250000000000E+0003	 1.31551948979592E-0001	
 1.31450000000000E+0003	 1.31784146394558E-0001	
 1.31650000000000E+0003	 1.31747343809524E-0001	
 1.31850000000000E+0003	 1.31573041224490E-0001	
 1.32050000000000E+0003	 1.31254738639456E-0001	
 1.32250000000000E+0003	 1.30892436054422E-0001	
 1.32450000000000E+0003	 1.30626633469388E-0001	
 1.32650000000000E+0003	 1.30539330884354E-0001	
 1.32850000000000E+0003	 1.30653528299320E-0001	
 1.33050000000000E+0003	 1.30942225714286E-0001	
 1.33250000000000E+0003	 1.31365923129252E-0001	
 1.33450000000000E+0003	 1.31902620544218E-0001	
 1.33650000000000E+0003	 1.32598317959184E-0001	
 1.33850000000000E+0003	 1.33352015374150E-0001	
 1.34050000000000E+0003	 1.33744712789116E-0001	
 1.34250000000000E+0003	 1.33676410204082E-0001	
 1.34450000000000E+0003	 1.33704607619048E-0001	
 1.34650000000000E+0003	 1.33832805034014E-0001	
 1.34850000000000E+0003	 1.34090502448980E-0001	
 1.35050000000000E+0003	 1.34391699863946E-0001	
 1.35250000000000E+0003	 1.34802897278912E-0001	
 1.35450000000000E+0003	 1.35249594693878E-0001	
 1.35650000000000E+0003	 1.35716292108844E-0001	
 1.35850000000000E+0003	 1.36206489523810E-0001	
 1.36050000000000E+0003	 1.37090186938776E-0001	
 1.36250000000000E+0003	 1.38284884353741E-0001	
 1.36450000000000E+0003	 1.39568081768707E-0001	
 1.36650000000000E+0003	 1.40706779183673E-0001	
 1.36850000000000E+0003	 1.42002476598639E-0001	
 1.37050000000000E+0003	 1.43026674013605E-0001	
 1.37250000000000E+0003	 1.44013371428571E-0001	
 1.37450000000000E+0003	 1.44974068843537E-0001	
 1.37650000000000E+0003	 1.45740266258503E-0001	
 1.37850000000000E+0003	 1.46314463673469E-0001	
 1.38050000000000E+0003	 1.46874161088435E-0001	
 1.38250000000000E+0003	 1.47399858503401E-0001	
 1.38450000000000E+0003	 1.47912555918367E-0001	
 1.38650000000000E+0003	 1.48332253333333E-0001	
 1.38850000000000E+0003	 1.48859450748299E-0001	
 1.39050000000000E+0003	 1.49316648163265E-0001	
 1.39250000000000E+0003	 1.50252845578231E-0001	
 1.39450000000000E+0003	 1.51667042993197E-0001	
 1.39650000000000E+0003	 1.53034740408163E-0001	
 1.39850000000000E+0003	 1.54214437823129E-0001	
 1.40050000000000E+0003	 1.55373135238095E-0001	
 1.40250000000000E+0003	 1.56150832653061E-0001	
 1.40450000000000E+0003	 1.56533030068027E-0001	
 1.40650000000000E+0003	 1.56751227482993E-0001	
 1.40850000000000E+0003	 1.56591424897959E-0001	
 1.41050000000000E+0003	 1.56378622312925E-0001	
 1.41250000000000E+0003	 1.55969319727891E-0001	
 1.41450000000000E+0003	 1.55463017142857E-0001	
 1.41650000000000E+0003	 1.54539214557823E-0001	
 1.41850000000000E+0003	 1.53718911972789E-0001	
 1.42050000000000E+0003	 1.52740109387755E-0001	
 1.42250000000000E+0003	 1.52188306802721E-0001	
 1.42450000000000E+0003	 1.51403004217687E-0001	
 1.42650000000000E+0003	 1.50387701632653E-0001	
 1.42850000000000E+0003	 1.49196399047619E-0001	
 1.43050000000000E+0003	 1.48562096462585E-0001	
 1.43250000000000E+0003	 1.48216793877551E-0001	
 1.43450000000000E+0003	 1.47898491292517E-0001	
 1.43650000000000E+0003	 1.47648688707483E-0001	
 1.43850000000000E+0003	 1.48917386122449E-0001	
 1.44050000000000E+0003	 1.50308583537415E-0001	
 1.44250000000000E+0003	 1.51377780952381E-0001	
 1.44450000000000E+0003	 1.52025978367347E-0001	
 1.44650000000000E+0003	 1.52704675782313E-0001	
 1.44850000000000E+0003	 1.53237373197279E-0001	
 1.45050000000000E+0003	 1.54050570612245E-0001	
 1.45250000000000E+0003	 1.54478268027211E-0001	
 1.45450000000000E+0003	 1.53827965442177E-0001	
 1.45650000000000E+0003	 1.52495162857143E-0001	
 1.45850000000000E+0003	 1.51971860272109E-0001	
 1.46050000000000E+0003	 1.50995557687075E-0001	
 1.46250000000000E+0003	 1.49632755102041E-0001	
 1.46450000000000E+0003	 1.47471452517007E-0001	
 1.46650000000000E+0003	 1.45755649931973E-0001	
 1.46850000000000E+0003	 1.43680847346939E-0001	
 1.47050000000000E+0003	 1.40383044761905E-0001	
 1.47250000000000E+0003	 1.36515742176871E-0001	
 1.47450000000000E+0003	 1.33393439591837E-0001	
 1.47650000000000E+0003	 1.31099137006803E-0001	
 1.47850000000000E+0003	 1.29445334421769E-0001	
 1.48050000000000E+0003	 1.28223531836735E-0001	
 1.48250000000000E+0003	 1.27191729251701E-0001	
 1.48450000000000E+0003	 1.26304426666667E-0001	
 1.48650000000000E+0003	 1.25599624081633E-0001	
 1.48850000000000E+0003	 1.25250321496599E-0001	
 1.49050000000000E+0003	 1.25192018911565E-0001	
 1.49250000000000E+0003	 1.25743716326531E-0001	
 1.49450000000000E+0003	 1.26857913741497E-0001	
 1.49650000000000E+0003	 1.27693611156463E-0001	
 1.49850000000000E+0003	 1.29287808571429E-0001	
 1.50050000000000E+0003	 1.31024005986395E-0001	
 1.50250000000000E+0003	 1.32590703401361E-0001	
 1.50450000000000E+0003	 1.32541900816327E-0001	
 1.50650000000000E+0003	 1.34786598231293E-0001	
 1.50850000000000E+0003	 1.39600795646259E-0001	
 1.51050000000000E+0003	 1.43980493061224E-0001	
 1.51250000000000E+0003	 1.47756190476190E-0001	
 1.51450000000000E+0003	 1.51316887891156E-0001	
 1.51650000000000E+0003	 1.54736085306122E-0001	
 1.51850000000000E+0003	 1.57746782721088E-0001	
 1.52050000000000E+0003	 1.60263980136054E-0001	
 1.52250000000000E+0003	 1.63384677551020E-0001	
 1.52450000000000E+0003	 1.66664374965986E-0001	
 1.52650000000000E+0003	 1.70972572380952E-0001	
 1.52850000000000E+0003	 1.74960269795918E-0001	
 1.53050000000000E+0003	 1.78455467210884E-0001	
 1.53250000000000E+0003	 1.81673164625850E-0001	
 1.53450000000000E+0003	 1.85837862040816E-0001	
 1.53650000000000E+0003	 1.89084059455782E-0001	
 1.53850000000000E+0003	 1.90988256870748E-0001	
 1.54050000000000E+0003	 1.95118454285714E-0001	
 1.54250000000000E+0003	 1.98944651700680E-0001	
 1.54450000000000E+0003	 2.02068349115646E-0001	
 1.54650000000000E+0003	 2.03580546530612E-0001	
 1.54850000000000E+0003	 2.03992743945578E-0001	
 1.55050000000000E+0003	 2.03254941360544E-0001	
 1.55250000000000E+0003	 2.00890138775510E-0001	
 1.55450000000000E+0003	 1.97353336190476E-0001	
 1.55650000000000E+0003	 1.91996533605442E-0001	
 1.55850000000000E+0003	 1.86031731020408E-0001	
 1.56050000000000E+0003	 1.82754428435374E-0001	
 1.56250000000000E+0003	 1.81623125850340E-0001	
 1.56450000000000E+0003	 1.79697823265306E-0001	
 1.56650000000000E+0003	 1.76559520680272E-0001	
 1.56850000000000E+0003	 1.73704718095238E-0001	
 1.57050000000000E+0003	 1.71275915510204E-0001	
 1.57250000000000E+0003	 1.69474612925170E-0001	
 1.57450000000000E+0003	 1.67075310340136E-0001	
 1.57650000000000E+0003	 1.64811007755102E-0001	
 1.57850000000000E+0003	 1.63021705170068E-0001	
 1.58050000000000E+0003	 1.61948402585034E-0001	
 1.58250000000000E+0003	 1.60329600000000E-0001	
 1.58450000000000E+0003	 1.59305797414966E-0001	
 1.58650000000000E+0003	 1.58530494829932E-0001	
 1.58850000000000E+0003	 1.58491192244898E-0001	
 1.59050000000000E+0003	 1.58730389659864E-0001	
 1.59250000000000E+0003	 1.59702587074830E-0001	
 1.59450000000000E+0003	 1.60935284489796E-0001	
 1.59650000000000E+0003	 1.62807981904762E-0001	
 1.59850000000000E+0003	 1.64698679319728E-0001	
 1.60050000000000E+0003	 1.67281876734694E-0001	
 1.60250000000000E+0003	 1.70110074149660E-0001	
 1.60450000000000E+0003	 1.73584271564626E-0001	
 1.60650000000000E+0003	 1.77227968979592E-0001	
 1.60850000000000E+0003	 1.81752666394558E-0001	
 1.61050000000000E+0003	 1.86673863809524E-0001	
 1.61250000000000E+0003	 1.92394561224490E-0001	
 1.61450000000000E+0003	 1.97508258639456E-0001	
 1.61650000000000E+0003	 2.04267956054422E-0001	
 1.61850000000000E+0003	 2.12346153469388E-0001	
 1.62050000000000E+0003	 2.20059350884354E-0001	
 1.62250000000000E+0003	 2.27795548299320E-0001	
 1.62450000000000E+0003	 2.37111245714286E-0001	
 1.62650000000000E+0003	 2.46217943129252E-0001	
 1.62850000000000E+0003	 2.55873140544218E-0001	
 1.63050000000000E+0003	 2.65455837959184E-0001	
 1.63250000000000E+0003	 2.73320035374150E-0001	
 1.63450000000000E+0003	 2.79597732789116E-0001	
 1.63650000000000E+0003	 2.87893430204082E-0001	
 1.63850000000000E+0003	 2.95073127619048E-0001	
 1.64050000000000E+0003	 3.00251325034014E-0001	
 1.64250000000000E+0003	 3.03800022448980E-0001	
 1.64450000000000E+0003	 3.05781719863946E-0001	
 1.64650000000000E+0003	 3.08459917278912E-0001	
 1.64850000000000E+0003	 3.11961614693878E-0001	
 1.65050000000000E+0003	 3.13699812108844E-0001	
 1.65250000000000E+0003	 3.13869009523810E-0001	
 1.65450000000000E+0003	 3.15538206938776E-0001	
 1.65650000000000E+0003	 3.16204904353741E-0001	
 1.65850000000000E+0003	 3.14152601768707E-0001	
 1.66050000000000E+0003	 3.09068799183673E-0001	
 1.66250000000000E+0003	 3.02307996598639E-0001	
 1.66450000000000E+0003	 2.94932194013605E-0001	
 1.66650000000000E+0003	 2.87633391428571E-0001	
 1.66850000000000E+0003	 2.79418588843537E-0001	
 1.67050000000000E+0003	 2.71115286258503E-0001	
 1.67250000000000E+0003	 2.63918483673469E-0001	
 1.67450000000000E+0003	 2.56629681088435E-0001	
 1.67650000000000E+0003	 2.49444378503401E-0001	
 1.67850000000000E+0003	 2.43922075918367E-0001	
 1.68050000000000E+0003	 2.37889273333333E-0001	
 1.68250000000000E+0003	 2.30423970748299E-0001	
 1.68450000000000E+0003	 2.22799168163265E-0001	
 1.68650000000000E+0003	 2.16161365578231E-0001	
 1.68850000000000E+0003	 2.11288062993197E-0001	
 1.69050000000000E+0003	 2.05288760408163E-0001	
 1.69250000000000E+0003	 1.98421457823129E-0001	
 1.69450000000000E+0003	 1.91368155238095E-0001	
 1.69650000000000E+0003	 1.84099352653061E-0001	
 1.69850000000000E+0003	 1.77813050068027E-0001	
 1.70050000000000E+0003	 1.71655747482993E-0001	
 1.70250000000000E+0003	 1.69072444897959E-0001	
 1.70450000000000E+0003	 1.67703142312925E-0001	
 1.70650000000000E+0003	 1.64575339727891E-0001	
 1.70850000000000E+0003	 1.61437537142857E-0001	
 1.71050000000000E+0003	 1.58657734557823E-0001	
 1.71250000000000E+0003	 1.55087431972789E-0001	
 1.71450000000000E+0003	 1.51249129387755E-0001	
 1.71650000000000E+0003	 1.47180326802721E-0001	
 1.71850000000000E+0003	 1.42735024217687E-0001	
 1.72050000000000E+0003	 1.39216721632653E-0001	
 1.72250000000000E+0003	 1.36569419047619E-0001	
 1.72450000000000E+0003	 1.33470616462585E-0001	
 1.72650000000000E+0003	 1.30297813877551E-0001	
 1.72850000000000E+0003	 1.27469511292517E-0001	
 1.73050000000000E+0003	 1.24778208707483E-0001	
 1.73250000000000E+0003	 1.22011406122449E-0001	
 1.73450000000000E+0003	 1.20291103537415E-0001	
 1.73650000000000E+0003	 1.19998800952381E-0001	
 1.73850000000000E+0003	 1.19839998367347E-0001	
 1.74050000000000E+0003	 1.18906195782313E-0001	
 1.74250000000000E+0003	 1.18095893197279E-0001	
 1.74450000000000E+0003	 1.16982590612245E-0001	
 1.74650000000000E+0003	 1.15041288027211E-0001	
 1.74850000000000E+0003	 1.12822485442177E-0001	
 1.75050000000000E+0003	 1.10374682857143E-0001	
 1.75250000000000E+0003	 1.08258380272109E-0001	
 1.75450000000000E+0003	 1.06782577687075E-0001	
 1.75650000000000E+0003	 1.05181775102041E-0001	
 1.75850000000000E+0003	 1.03414972517007E-0001	
 1.76050000000000E+0003	 1.01607669931973E-0001	
 1.76250000000000E+0003	 1.00105367346939E-0001	
 1.76450000000000E+0003	 9.82985647619048E-0002	
 1.76650000000000E+0003	 9.68372621768707E-0002	
 1.76850000000000E+0003	 9.52324595918367E-0002	
 1.77050000000000E+0003	 9.38081570068027E-0002	
 1.77250000000000E+0003	 9.29243544217687E-0002	
 1.77450000000000E+0003	 9.23670518367347E-0002	
 1.77650000000000E+0003	 9.19857492517007E-0002	
 1.77850000000000E+0003	 9.14504466666667E-0002	
 1.78050000000000E+0003	 9.08411440816327E-0002	
 1.78250000000000E+0003	 9.02663414965986E-0002	
 1.78450000000000E+0003	 8.95745389115646E-0002	
 1.78650000000000E+0003	 8.90972363265306E-0002	
 1.78850000000000E+0003	 8.83744337414966E-0002	
 1.79050000000000E+0003	 8.76866311564626E-0002	
 1.79250000000000E+0003	 8.70303285714286E-0002	
 1.79450000000000E+0003	 8.68625259863946E-0002	
 1.79650000000000E+0003	 8.67542234013605E-0002	
 1.79850000000000E+0003	 8.62379208163265E-0002	
 1.80050000000000E+0003	 8.58021182312925E-0002	
 1.80250000000000E+0003	 8.58168156462585E-0002	
 1.80450000000000E+0003	 8.53410130612245E-0002	
 1.80650000000000E+0003	 8.49667104761905E-0002	
 1.80850000000000E+0003	 8.44739078911565E-0002	
 1.81050000000000E+0003	 8.42171053061224E-0002	
 1.81250000000000E+0003	 8.39158027210884E-0002	
 1.81450000000000E+0003	 8.36710001360544E-0002	
 1.81650000000000E+0003	 8.33006975510204E-0002	
 1.81850000000000E+0003	 8.30908949659864E-0002	
 1.82050000000000E+0003	 8.27090923809524E-0002	
 1.82250000000000E+0003	 8.23367897959184E-0002	
 1.82450000000000E+0003	 8.19544872108844E-0002	
 1.82650000000000E+0003	 8.16251846258503E-0002	
 1.82850000000000E+0003	 8.13588820408163E-0002	
 1.83050000000000E+0003	 8.13595794557823E-0002	
 1.83250000000000E+0003	 8.10662768707483E-0002	
 1.83450000000000E+0003	 8.10064742857143E-0002	
 1.83650000000000E+0003	 8.09206717006803E-0002	
 1.83850000000000E+0003	 8.06918691156463E-0002	
 1.84050000000000E+0003	 8.02170665306122E-0002	
 1.84250000000000E+0003	 7.94972639455782E-0002	
 1.84450000000000E+0003	 7.91374613605442E-0002	
 1.84650000000000E+0003	 7.93671587755102E-0002	
 1.84850000000000E+0003	 7.98193561904762E-0002	
 1.85050000000000E+0003	 7.97290536054422E-0002	
 1.85250000000000E+0003	 7.95817510204082E-0002	
 1.85450000000000E+0003	 7.94629484353741E-0002	
 1.85650000000000E+0003	 7.93541458503401E-0002	
 1.85850000000000E+0003	 7.92583432653061E-0002	
 1.86050000000000E+0003	 7.91375406802721E-0002	
 1.86250000000000E+0003	 7.89412380952381E-0002	
 1.86450000000000E+0003	 7.87049355102041E-0002	
 1.86650000000000E+0003	 7.84636329251701E-0002	
 1.86850000000000E+0003	 7.84253303401361E-0002	
 1.87050000000000E+0003	 7.82410277551020E-0002	
 1.87250000000000E+0003	 7.81957251700680E-0002	
 1.87450000000000E+0003	 7.82764225850340E-0002	
 1.87650000000000E+0003	 7.82666200000000E-0002	
 1.87850000000000E+0003	 7.82158174149660E-0002	
 1.88050000000000E+0003	 7.81450148299320E-0002	
 1.88250000000000E+0003	 7.80277122448980E-0002	
 1.88450000000000E+0003	 7.79874096598639E-0002	
 1.88650000000000E+0003	 7.78151070748299E-0002	
 1.88850000000000E+0003	 7.77983044897959E-0002	
 1.89050000000000E+0003	 7.77950019047619E-0002	
 1.89250000000000E+0003	 7.76241993197279E-0002	
 1.89450000000000E+0003	 7.76768967346939E-0002	
 1.89650000000000E+0003	 7.76890941496599E-0002	
 1.89850000000000E+0003	 7.75512915646259E-0002	
 1.90050000000000E+0003	 7.75059889795918E-0002	
 1.90250000000000E+0003	 7.74536863945578E-0002	
 1.90450000000000E+0003	 7.74193838095238E-0002	
 1.90650000000000E+0003	 7.73780812244898E-0002	
 1.90850000000000E+0003	 7.74562786394558E-0002	
 1.91050000000000E+0003	 7.74229760544218E-0002	
 1.91250000000000E+0003	 7.72671734693878E-0002	
 1.91450000000000E+0003	 7.70353708843537E-0002	
 1.91650000000000E+0003	 7.68060682993197E-0002	
 1.91850000000000E+0003	 7.67717657142857E-0002	
 1.92050000000000E+0003	 7.69064631292517E-0002	
 1.92250000000000E+0003	 7.73061605442177E-0002	
 1.92450000000000E+0003	 7.73523579591837E-0002	
 1.92650000000000E+0003	 7.71440553741497E-0002	
 1.92850000000000E+0003	 7.71497527891156E-0002	
 1.93050000000000E+0003	 7.71479502040816E-0002	
 1.93250000000000E+0003	 7.71831476190476E-0002	
 1.93450000000000E+0003	 7.71668450340136E-0002	
 1.93650000000000E+0003	 7.71420424489796E-0002	
 1.93850000000000E+0003	 7.70692398639456E-0002	
 1.94050000000000E+0003	 7.70319372789116E-0002	
 1.94250000000000E+0003	 7.72066346938776E-0002	
 1.94450000000000E+0003	 7.72273321088435E-0002	
 1.94650000000000E+0003	 7.71820295238095E-0002	
 1.94850000000000E+0003	 7.72077269387755E-0002	
 1.95050000000000E+0003	 7.72079243537415E-0002	
 1.95250000000000E+0003	 7.72551217687075E-0002	
 1.95450000000000E+0003	 7.72913191836735E-0002	
 1.95650000000000E+0003	 7.73255165986395E-0002	
 1.95850000000000E+0003	 7.73172140136054E-0002	
 1.96050000000000E+0003	 7.73479114285714E-0002	
 1.96250000000000E+0003	 7.73491088435374E-0002	
 1.96450000000000E+0003	 7.73613062585034E-0002	
 1.96650000000000E+0003	 7.75160036734694E-0002	
 1.96850000000000E+0003	 7.75712010884354E-0002	
 1.97050000000000E+0003	 7.74568985034014E-0002	
 1.97250000000000E+0003	 7.74725959183673E-0002	
 1.97450000000000E+0003	 7.75097933333333E-0002	
 1.97650000000000E+0003	 7.75514907482993E-0002	
 1.97850000000000E+0003	 7.75701881632653E-0002	
 1.98050000000000E+0003	 7.75978855782313E-0002	
 1.98250000000000E+0003	 7.76310829931973E-0002	
 1.98450000000000E+0003	 7.76457804081633E-0002	
 1.98650000000000E+0003	 7.76984778231293E-0002	
 1.98850000000000E+0003	 7.77441752380952E-0002	
 1.99050000000000E+0003	 7.78013726530612E-0002	
 1.99250000000000E+0003	 7.79280700680272E-0002	
 1.99450000000000E+0003	 7.78742674829932E-0002	
 1.99650000000000E+0003	 7.78474648979592E-0002	
 1.99850000000000E+0003	 7.79336623129252E-0002	
 2.00050000000000E+0003	 7.79818597278912E-0002	
 2.00250000000000E+0003	 7.80305571428571E-0002	
 2.00450000000000E+0003	 7.80637545578231E-0002	
 2.00650000000000E+0003	 7.81379519727891E-0002	
 2.00850000000000E+0003	 7.81966493877551E-0002	
 2.01050000000000E+0003	 7.82533468027211E-0002	
 2.01250000000000E+0003	 7.82795442176871E-0002	
 2.01450000000000E+0003	 7.83497416326531E-0002	
 2.01650000000000E+0003	 7.85124390476190E-0002	
 2.01850000000000E+0003	 7.86221364625850E-0002	
 2.02050000000000E+0003	 7.85953338775510E-0002	
 2.02250000000000E+0003	 7.86535312925170E-0002	
 2.02450000000000E+0003	 7.87212287074830E-0002	
 2.02650000000000E+0003	 7.88054261224490E-0002	
 2.02850000000000E+0003	 7.88646235374150E-0002	
 2.03050000000000E+0003	 7.89363209523810E-0002	
 2.03250000000000E+0003	 7.90000183673469E-0002	
 2.03450000000000E+0003	 7.90707157823129E-0002	
 2.03650000000000E+0003	 7.91244131972789E-0002	
 2.03850000000000E+0003	 7.91881106122449E-0002	
 2.04050000000000E+0003	 7.92913080272109E-0002	
 2.04250000000000E+0003	 7.93800054421769E-0002	
 2.04450000000000E+0003	 7.93942028571429E-0002	
 2.04650000000000E+0003	 7.94319002721088E-0002	
 2.04850000000000E+0003	 7.94795976870748E-0002	
 2.05050000000000E+0003	 7.95302951020408E-0002	
 2.05250000000000E+0003	 7.95779925170068E-0002	
 2.05450000000000E+0003	 7.96191899319728E-0002	
 2.05650000000000E+0003	 7.96648873469388E-0002	
 2.05850000000000E+0003	 7.97010847619048E-0002	
 2.06050000000000E+0003	 7.97467821768707E-0002	
 2.06250000000000E+0003	 7.97764795918367E-0002	
 2.06450000000000E+0003	 7.98846770068027E-0002	
 2.06650000000000E+0003	 7.99203744217687E-0002	
 2.06850000000000E+0003	 7.99005718367347E-0002	
 2.07050000000000E+0003	 7.99097692517007E-0002	
 2.07250000000000E+0003	 7.99619666666667E-0002	
 2.07450000000000E+0003	 7.99906640816327E-0002	
 2.07650000000000E+0003	 8.00303614965986E-0002	
 2.07850000000000E+0003	 8.00465589115646E-0002	
 2.08050000000000E+0003	 8.00877563265306E-0002	
 2.08250000000000E+0003	 8.00979537414966E-0002	
 2.08450000000000E+0003	 8.01321511564626E-0002	
 2.08650000000000E+0003	 8.01443485714286E-0002	
 2.08850000000000E+0003	 8.01980459863946E-0002	
 2.09050000000000E+0003	 8.02277434013605E-0002	
 2.09250000000000E+0003	 8.02414408163265E-0002	
 2.09450000000000E+0003	 8.02351382312925E-0002	
 2.09650000000000E+0003	 8.02598356462585E-0002	
 2.09850000000000E+0003	 8.02690330612245E-0002	
 2.10050000000000E+0003	 8.02907304761905E-0002	
 2.10250000000000E+0003	 8.02899278911565E-0002	
 2.10450000000000E+0003	 8.03011253061224E-0002	
 2.10650000000000E+0003	 8.03073227210884E-0002	
 2.10850000000000E+0003	 8.03170201360544E-0002	
 2.11050000000000E+0003	 8.03182175510204E-0002	
 2.11250000000000E+0003	 8.03229149659864E-0002	
 2.11450000000000E+0003	 8.03376123809524E-0002	
 2.11650000000000E+0003	 8.03333097959184E-0002	
 2.11850000000000E+0003	 8.03215072108844E-0002	
 2.12050000000000E+0003	 8.03122046258503E-0002	
 2.12250000000000E+0003	 8.03144020408163E-0002	
 2.12450000000000E+0003	 8.03005994557823E-0002	
 2.12650000000000E+0003	 8.03007968707483E-0002	
 2.12850000000000E+0003	 8.02809942857143E-0002	
 2.13050000000000E+0003	 8.02791917006803E-0002	
 2.13250000000000E+0003	 8.02538891156463E-0002	
 2.13450000000000E+0003	 8.02575865306122E-0002	
 2.13650000000000E+0003	 8.02422839455782E-0002	
 2.13850000000000E+0003	 8.02344813605442E-0002	
 2.14050000000000E+0003	 8.01956787755102E-0002	
 2.14250000000000E+0003	 8.01843761904762E-0002	
 2.14450000000000E+0003	 8.01520736054422E-0002	
 2.14650000000000E+0003	 8.01447710204082E-0002	
 2.14850000000000E+0003	 8.01039684353741E-0002	
 2.15050000000000E+0003	 8.00846658503401E-0002	
 2.15250000000000E+0003	 8.00413632653061E-0002	
 2.15450000000000E+0003	 8.00175606802721E-0002	
 2.15650000000000E+0003	 7.99672580952381E-0002	
 2.15850000000000E+0003	 7.99334555102041E-0002	
 2.16050000000000E+0003	 7.98826529251701E-0002	
 2.16250000000000E+0003	 7.98478503401361E-0002	
 2.16450000000000E+0003	 7.97930477551020E-0002	
 2.16650000000000E+0003	 7.97507451700680E-0002	
 2.16850000000000E+0003	 7.97079425850340E-0002	
 2.17050000000000E+0003	 7.96636400000000E-0002	
 2.17250000000000E+0003	 7.95998374149660E-0002	
 2.17450000000000E+0003	 7.95395348299320E-0002	
 2.17650000000000E+0003	 7.94852322448980E-0002	
 2.17850000000000E+0003	 7.94294296598639E-0002	
 2.18050000000000E+0003	 7.93861270748299E-0002	
 2.18250000000000E+0003	 7.93323244897959E-0002	
 2.18450000000000E+0003	 7.92880219047619E-0002	
 2.18650000000000E+0003	 7.92297193197279E-0002	
 2.18850000000000E+0003	 7.91919167346939E-0002	
 2.19050000000000E+0003	 7.91311141496599E-0002	
 2.19250000000000E+0003	 7.90928115646259E-0002	
 2.19450000000000E+0003	 7.90290089795918E-0002	
 2.19650000000000E+0003	 7.89937063945578E-0002	
 2.19850000000000E+0003	 7.89289038095238E-0002	
 2.20050000000000E+0003	 7.88926012244898E-0002	
 2.20250000000000E+0003	 7.88307986394558E-0002	
 2.20450000000000E+0003	 7.88029960544218E-0002	
 2.20650000000000E+0003	 7.87376934693878E-0002	
 2.20850000000000E+0003	 7.87053908843537E-0002	
 2.21050000000000E+0003	 7.86420882993197E-0002	
 2.21250000000000E+0003	 7.86107857142857E-0002	
 2.21450000000000E+0003	 7.85504831292517E-0002	
 2.21650000000000E+0003	 7.85206805442177E-0002	
 2.21850000000000E+0003	 7.84623779591837E-0002	
 2.22050000000000E+0003	 7.84305753741497E-0002	
 2.22250000000000E+0003	 7.83702727891156E-0002	
 2.22450000000000E+0003	 7.83334702040816E-0002	
 2.22650000000000E+0003	 7.82801676190476E-0002	
 2.22850000000000E+0003	 7.82508650340136E-0002	
 2.23050000000000E+0003	 7.82035624489796E-0002	
 2.23250000000000E+0003	 7.81677598639456E-0002	
 2.23450000000000E+0003	 7.81214572789116E-0002	
 2.23650000000000E+0003	 7.80871546938776E-0002	
 2.23850000000000E+0003	 7.80518521088435E-0002	
 2.24050000000000E+0003	 7.80185495238095E-0002	
 2.24250000000000E+0003	 7.79857469387755E-0002	
 2.24450000000000E+0003	 7.79479443537415E-0002	
 2.24650000000000E+0003	 7.79186417687075E-0002	
 2.24850000000000E+0003	 7.78803391836735E-0002	
 2.25050000000000E+0003	 7.78510365986395E-0002	
 2.25250000000000E+0003	 7.78112340136054E-0002	
 2.25450000000000E+0003	 7.77869314285714E-0002	
 2.25650000000000E+0003	 7.77431288435374E-0002	
 2.25850000000000E+0003	 7.77278262585034E-0002	
 2.26050000000000E+0003	 7.76915236734694E-0002	
 2.26250000000000E+0003	 7.76812210884354E-0002	
 2.26450000000000E+0003	 7.76394185034014E-0002	
 2.26650000000000E+0003	 7.76236159183673E-0002	
 2.26850000000000E+0003	 7.75853133333333E-0002	
 2.27050000000000E+0003	 7.75730107482993E-0002	
 2.27250000000000E+0003	 7.75307081632653E-0002	
 2.27450000000000E+0003	 7.75209055782313E-0002	
 2.27650000000000E+0003	 7.74816029931973E-0002	
 2.27850000000000E+0003	 7.74703004081633E-0002	
 2.28050000000000E+0003	 7.74314978231293E-0002	
 2.28250000000000E+0003	 7.74181952380952E-0002	
 2.28450000000000E+0003	 7.73908926530612E-0002	
 2.28650000000000E+0003	 7.73990900680272E-0002	
 2.28850000000000E+0003	 7.73902874829932E-0002	
 2.29050000000000E+0003	 7.73974848979592E-0002	
 2.29250000000000E+0003	 7.73931823129252E-0002	
 2.29450000000000E+0003	 7.74013797278912E-0002	
 2.29650000000000E+0003	 7.73995771428571E-0002	
 2.29850000000000E+0003	 7.74067745578231E-0002	
 2.30050000000000E+0003	 7.74164719727891E-0002	
 2.30250000000000E+0003	 7.74211693877551E-0002	
 2.30450000000000E+0003	 7.74233668027211E-0002	
 2.30650000000000E+0003	 7.74285642176871E-0002	
 2.30850000000000E+0003	 7.74497616326531E-0002	
 2.31050000000000E+0003	 7.74474590476190E-0002	
 2.31250000000000E+0003	 7.74471564625850E-0002	
 2.31450000000000E+0003	 7.74453538775510E-0002	
 2.31650000000000E+0003	 7.74750512925170E-0002	
 2.31850000000000E+0003	 7.74767487074830E-0002	
 2.32050000000000E+0003	 7.75049461224490E-0002	
 2.32250000000000E+0003	 7.75011435374150E-0002	
 2.32450000000000E+0003	 7.75098409523810E-0002	
 2.32650000000000E+0003	 7.74895383673469E-0002	
 2.32850000000000E+0003	 7.74787357823129E-0002	
 2.33050000000000E+0003	 7.74234331972789E-0002	
 2.33250000000000E+0003	 7.74231306122449E-0002	
 2.33450000000000E+0003	 7.74263280272109E-0002	
 2.33650000000000E+0003	 7.74950254421769E-0002	
 2.33850000000000E+0003	 7.75337228571429E-0002	
 2.34050000000000E+0003	 7.76119202721088E-0002	
 2.34250000000000E+0003	 7.76316176870748E-0002	
 2.34450000000000E+0003	 7.75713151020408E-0002	
 2.34650000000000E+0003	 7.74805125170068E-0002	
 2.34850000000000E+0003	 7.75357099319728E-0002	
 2.35050000000000E+0003	 7.75104073469388E-0002	
 2.35250000000000E+0003	 7.74561047619048E-0002	
 2.35450000000000E+0003	 7.74718021768707E-0002	
 2.35650000000000E+0003	 7.75679995918367E-0002	
 2.35850000000000E+0003	 7.76176970068027E-0002	
 2.36050000000000E+0003	 7.76283944217687E-0002	
 2.36250000000000E+0003	 7.76140918367347E-0002	
 2.36450000000000E+0003	 7.76232892517007E-0002	
 2.36650000000000E+0003	 7.76219866666667E-0002	
 2.36850000000000E+0003	 7.76491840816327E-0002	
 2.37050000000000E+0003	 7.76778814965986E-0002	
 2.37250000000000E+0003	 7.77090789115646E-0002	
 2.37450000000000E+0003	 7.77177763265306E-0002	
 2.37650000000000E+0003	 7.77459737414966E-0002	
 2.37850000000000E+0003	 7.77931711564626E-0002	
 2.38050000000000E+0003	 7.78288685714286E-0002	
 2.38250000000000E+0003	 7.78470659863946E-0002	
 2.38450000000000E+0003	 7.78517634013605E-0002	
 2.38650000000000E+0003	 7.78834608163265E-0002	
 2.38850000000000E+0003	 7.79166582312925E-0002	
 2.39050000000000E+0003	 7.79753556462585E-0002	
 2.39250000000000E+0003	 7.80185530612245E-0002	
 2.39450000000000E+0003	 7.80787504761905E-0002	
 2.39650000000000E+0003	 7.81244478911565E-0002	
 2.39850000000000E+0003	 7.81906453061224E-0002	
 2.40050000000000E+0003	 7.82393427210884E-0002	
 2.40250000000000E+0003	 7.83085401360544E-0002	
 2.40450000000000E+0003	 7.83612375510204E-0002	
 2.40650000000000E+0003	 7.84364349659864E-0002	
 2.40850000000000E+0003	 7.84956323809524E-0002	
 2.41050000000000E+0003	 7.85718297959184E-0002	
 2.41250000000000E+0003	 7.86360272108844E-0002	
 2.41450000000000E+0003	 7.87207246258503E-0002	
 2.41650000000000E+0003	 7.87939220408163E-0002	
 2.41850000000000E+0003	 7.88791194557823E-0002	
 2.42050000000000E+0003	 7.89578168707483E-0002	
 2.42250000000000E+0003	 7.90505142857143E-0002	
 2.42450000000000E+0003	 7.91407117006803E-0002	
 2.42650000000000E+0003	 7.92334091156463E-0002	
 2.42850000000000E+0003	 7.93206065306122E-0002	
 2.43050000000000E+0003	 7.94118039455782E-0002	
 2.43250000000000E+0003	 7.95080013605442E-0002	
 2.43450000000000E+0003	 7.96021987755102E-0002	
 2.43650000000000E+0003	 7.97038961904762E-0002	
 2.43850000000000E+0003	 7.98010936054422E-0002	
 2.44050000000000E+0003	 7.99057910204082E-0002	
 2.44250000000000E+0003	 8.00014884353741E-0002	
 2.44450000000000E+0003	 8.01041858503401E-0002	
 2.44650000000000E+0003	 8.01968832653061E-0002	
 2.44850000000000E+0003	 8.03065806802721E-0002	
 2.45050000000000E+0003	 8.04027780952381E-0002	
 2.45250000000000E+0003	 8.05089755102041E-0002	
 2.45450000000000E+0003	 8.06026729251701E-0002	
 2.45650000000000E+0003	 8.07203703401361E-0002	
 2.45850000000000E+0003	 8.08260677551020E-0002	
 2.46050000000000E+0003	 8.09437651700680E-0002	
 2.46250000000000E+0003	 8.10474625850340E-0002	
 2.46450000000000E+0003	 8.11741600000000E-0002	
 2.46650000000000E+0003	 8.12858574149660E-0002	
 2.46850000000000E+0003	 8.14080548299320E-0002	
 2.47050000000000E+0003	 8.15177522448980E-0002	
 2.47250000000000E+0003	 8.16454496598639E-0002	
 2.47450000000000E+0003	 8.17601470748299E-0002	
 2.47650000000000E+0003	 8.18868444897959E-0002	
 2.47850000000000E+0003	 8.20015419047619E-0002	
 2.48050000000000E+0003	 8.21252393197279E-0002	
 2.48250000000000E+0003	 8.22414367346939E-0002	
 2.48450000000000E+0003	 8.23631341496599E-0002	
 2.48650000000000E+0003	 8.24773315646259E-0002	
 2.48850000000000E+0003	 8.25995289795918E-0002	
 2.49050000000000E+0003	 8.27227263945578E-0002	
 2.49250000000000E+0003	 8.28454238095238E-0002	
 2.49450000000000E+0003	 8.29616212244898E-0002	
 2.49650000000000E+0003	 8.30798186394558E-0002	
 2.49850000000000E+0003	 8.32055160544218E-0002	
 2.50050000000000E+0003	 8.33257134693878E-0002	
 2.50250000000000E+0003	 8.34439108843537E-0002	
 2.50450000000000E+0003	 8.35611082993197E-0002	
 2.50650000000000E+0003	 8.36873057142857E-0002	
 2.50850000000000E+0003	 8.37995031292517E-0002	
 2.51050000000000E+0003	 8.39077005442177E-0002	
 2.51250000000000E+0003	 8.40068979591837E-0002	
 2.51450000000000E+0003	 8.41115953741497E-0002	
 2.51650000000000E+0003	 8.42047927891156E-0002	
 2.51850000000000E+0003	 8.43019902040816E-0002	
 2.52050000000000E+0003	 8.43946876190476E-0002	
 2.52250000000000E+0003	 8.44938850340136E-0002	
 2.52450000000000E+0003	 8.45825824489796E-0002	
 2.52650000000000E+0003	 8.46742798639456E-0002	
 2.52850000000000E+0003	 8.47624772789116E-0002	
 2.53050000000000E+0003	 8.48586746938776E-0002	
 2.53250000000000E+0003	 8.49503721088435E-0002	
 2.53450000000000E+0003	 8.50440695238095E-0002	
 2.53650000000000E+0003	 8.51417669387755E-0002	
 2.53850000000000E+0003	 8.52469643537415E-0002	
 2.54050000000000E+0003	 8.53476617687075E-0002	
 2.54250000000000E+0003	 8.54473591836735E-0002	
 2.54450000000000E+0003	 8.55495565986395E-0002	
 2.54650000000000E+0003	 8.56572540136054E-0002	
 2.54850000000000E+0003	 8.57684514285714E-0002	
 2.55050000000000E+0003	 8.58756488435374E-0002	
 2.55250000000000E+0003	 8.59838462585034E-0002	
 2.55450000000000E+0003	 8.60910436734694E-0002	
 2.55650000000000E+0003	 8.62067410884354E-0002	
 2.55850000000000E+0003	 8.63154385034014E-0002	
 2.56050000000000E+0003	 8.64301359183673E-0002	
 2.56250000000000E+0003	 8.65378333333333E-0002	
 2.56450000000000E+0003	 8.66555307482993E-0002	
 2.56650000000000E+0003	 8.67657281632653E-0002	
 2.56850000000000E+0003	 8.68794255782313E-0002	
 2.57050000000000E+0003	 8.69906229931973E-0002	
 2.57250000000000E+0003	 8.71173204081633E-0002	
 2.57450000000000E+0003	 8.72370178231293E-0002	
 2.57650000000000E+0003	 8.73622152380952E-0002	
 2.57850000000000E+0003	 8.74884126530612E-0002	
 2.58050000000000E+0003	 8.76336100680272E-0002	
 2.58250000000000E+0003	 8.77733074829932E-0002	
 2.58450000000000E+0003	 8.79140048979592E-0002	
 2.58650000000000E+0003	 8.80542023129252E-0002	
 2.58850000000000E+0003	 8.82038997278912E-0002	
 2.59050000000000E+0003	 8.83495971428571E-0002	
 2.59250000000000E+0003	 8.84972945578231E-0002	
 2.59450000000000E+0003	 8.86499919727891E-0002	
 2.59650000000000E+0003	 8.88131893877551E-0002	
 2.59850000000000E+0003	 8.89758868027211E-0002	
 2.60050000000000E+0003	 8.91365842176871E-0002	
 2.60250000000000E+0003	 8.93027816326531E-0002	
 2.60450000000000E+0003	 8.94734790476190E-0002	
 2.60650000000000E+0003	 8.96441764625850E-0002	
 2.60850000000000E+0003	 8.98093738775510E-0002	
 2.61050000000000E+0003	 8.99865712925170E-0002	
 2.61250000000000E+0003	 9.01672687074830E-0002	
 2.61450000000000E+0003	 9.03524661224490E-0002	
 2.61650000000000E+0003	 9.05296635374150E-0002	
 2.61850000000000E+0003	 9.07143609523810E-0002	
 2.62050000000000E+0003	 9.09000583673469E-0002	
 2.62250000000000E+0003	 9.10912557823129E-0002	
 2.62450000000000E+0003	 9.12754531972789E-0002	
 2.62650000000000E+0003	 9.14701506122449E-0002	
 2.62850000000000E+0003	 9.16683480272109E-0002	
 2.63050000000000E+0003	 9.18715454421769E-0002	
 2.63250000000000E+0003	 9.20647428571429E-0002	
 2.63450000000000E+0003	 9.22614402721088E-0002	
 2.63650000000000E+0003	 9.24631376870748E-0002	
 2.63850000000000E+0003	 9.26728351020408E-0002	
 2.64050000000000E+0003	 9.28780325170068E-0002	
 2.64250000000000E+0003	 9.30827299319728E-0002	
 2.64450000000000E+0003	 9.32939273469388E-0002	
 2.64650000000000E+0003	 9.35046247619048E-0002	
 2.64850000000000E+0003	 9.37118221768707E-0002	
 2.65050000000000E+0003	 9.39170195918367E-0002	
 2.65250000000000E+0003	 9.41307170068027E-0002	
 2.65450000000000E+0003	 9.43409144217687E-0002	
 2.65650000000000E+0003	 9.45526118367347E-0002	
 2.65850000000000E+0003	 9.47598092517007E-0002	
 2.66050000000000E+0003	 9.49800066666667E-0002	
 2.66250000000000E+0003	 9.51927040816327E-0002	
 2.66450000000000E+0003	 9.54104014965986E-0002	
 2.66650000000000E+0003	 9.56175989115646E-0002	
 2.66850000000000E+0003	 9.58377963265306E-0002	
 2.67050000000000E+0003	 9.60464937414966E-0002	
 2.67250000000000E+0003	 9.62621911564626E-0002	
 2.67450000000000E+0003	 9.64658885714286E-0002	
 2.67650000000000E+0003	 9.66810859863946E-0002	
 2.67850000000000E+0003	 9.68912834013605E-0002	
 2.68050000000000E+0003	 9.71129808163265E-0002	
 2.68250000000000E+0003	 9.73156782312925E-0002	
 2.68450000000000E+0003	 9.75238756462585E-0002	
 2.68650000000000E+0003	 9.77250730612245E-0002	
 2.68850000000000E+0003	 9.79322704761905E-0002	
 2.69050000000000E+0003	 9.81259678911565E-0002	
 2.69250000000000E+0003	 9.83296653061224E-0002	
 2.69450000000000E+0003	 9.85303627210884E-0002	
 2.69650000000000E+0003	 9.87405601360544E-0002	
 2.69850000000000E+0003	 9.89437575510204E-0002	
 2.70050000000000E+0003	 9.91564549659864E-0002	
 2.70250000000000E+0003	 9.93731523809524E-0002	
 2.70450000000000E+0003	 9.95948497959184E-0002	
 2.70650000000000E+0003	 9.98170472108844E-0002	
 2.70850000000000E+0003	 1.00045244625850E-0001	
 2.71050000000000E+0003	 1.00287442040816E-0001	
 2.71250000000000E+0003	 1.00533639455782E-0001	
 2.71450000000000E+0003	 1.00784336870748E-0001	
 2.71650000000000E+0003	 1.01031534285714E-0001	
 2.71850000000000E+0003	 1.01292731700680E-0001	
 2.72050000000000E+0003	 1.01554429115646E-0001	
 2.72250000000000E+0003	 1.01824626530612E-0001	
 2.72450000000000E+0003	 1.02082323945578E-0001	
 2.72650000000000E+0003	 1.02369021360544E-0001	
 2.72850000000000E+0003	 1.02644218775510E-0001	
 2.73050000000000E+0003	 1.02908416190476E-0001	
 2.73250000000000E+0003	 1.03152113605442E-0001	
 2.73450000000000E+0003	 1.03412311020408E-0001	
 2.73650000000000E+0003	 1.03666508435374E-0001	
 2.73850000000000E+0003	 1.03925205850340E-0001	
 2.74050000000000E+0003	 1.04159903265306E-0001	
 2.74250000000000E+0003	 1.04407100680272E-0001	
 2.74450000000000E+0003	 1.04641298095238E-0001	
 2.74650000000000E+0003	 1.04891995510204E-0001	
 2.74850000000000E+0003	 1.05135692925170E-0001	
 2.75050000000000E+0003	 1.05389390340136E-0001	
 2.75250000000000E+0003	 1.05634087755102E-0001	
 2.75450000000000E+0003	 1.05888785170068E-0001	
 2.75650000000000E+0003	 1.06141482585034E-0001	
 2.75850000000000E+0003	 1.06408180000000E-0001	
 2.76050000000000E+0003	 1.06684377414966E-0001	
 2.76250000000000E+0003	 1.06968574829932E-0001	
 2.76450000000000E+0003	 1.07244272244898E-0001	
 2.76650000000000E+0003	 1.07520469659864E-0001	
 2.76850000000000E+0003	 1.07809667074830E-0001	
 2.77050000000000E+0003	 1.08100864489796E-0001	
 2.77250000000000E+0003	 1.08396561904762E-0001	
 2.77450000000000E+0003	 1.08709759319728E-0001	
 2.77650000000000E+0003	 1.09034956734694E-0001	
 2.77850000000000E+0003	 1.09341154149660E-0001	
 2.78050000000000E+0003	 1.09666851564626E-0001	
 2.78250000000000E+0003	 1.09997548979592E-0001	
 2.78450000000000E+0003	 1.10348246394558E-0001	
 2.78650000000000E+0003	 1.10688943809524E-0001	
 2.78850000000000E+0003	 1.11064641224490E-0001	
 2.79050000000000E+0003	 1.11442338639456E-0001	
 2.79250000000000E+0003	 1.11831036054422E-0001	
 2.79450000000000E+0003	 1.12203233469388E-0001	
 2.79650000000000E+0003	 1.12602430884354E-0001	
 2.79850000000000E+0003	 1.13002628299320E-0001	
 2.80050000000000E+0003	 1.13422325714286E-0001	
 2.80250000000000E+0003	 1.13826023129252E-0001	
 2.80450000000000E+0003	 1.14256720544218E-0001	
 2.80650000000000E+0003	 1.14670417959184E-0001	
 2.80850000000000E+0003	 1.15109115374150E-0001	
 2.81050000000000E+0003	 1.15557312789116E-0001	
 2.81250000000000E+0003	 1.16021010204082E-0001	
 2.81450000000000E+0003	 1.16470707619048E-0001	
 2.81650000000000E+0003	 1.16950405034014E-0001	
 2.81850000000000E+0003	 1.17441102448980E-0001	
 2.82050000000000E+0003	 1.17956799863946E-0001	
 2.82250000000000E+0003	 1.18478997278912E-0001	
 2.82450000000000E+0003	 1.19038194693878E-0001	
 2.82650000000000E+0003	 1.19623392108844E-0001	
 2.82850000000000E+0003	 1.20238589523810E-0001	
 2.83050000000000E+0003	 1.20881786938776E-0001	
 2.83250000000000E+0003	 1.21579984353741E-0001	
 2.83450000000000E+0003	 1.22347681768707E-0001	
 2.83650000000000E+0003	 1.23203379183673E-0001	
 2.83850000000000E+0003	 1.24200576598639E-0001	
 2.84050000000000E+0003	 1.25334274013605E-0001	
 2.84250000000000E+0003	 1.26681471428571E-0001	
 2.84450000000000E+0003	 1.28364168843537E-0001	
 2.84650000000000E+0003	 1.30433866258503E-0001	
 2.84850000000000E+0003	 1.32783563673469E-0001	
 2.85050000000000E+0003	 1.35144261088435E-0001	
 2.85250000000000E+0003	 1.37125458503401E-0001	
 2.85450000000000E+0003	 1.38485155918367E-0001	
 2.85650000000000E+0003	 1.39196353333333E-0001	
 2.85850000000000E+0003	 1.39539050748299E-0001	
 2.86050000000000E+0003	 1.39788248163265E-0001	
 2.86250000000000E+0003	 1.40168445578231E-0001	
 2.86450000000000E+0003	 1.40793142993197E-0001	
 2.86650000000000E+0003	 1.41715340408163E-0001	
 2.86850000000000E+0003	 1.42828537823129E-0001	
 2.87050000000000E+0003	 1.44032735238095E-0001	
 2.87250000000000E+0003	 1.45172432653061E-0001	
 2.87450000000000E+0003	 1.46076630068027E-0001	
 2.87650000000000E+0003	 1.46623327482993E-0001	
 2.87850000000000E+0003	 1.46963024897959E-0001	
 2.88050000000000E+0003	 1.47204222312925E-0001	
 2.88250000000000E+0003	 1.47447419727891E-0001	
 2.88450000000000E+0003	 1.47751117142857E-0001	
 2.88650000000000E+0003	 1.48165314557823E-0001	
 2.88850000000000E+0003	 1.48679011972789E-0001	
 2.89050000000000E+0003	 1.49297209387755E-0001	
 2.89250000000000E+0003	 1.50003406802721E-0001	
 2.89450000000000E+0003	 1.50807104217687E-0001	
 2.89650000000000E+0003	 1.51702301632653E-0001	
 2.89850000000000E+0003	 1.52638499047619E-0001	
 2.90050000000000E+0003	 1.53649696462585E-0001	
 2.90250000000000E+0003	 1.54782393877551E-0001	
 2.90450000000000E+0003	 1.56074591292517E-0001	
 2.90650000000000E+0003	 1.57531788707483E-0001	
 2.90850000000000E+0003	 1.59213986122449E-0001	
 2.91050000000000E+0003	 1.61170683537415E-0001	
 2.91250000000000E+0003	 1.63474880952381E-0001	
 2.91450000000000E+0003	 1.66041078367347E-0001	
 2.91650000000000E+0003	 1.68766275782313E-0001	
 2.91850000000000E+0003	 1.71522973197279E-0001	
 2.92050000000000E+0003	 1.74130670612245E-0001	
 2.92250000000000E+0003	 1.76361868027211E-0001	
 2.92450000000000E+0003	 1.78099565442177E-0001	
 2.92650000000000E+0003	 1.79271762857143E-0001	
 2.92850000000000E+0003	 1.79979460272109E-0001	
 2.93050000000000E+0003	 1.80246157687075E-0001	
 2.93250000000000E+0003	 1.80098355102041E-0001	
 2.93450000000000E+0003	 1.79598552517007E-0001	
 2.93650000000000E+0003	 1.78793749931973E-0001	
 2.93850000000000E+0003	 1.77645947346939E-0001	
 2.94050000000000E+0003	 1.76245144761905E-0001	
 2.94250000000000E+0003	 1.74743342176871E-0001	
 2.94450000000000E+0003	 1.73307539591837E-0001	
 2.94650000000000E+0003	 1.72019237006803E-0001	
 2.94850000000000E+0003	 1.70999434421769E-0001	
 2.95050000000000E+0003	 1.70355631836735E-0001	
 2.95250000000000E+0003	 1.70144829251701E-0001	
 2.95450000000000E+0003	 1.70181526666667E-0001	
 2.95650000000000E+0003	 1.70300224081633E-0001	
 2.95850000000000E+0003	 1.70357421496599E-0001	
 2.96050000000000E+0003	 1.70202118911565E-0001	
 2.96250000000000E+0003	 1.69757316326531E-0001	
 2.96450000000000E+0003	 1.69004513741497E-0001	
 2.96650000000000E+0003	 1.68029711156463E-0001	
 2.96850000000000E+0003	 1.66938908571429E-0001	
 2.97050000000000E+0003	 1.65650105986395E-0001	
 2.97250000000000E+0003	 1.64087303401361E-0001	
 2.97450000000000E+0003	 1.62515000816327E-0001	
 2.97650000000000E+0003	 1.61088198231293E-0001	
 2.97850000000000E+0003	 1.59823895646259E-0001	
 2.98050000000000E+0003	 1.58681593061224E-0001	
 2.98250000000000E+0003	 1.57602790476190E-0001	
 2.98450000000000E+0003	 1.56573487891156E-0001	
 2.98650000000000E+0003	 1.55653185306122E-0001	
 2.98850000000000E+0003	 1.54834382721088E-0001	
 2.99050000000000E+0003	 1.54158580136054E-0001	
 2.99250000000000E+0003	 1.53604777551020E-0001	
 2.99450000000000E+0003	 1.53129474965986E-0001	
 2.99650000000000E+0003	 1.52787172380952E-0001	
 2.99850000000000E+0003	 1.52623869795918E-0001	
 3.00050000000000E+0003	 1.52555567210884E-0001	
 3.00250000000000E+0003	 1.52619264625850E-0001	
 3.00450000000000E+0003	 1.52808962040816E-0001	
 3.00650000000000E+0003	 1.53086659455782E-0001	
 3.00850000000000E+0003	 1.53444856870748E-0001	
 3.01050000000000E+0003	 1.53939554285714E-0001	
 3.01250000000000E+0003	 1.54542751700680E-0001	
 3.01450000000000E+0003	 1.55183449115646E-0001	
 3.01650000000000E+0003	 1.55824646530612E-0001	
 3.01850000000000E+0003	 1.56504843945578E-0001	
 3.02050000000000E+0003	 1.57263041360544E-0001	
 3.02250000000000E+0003	 1.58106238775510E-0001	
 3.02450000000000E+0003	 1.59044436190476E-0001	
 3.02650000000000E+0003	 1.59991133605442E-0001	
 3.02850000000000E+0003	 1.60920831020408E-0001	
 3.03050000000000E+0003	 1.61851028435374E-0001	
 3.03250000000000E+0003	 1.62818225850340E-0001	
 3.03450000000000E+0003	 1.63834423265306E-0001	
 3.03650000000000E+0003	 1.64833620680272E-0001	
 3.03850000000000E+0003	 1.65816318095238E-0001	
 3.04050000000000E+0003	 1.66898015510204E-0001	
 3.04250000000000E+0003	 1.68022712925170E-0001	
 3.04450000000000E+0003	 1.69124410340136E-0001	
 3.04650000000000E+0003	 1.70197607755102E-0001	
 3.04850000000000E+0003	 1.71309305170068E-0001	
 3.05050000000000E+0003	 1.72506502585034E-0001	
 3.05250000000000E+0003	 1.73721200000000E-0001	
 3.05450000000000E+0003	 1.74900897414966E-0001	
 3.05650000000000E+0003	 1.76104594829932E-0001	
 3.05850000000000E+0003	 1.77297292244898E-0001	
 3.06050000000000E+0003	 1.78452489659864E-0001	
 3.06250000000000E+0003	 1.79548187074830E-0001	
 3.06450000000000E+0003	 1.80615884489796E-0001	
 3.06650000000000E+0003	 1.81696581904762E-0001	
 3.06850000000000E+0003	 1.82773779319728E-0001	
 3.07050000000000E+0003	 1.83768976734694E-0001	
 3.07250000000000E+0003	 1.84728174149660E-0001	
 3.07450000000000E+0003	 1.85673371564626E-0001	
 3.07650000000000E+0003	 1.86646068979592E-0001	
 3.07850000000000E+0003	 1.87639266394558E-0001	
 3.08050000000000E+0003	 1.88590963809524E-0001	
 3.08250000000000E+0003	 1.89523661224490E-0001	
 3.08450000000000E+0003	 1.90472858639456E-0001	
 3.08650000000000E+0003	 1.91378556054422E-0001	
 3.08850000000000E+0003	 1.92258753469388E-0001	
 3.09050000000000E+0003	 1.93160950884354E-0001	
 3.09250000000000E+0003	 1.94020648299320E-0001	
 3.09450000000000E+0003	 1.94840845714286E-0001	
 3.09650000000000E+0003	 1.95675043129252E-0001	
 3.09850000000000E+0003	 1.96549240544218E-0001	
 3.10050000000000E+0003	 1.97453437959184E-0001	
 3.10250000000000E+0003	 1.98373635374150E-0001	
 3.10450000000000E+0003	 1.99297332789116E-0001	
 3.10650000000000E+0003	 2.00251530204082E-0001	
 3.10850000000000E+0003	 2.01255727619048E-0001	
 3.11050000000000E+0003	 2.02249425034014E-0001	
 3.11250000000000E+0003	 2.03220122448980E-0001	
 3.11450000000000E+0003	 2.04292319863946E-0001	
 3.11650000000000E+0003	 2.05450017278912E-0001	
 3.11850000000000E+0003	 2.06627714693878E-0001	
 3.12050000000000E+0003	 2.07798412108844E-0001	
 3.12250000000000E+0003	 2.08937609523810E-0001	
 3.12450000000000E+0003	 2.10114306938776E-0001	
 3.12650000000000E+0003	 2.11388504353741E-0001	
 3.12850000000000E+0003	 2.12734201768707E-0001	
 3.13050000000000E+0003	 2.14108399183673E-0001	
 3.13250000000000E+0003	 2.15470096598639E-0001	
 3.13450000000000E+0003	 2.16887794013605E-0001	
 3.13650000000000E+0003	 2.18388491428571E-0001	
 3.13850000000000E+0003	 2.19955188843537E-0001	
 3.14050000000000E+0003	 2.21503386258503E-0001	
 3.14250000000000E+0003	 2.23020083673469E-0001	
 3.14450000000000E+0003	 2.24598781088435E-0001	
 3.14650000000000E+0003	 2.26239478503401E-0001	
 3.14850000000000E+0003	 2.27925175918367E-0001	
 3.15050000000000E+0003	 2.29721373333333E-0001	
 3.15250000000000E+0003	 2.31583070748299E-0001	
 3.15450000000000E+0003	 2.33336768163265E-0001	
 3.15650000000000E+0003	 2.35073965578231E-0001	
 3.15850000000000E+0003	 2.36906162993197E-0001	
 3.16050000000000E+0003	 2.38803360408163E-0001	
 3.16250000000000E+0003	 2.40729057823129E-0001	
 3.16450000000000E+0003	 2.42680255238095E-0001	
 3.16650000000000E+0003	 2.44657952653061E-0001	
 3.16850000000000E+0003	 2.46662150068027E-0001	
 3.17050000000000E+0003	 2.48678347482993E-0001	
 3.17250000000000E+0003	 2.50703544897959E-0001	
 3.17450000000000E+0003	 2.52732242312925E-0001	
 3.17650000000000E+0003	 2.54762439727891E-0001	
 3.17850000000000E+0003	 2.56814637142857E-0001	
 3.18050000000000E+0003	 2.58895834557823E-0001	
 3.18250000000000E+0003	 2.60963531972789E-0001	
 3.18450000000000E+0003	 2.63017729387755E-0001	
 3.18650000000000E+0003	 2.65085426802721E-0001	
 3.18850000000000E+0003	 2.67150624217687E-0001	
 3.19050000000000E+0003	 2.69187321632653E-0001	
 3.19250000000000E+0003	 2.71203519047619E-0001	
 3.19450000000000E+0003	 2.73200716462585E-0001	
 3.19650000000000E+0003	 2.75164413877551E-0001	
 3.19850000000000E+0003	 2.77132611292517E-0001	
 3.20050000000000E+0003	 2.79120308707483E-0001	
 3.20250000000000E+0003	 2.81100506122449E-0001	
 3.20450000000000E+0003	 2.83041703537415E-0001	
 3.20650000000000E+0003	 2.84950900952381E-0001	
 3.20850000000000E+0003	 2.86843098367347E-0001	
 3.21050000000000E+0003	 2.88741795782313E-0001	
 3.21250000000000E+0003	 2.90644993197279E-0001	
 3.21450000000000E+0003	 2.92554190612245E-0001	
 3.21650000000000E+0003	 2.94466388027211E-0001	
 3.21850000000000E+0003	 2.96383085442177E-0001	
 3.22050000000000E+0003	 2.98295282857143E-0001	
 3.22250000000000E+0003	 3.00213980272109E-0001	
 3.22450000000000E+0003	 3.02144177687075E-0001	
 3.22650000000000E+0003	 3.04080375102041E-0001	
 3.22850000000000E+0003	 3.06027572517007E-0001	
 3.23050000000000E+0003	 3.08040769931973E-0001	
 3.23250000000000E+0003	 3.10151467346939E-0001	
 3.23450000000000E+0003	 3.12205164761905E-0001	
 3.23650000000000E+0003	 3.14155362176871E-0001	
 3.23850000000000E+0003	 3.16162559591837E-0001	
 3.24050000000000E+0003	 3.18258757006803E-0001	
 3.24250000000000E+0003	 3.20392454421769E-0001	
 3.24450000000000E+0003	 3.22585151836735E-0001	
 3.24650000000000E+0003	 3.24866849251701E-0001	
 3.24850000000000E+0003	 3.27140546666667E-0001	
 3.25050000000000E+0003	 3.29367744081633E-0001	
 3.25250000000000E+0003	 3.31641941496599E-0001	
 3.25450000000000E+0003	 3.33991138911565E-0001	
 3.25650000000000E+0003	 3.36381836326531E-0001	
 3.25850000000000E+0003	 3.38749533741497E-0001	
 3.26050000000000E+0003	 3.41126231156463E-0001	
 3.26250000000000E+0003	 3.43510428571429E-0001	
 3.26450000000000E+0003	 3.45886125986395E-0001	
 3.26650000000000E+0003	 3.48237323401361E-0001	
 3.26850000000000E+0003	 3.50606520816327E-0001	
 3.27050000000000E+0003	 3.52955218231293E-0001	
 3.27250000000000E+0003	 3.55151915646259E-0001	
 3.27450000000000E+0003	 3.57233113061224E-0001	
 3.27650000000000E+0003	 3.59313810476190E-0001	
 3.27850000000000E+0003	 3.61331007891156E-0001	
 3.28050000000000E+0003	 3.63269205306122E-0001	
 3.28250000000000E+0003	 3.65132902721088E-0001	
 3.28450000000000E+0003	 3.66925100136054E-0001	
 3.28650000000000E+0003	 3.68604797551020E-0001	
 3.28850000000000E+0003	 3.70179994965986E-0001	
 3.29050000000000E+0003	 3.71703192380952E-0001	
 3.29250000000000E+0003	 3.73174389795918E-0001	
 3.29450000000000E+0003	 3.74526087210884E-0001	
 3.29650000000000E+0003	 3.75783784625850E-0001	
 3.29850000000000E+0003	 3.76955482040816E-0001	
 3.30050000000000E+0003	 3.78067179455782E-0001	
 3.30250000000000E+0003	 3.79179876870748E-0001	
 3.30450000000000E+0003	 3.80320074285714E-0001	
 3.30650000000000E+0003	 3.81349271700680E-0001	
 3.30850000000000E+0003	 3.82216469115646E-0001	
 3.31050000000000E+0003	 3.83024666530612E-0001	
 3.31250000000000E+0003	 3.83835863945578E-0001	
 3.31450000000000E+0003	 3.84672561360544E-0001	
 3.31650000000000E+0003	 3.85530258775510E-0001	
 3.31850000000000E+0003	 3.86382456190476E-0001	
 3.32050000000000E+0003	 3.87217653605442E-0001	
 3.32250000000000E+0003	 3.88059851020408E-0001	
 3.32450000000000E+0003	 3.88954548435374E-0001	
 3.32650000000000E+0003	 3.89862245850340E-0001	
 3.32850000000000E+0003	 3.90718443265306E-0001	
 3.33050000000000E+0003	 3.91574640680272E-0001	
 3.33250000000000E+0003	 3.92474338095238E-0001	
 3.33450000000000E+0003	 3.93422535510204E-0001	
 3.33650000000000E+0003	 3.94441732925170E-0001	
 3.33850000000000E+0003	 3.95475930340136E-0001	
 3.34050000000000E+0003	 3.96435627755102E-0001	
 3.34250000000000E+0003	 3.97391825170068E-0001	
 3.34450000000000E+0003	 3.98358522585034E-0001	
 3.34650000000000E+0003	 3.99311720000000E-0001	
 3.34850000000000E+0003	 4.00363417414966E-0001	
 3.35050000000000E+0003	 4.01464614829932E-0001	
 3.35250000000000E+0003	 4.02412312244898E-0001	
 3.35450000000000E+0003	 4.03275009659864E-0001	
 3.35650000000000E+0003	 4.04212707074830E-0001	
 3.35850000000000E+0003	 4.05214904489796E-0001	
 3.36050000000000E+0003	 4.06227101904762E-0001	
 3.36250000000000E+0003	 4.07181299319728E-0001	
 3.36450000000000E+0003	 4.08182996734694E-0001	
 3.36650000000000E+0003	 4.09321194149660E-0001	
 3.36850000000000E+0003	 4.10436391564626E-0001	
 3.37050000000000E+0003	 4.11270088979592E-0001	
 3.37250000000000E+0003	 4.11921786394558E-0001	
 3.37450000000000E+0003	 4.12675483809524E-0001	
 3.37650000000000E+0003	 4.13548181224490E-0001	
 3.37850000000000E+0003	 4.14380378639456E-0001	
 3.38050000000000E+0003	 4.15156576054422E-0001	
 3.38250000000000E+0003	 4.15893773469388E-0001	
 3.38450000000000E+0003	 4.16638970884354E-0001	
 3.38650000000000E+0003	 4.17382168299320E-0001	
 3.38850000000000E+0003	 4.18208865714286E-0001	
 3.39050000000000E+0003	 4.19155063129252E-0001	
 3.39250000000000E+0003	 4.19900260544218E-0001	
 3.39450000000000E+0003	 4.20309457959184E-0001	
 3.39650000000000E+0003	 4.20811655374150E-0001	
 3.39850000000000E+0003	 4.21640852789116E-0001	
 3.40050000000000E+0003	 4.22453550204082E-0001	
 3.40250000000000E+0003	 4.22755747619048E-0001	
 3.40450000000000E+0003	 4.22824445034014E-0001	
 3.40650000000000E+0003	 4.23117142448980E-0001	
 3.40850000000000E+0003	 4.23577339863946E-0001	
 3.41050000000000E+0003	 4.23950537278912E-0001	
 3.41250000000000E+0003	 4.24215234693878E-0001	
 3.41450000000000E+0003	 4.24327932108844E-0001	
 3.41650000000000E+0003	 4.24368129523810E-0001	
 3.41850000000000E+0003	 4.24447326938776E-0001	
 3.42050000000000E+0003	 4.24528024353741E-0001	
 3.42250000000000E+0003	 4.24514221768707E-0001	
 3.42450000000000E+0003	 4.24481419183673E-0001	
 3.42650000000000E+0003	 4.24494116598639E-0001	
 3.42850000000000E+0003	 4.24505814013605E-0001	
 3.43050000000000E+0003	 4.24373511428571E-0001	
 3.43250000000000E+0003	 4.24189208843537E-0001	
 3.43450000000000E+0003	 4.24070906258503E-0001	
 3.43650000000000E+0003	 4.23743103673469E-0001	
 3.43850000000000E+0003	 4.23046301088435E-0001	
 3.44050000000000E+0003	 4.22274998503401E-0001	
 3.44250000000000E+0003	 4.21607195918367E-0001	
 3.44450000000000E+0003	 4.20966893333333E-0001	
 3.44650000000000E+0003	 4.20334590748299E-0001	
 3.44850000000000E+0003	 4.19662788163265E-0001	
 3.45050000000000E+0003	 4.18925485578231E-0001	
 3.45250000000000E+0003	 4.18151682993197E-0001	
 3.45450000000000E+0003	 4.17292880408163E-0001	
 3.45650000000000E+0003	 4.16404077823129E-0001	
 3.45850000000000E+0003	 4.15541775238095E-0001	
 3.46050000000000E+0003	 4.14586472653061E-0001	
 3.46250000000000E+0003	 4.13465170068027E-0001	
 3.46450000000000E+0003	 4.12453367482993E-0001	
 3.46650000000000E+0003	 4.11668564897959E-0001	
 3.46850000000000E+0003	 4.10678762312925E-0001	
 3.47050000000000E+0003	 4.09162459727891E-0001	
 3.47250000000000E+0003	 4.07483157142857E-0001	
 3.47450000000000E+0003	 4.06006354557823E-0001	
 3.47650000000000E+0003	 4.04681051972789E-0001	
 3.47850000000000E+0003	 4.03393749387755E-0001	
 3.48050000000000E+0003	 4.01923946802721E-0001	
 3.48250000000000E+0003	 4.00257644217687E-0001	
 3.48450000000000E+0003	 3.98703841632653E-0001	
 3.48650000000000E+0003	 3.97216539047619E-0001	
 3.48850000000000E+0003	 3.95603736462585E-0001	
 3.49050000000000E+0003	 3.93957433877551E-0001	
 3.49250000000000E+0003	 3.92373631292517E-0001	
 3.49450000000000E+0003	 3.90770828707483E-0001	
 3.49650000000000E+0003	 3.89121526122449E-0001	
 3.49850000000000E+0003	 3.87380723537415E-0001	
 3.50050000000000E+0003	 3.85635420952381E-0001	
 3.50250000000000E+0003	 3.83870118367347E-0001	
 3.50450000000000E+0003	 3.81915315782313E-0001	
 3.50650000000000E+0003	 3.79928513197279E-0001	
 3.50850000000000E+0003	 3.78077210612245E-0001	
 3.51050000000000E+0003	 3.76301908027211E-0001	
 3.51250000000000E+0003	 3.74611605442177E-0001	
 3.51450000000000E+0003	 3.72804802857143E-0001	
 3.51650000000000E+0003	 3.70811000272109E-0001	
 3.51850000000000E+0003	 3.68776697687075E-0001	
 3.52050000000000E+0003	 3.66774395102041E-0001	
 3.52250000000000E+0003	 3.64816592517007E-0001	
 3.52450000000000E+0003	 3.62699789931973E-0001	
 3.52650000000000E+0003	 3.60466487346939E-0001	
 3.52850000000000E+0003	 3.58403184761905E-0001	
 3.53050000000000E+0003	 3.56422882176871E-0001	
 3.53250000000000E+0003	 3.54456079591837E-0001	
 3.53450000000000E+0003	 3.52525277006803E-0001	
 3.53650000000000E+0003	 3.50492974421769E-0001	
 3.53850000000000E+0003	 3.48202671836735E-0001	
 3.54050000000000E+0003	 3.45931369251701E-0001	
 3.54250000000000E+0003	 3.43744566666667E-0001	
 3.54450000000000E+0003	 3.41386764081633E-0001	
 3.54650000000000E+0003	 3.38786461496599E-0001	
 3.54850000000000E+0003	 3.36285158911565E-0001	
 3.55050000000000E+0003	 3.34012356326531E-0001	
 3.55250000000000E+0003	 3.31683053741497E-0001	
 3.55450000000000E+0003	 3.29238751156463E-0001	
 3.55650000000000E+0003	 3.26839448571429E-0001	
 3.55850000000000E+0003	 3.24423145986395E-0001	
 3.56050000000000E+0003	 3.21878843401361E-0001	
 3.56250000000000E+0003	 3.19102540816327E-0001	
 3.56450000000000E+0003	 3.16096238231293E-0001	
 3.56650000000000E+0003	 3.13086935646259E-0001	
 3.56850000000000E+0003	 3.10548633061224E-0001	
 3.57050000000000E+0003	 3.08378830476190E-0001	
 3.57250000000000E+0003	 3.05993527891156E-0001	
 3.57450000000000E+0003	 3.03375225306122E-0001	
 3.57650000000000E+0003	 3.00698922721088E-0001	
 3.57850000000000E+0003	 2.97984120136054E-0001	
 3.58050000000000E+0003	 2.95235817551020E-0001	
 3.58250000000000E+0003	 2.92465014965986E-0001	
 3.58450000000000E+0003	 2.89663212380952E-0001	
 3.58650000000000E+0003	 2.86655909795918E-0001	
 3.58850000000000E+0003	 2.83403607210884E-0001	
 3.59050000000000E+0003	 2.80464304625850E-0001	
 3.59250000000000E+0003	 2.77821502040816E-0001	
 3.59450000000000E+0003	 2.75044199455782E-0001	
 3.59650000000000E+0003	 2.72194896870748E-0001	
 3.59850000000000E+0003	 2.69405094285714E-0001	
 3.60050000000000E+0003	 2.66599291700680E-0001	
 3.60250000000000E+0003	 2.63760989115646E-0001	
 3.60450000000000E+0003	 2.60797686530612E-0001	
 3.60650000000000E+0003	 2.57639883945578E-0001	
 3.60850000000000E+0003	 2.54449081360544E-0001	
 3.61050000000000E+0003	 2.51492778775510E-0001	
 3.61250000000000E+0003	 2.48706976190476E-0001	
 3.61450000000000E+0003	 2.45873673605442E-0001	
 3.61650000000000E+0003	 2.43326371020408E-0001	
 3.61850000000000E+0003	 2.41123568435374E-0001	
 3.62050000000000E+0003	 2.38392765850340E-0001	
 3.62250000000000E+0003	 2.35129463265306E-0001	
 3.62450000000000E+0003	 2.32027160680272E-0001	
 3.62650000000000E+0003	 2.29231358095238E-0001	
 3.62850000000000E+0003	 2.26587055510204E-0001	
 3.63050000000000E+0003	 2.23724752925170E-0001	
 3.63250000000000E+0003	 2.21007950340136E-0001	
 3.63450000000000E+0003	 2.18520647755102E-0001	
 3.63650000000000E+0003	 2.16039845170068E-0001	
 3.63850000000000E+0003	 2.13560542585034E-0001	
 3.64050000000000E+0003	 2.10975240000000E-0001	
 3.64250000000000E+0003	 2.08229437414966E-0001	
 3.64450000000000E+0003	 2.05358134829932E-0001	
 3.64650000000000E+0003	 2.02473832244898E-0001	
 3.64850000000000E+0003	 1.99831529659864E-0001	
 3.65050000000000E+0003	 1.97599227074830E-0001	
 3.65250000000000E+0003	 1.95493924489796E-0001	
 3.65450000000000E+0003	 1.93543621904762E-0001	
 3.65650000000000E+0003	 1.91624819319728E-0001	
 3.65850000000000E+0003	 1.89626516734694E-0001	
 3.66050000000000E+0003	 1.87660714149660E-0001	
 3.66250000000000E+0003	 1.85552911564626E-0001	
 3.66450000000000E+0003	 1.83432608979592E-0001	
 3.66650000000000E+0003	 1.81456806394558E-0001	
 3.66850000000000E+0003	 1.79563003809524E-0001	
 3.67050000000000E+0003	 1.77614201224490E-0001	
 3.67250000000000E+0003	 1.75722398639456E-0001	
 3.67450000000000E+0003	 1.74049096054422E-0001	
 3.67650000000000E+0003	 1.72391293469388E-0001	
 3.67850000000000E+0003	 1.71112990884354E-0001	
 3.68050000000000E+0003	 1.70009688299320E-0001	
 3.68250000000000E+0003	 1.68830885714286E-0001	
 3.68450000000000E+0003	 1.67740083129252E-0001	
 3.68650000000000E+0003	 1.66640280544218E-0001	
 3.68850000000000E+0003	 1.65727477959184E-0001	
 3.69050000000000E+0003	 1.64755175374150E-0001	
 3.69250000000000E+0003	 1.63526872789116E-0001	
 3.69450000000000E+0003	 1.62609570204082E-0001	
 3.69650000000000E+0003	 1.61876767619048E-0001	
 3.69850000000000E+0003	 1.61114465034014E-0001	
 3.70050000000000E+0003	 1.60366162448980E-0001	
 3.70250000000000E+0003	 1.59542359863946E-0001	
 3.70450000000000E+0003	 1.58631057278912E-0001	
 3.70650000000000E+0003	 1.57753754693878E-0001	
 3.70850000000000E+0003	 1.56806952108844E-0001	
 3.71050000000000E+0003	 1.55938649523810E-0001	
 3.71250000000000E+0003	 1.55393846938776E-0001	
 3.71450000000000E+0003	 1.55160544353741E-0001	
 3.71650000000000E+0003	 1.54887241768707E-0001	
 3.71850000000000E+0003	 1.54366439183673E-0001	
 3.72050000000000E+0003	 1.53695636598639E-0001	
 3.72250000000000E+0003	 1.53035334013605E-0001	
 3.72450000000000E+0003	 1.52458531428571E-0001	
 3.72650000000000E+0003	 1.51979728843537E-0001	
 3.72850000000000E+0003	 1.51603426258503E-0001	
 3.73050000000000E+0003	 1.51156123673469E-0001	
 3.73250000000000E+0003	 1.50636821088435E-0001	
 3.73450000000000E+0003	 1.50046018503401E-0001	
 3.73650000000000E+0003	 1.49360215918367E-0001	
 3.73850000000000E+0003	 1.48937913333333E-0001	
 3.74050000000000E+0003	 1.48874610748299E-0001	
 3.74250000000000E+0003	 1.48658808163265E-0001	
 3.74450000000000E+0003	 1.48241505578231E-0001	
 3.74650000000000E+0003	 1.47818702993197E-0001	
 3.74850000000000E+0003	 1.47367900408163E-0001	
 3.75050000000000E+0003	 1.47036597823129E-0001	
 3.75250000000000E+0003	 1.46996795238095E-0001	
 3.75450000000000E+0003	 1.47154492653061E-0001	
 3.75650000000000E+0003	 1.47223690068027E-0001	
 3.75850000000000E+0003	 1.47077387482993E-0001	
 3.76050000000000E+0003	 1.46924084897959E-0001	
 3.76250000000000E+0003	 1.46779782312925E-0001	
 3.76450000000000E+0003	 1.46631479727891E-0001	
 3.76650000000000E+0003	 1.46392177142857E-0001	
 3.76850000000000E+0003	 1.46112374557823E-0001	
 3.77050000000000E+0003	 1.46017571972789E-0001	
 3.77250000000000E+0003	 1.46012769387755E-0001	
 3.77450000000000E+0003	 1.45932966802721E-0001	
 3.77650000000000E+0003	 1.45664664217687E-0001	
 3.77850000000000E+0003	 1.45388361632653E-0001	
 3.78050000000000E+0003	 1.45224559047619E-0001	
 3.78250000000000E+0003	 1.45048256462585E-0001	
 3.78450000000000E+0003	 1.44921453877551E-0001	
 3.78650000000000E+0003	 1.44819151292517E-0001	
 3.78850000000000E+0003	 1.44760848707483E-0001	
 3.79050000000000E+0003	 1.44638046122449E-0001	
 3.79250000000000E+0003	 1.44342243537415E-0001	
 3.79450000000000E+0003	 1.43915940952381E-0001	
 3.79650000000000E+0003	 1.43616138367347E-0001	
 3.79850000000000E+0003	 1.43447335782313E-0001	
 3.80050000000000E+0003	 1.43177033197279E-0001	
 3.80250000000000E+0003	 1.42892230612245E-0001	
 3.80450000000000E+0003	 1.42763428027211E-0001	
 3.80650000000000E+0003	 1.42854625442177E-0001	
 3.80850000000000E+0003	 1.42936322857143E-0001	
 3.81050000000000E+0003	 1.42924520272109E-0001	
 3.81250000000000E+0003	 1.42778717687075E-0001	
 3.81450000000000E+0003	 1.42406915102041E-0001	
 3.81650000000000E+0003	 1.42080612517007E-0001	
 3.81850000000000E+0003	 1.41964809931973E-0001	
 3.82050000000000E+0003	 1.42012507346939E-0001	
 3.82250000000000E+0003	 1.41888204761905E-0001	
 3.82450000000000E+0003	 1.41739902176871E-0001	
 3.82650000000000E+0003	 1.41716099591837E-0001	
 3.82850000000000E+0003	 1.41613297006803E-0001	
 3.83050000000000E+0003	 1.41558994421769E-0001	
 3.83250000000000E+0003	 1.41635191836735E-0001	
 3.83450000000000E+0003	 1.41728889251701E-0001	
 3.83650000000000E+0003	 1.41585586666667E-0001	
 3.83850000000000E+0003	 1.41187784081633E-0001	
 3.84050000000000E+0003	 1.40915481496599E-0001	
 3.84250000000000E+0003	 1.40838178911565E-0001	
 3.84450000000000E+0003	 1.40906376326531E-0001	
 3.84650000000000E+0003	 1.40840573741497E-0001	
 3.84850000000000E+0003	 1.40691271156463E-0001	
 3.85050000000000E+0003	 1.40590968571429E-0001	
 3.85250000000000E+0003	 1.41121665986395E-0001	
 3.85450000000000E+0003	 1.41789363401361E-0001	
 3.85650000000000E+0003	 1.41332060816327E-0001	
 3.85850000000000E+0003	 1.40600758231293E-0001	
 3.86050000000000E+0003	 1.40297455646259E-0001	
 3.86250000000000E+0003	 1.40436653061224E-0001	
 3.86450000000000E+0003	 1.40549350476190E-0001	
 3.86650000000000E+0003	 1.40400047891156E-0001	
 3.86850000000000E+0003	 1.40220245306122E-0001	
 3.87050000000000E+0003	 1.40228442721088E-0001	
 3.87250000000000E+0003	 1.40272140136054E-0001	
 3.87450000000000E+0003	 1.40332837551020E-0001	
 3.87650000000000E+0003	 1.40173534965986E-0001	
 3.87850000000000E+0003	 1.40094732380952E-0001	
 3.88050000000000E+0003	 1.40155929795918E-0001	
 3.88250000000000E+0003	 1.40033127210884E-0001	
 3.88450000000000E+0003	 1.39908824625850E-0001	
 3.88650000000000E+0003	 1.39904022040816E-0001	
 3.88850000000000E+0003	 1.40036219455782E-0001	
 3.89050000000000E+0003	 1.40461416870748E-0001	
 3.89250000000000E+0003	 1.40597114285714E-0001	
 3.89450000000000E+0003	 1.40251311700680E-0001	
 3.89650000000000E+0003	 1.40027009115646E-0001	
 3.89850000000000E+0003	 1.39926206530612E-0001	
 3.90050000000000E+0003	 1.39554903945578E-0001	
 3.90250000000000E+0003	 1.39540101360544E-0001	
 3.90450000000000E+0003	 1.40222298775510E-0001	
 3.90650000000000E+0003	 1.40461496190476E-0001	
 3.90850000000000E+0003	 1.40266693605442E-0001	
 3.91050000000000E+0003	 1.40202391020408E-0001	
 3.91250000000000E+0003	 1.40165588435374E-0001	
 3.91450000000000E+0003	 1.39999285850340E-0001	
 3.91650000000000E+0003	 1.39814983265306E-0001	
 3.91850000000000E+0003	 1.39789180680272E-0001	
 3.92050000000000E+0003	 1.39937878095238E-0001	
 3.92250000000000E+0003	 1.40085075510204E-0001	
 3.92450000000000E+0003	 1.40275272925170E-0001	
 3.92650000000000E+0003	 1.40288470340136E-0001	
 3.92850000000000E+0003	 1.40102167755102E-0001	
 3.93050000000000E+0003	 1.39917865170068E-0001	
 3.93250000000000E+0003	 1.39804062585034E-0001	
 3.93450000000000E+0003	 1.39896260000000E-0001	
 3.93650000000000E+0003	 1.40055957414966E-0001	
 3.93850000000000E+0003	 1.40121654829932E-0001	
 3.94050000000000E+0003	 1.40118352244898E-0001	
 3.94250000000000E+0003	 1.40169049659864E-0001	
 3.94450000000000E+0003	 1.40044747074830E-0001	
 3.94650000000000E+0003	 1.39842444489796E-0001	
 3.94850000000000E+0003	 1.39889141904762E-0001	
 3.95050000000000E+0003	 1.40075839319728E-0001	
 3.95250000000000E+0003	 1.40153536734694E-0001	
 3.95450000000000E+0003	 1.40139734149660E-0001	
 3.95650000000000E+0003	 1.40124431564626E-0001	
 3.95850000000000E+0003	 1.40092128979592E-0001	
 3.96050000000000E+0003	 1.40045326394558E-0001	
 3.96250000000000E+0003	 1.40046523809524E-0001	
 3.96450000000000E+0003	 1.40078221224490E-0001	
 3.96650000000000E+0003	 1.40103418639456E-0001	
 3.96850000000000E+0003	 1.40109116054422E-0001	
 3.97050000000000E+0003	 1.40113813469388E-0001	
 3.97250000000000E+0003	 1.40107510884354E-0001	
 3.97450000000000E+0003	 1.40087208299320E-0001	
 3.97650000000000E+0003	 1.40066905714286E-0001	
 3.97850000000000E+0003	 1.40078103129252E-0001	
 3.98050000000000E+0003	 1.40104300544218E-0001	
 3.98250000000000E+0003	 1.40131497959184E-0001	
 3.98450000000000E+0003	 1.40139695374150E-0001	
 3.98650000000000E+0003	 1.40127892789116E-0001	
 3.98850000000000E+0003	 1.40109590204082E-0001	
 3.99050000000000E+0003	 1.40114287619048E-0001	
 3.99250000000000E+0003	 1.40117485034014E-0001	
 3.99450000000000E+0003	 1.40137682448980E-0001	
 3.99650000000000E+0003	 1.40147379863946E-0001	
 3.99850000000000E+0003	 1.40144577278912E-0001	

>1	DATALINE
