*CPCWIN*

>1	DATALINE
DATALINE
1
Operator:

Description:

Remarks:





15.9.2008
10:45


_x	_y
	
	
UNIT	UNIT
 4.50500000000000E+0002	 1.41808632362922E-0001	
 4.52500000000000E+0002	 1.41207157159114E-0001	
 4.54500000000000E+0002	 1.44233181955307E-0001	
 4.56500000000000E+0002	 1.44612706751500E-0001	
 4.58500000000000E+0002	 1.45403731547693E-0001	
 4.60500000000000E+0002	 1.46728756343886E-0001	
 4.62500000000000E+0002	 1.47741781140079E-0001	
 4.64500000000000E+0002	 1.48483805936271E-0001	
 4.66500000000000E+0002	 1.49000830732464E-0001	
 4.68500000000000E+0002	 1.49569355528657E-0001	
 4.70500000000000E+0002	 1.49910380324850E-0001	
 4.72500000000000E+0002	 1.50554905121043E-0001	
 4.74500000000000E+0002	 1.51643429917236E-0001	
 4.76500000000000E+0002	 1.52646954713429E-0001	
 4.78500000000000E+0002	 1.53279979509621E-0001	
 4.80500000000000E+0002	 1.53877004305814E-0001	
 4.82500000000000E+0002	 1.54397029102007E-0001	
 4.84500000000000E+0002	 1.55013053898200E-0001	
 4.86500000000000E+0002	 1.55718078694393E-0001	
 4.88500000000000E+0002	 1.56500603490586E-0001	
 4.90500000000000E+0002	 1.57129128286778E-0001	
 4.92500000000000E+0002	 1.57894653082971E-0001	
 4.94500000000000E+0002	 1.58742677879164E-0001	
 4.96500000000000E+0002	 1.59559702675357E-0001	
 4.98500000000000E+0002	 1.60287727471550E-0001	
 5.00500000000000E+0002	 1.60836252267743E-0001	
 5.02500000000000E+0002	 1.61471777063935E-0001	
 5.04500000000000E+0002	 1.62541301860128E-0001	
 5.06500000000000E+0002	 1.63604326656321E-0001	
 5.08500000000000E+0002	 1.64783851452514E-0001	
 5.10500000000000E+0002	 1.65876876248707E-0001	
 5.12500000000000E+0002	 1.66883401044900E-0001	
 5.14500000000000E+0002	 1.67687425841092E-0001	
 5.16500000000000E+0002	 1.68365450637285E-0001	
 5.18500000000000E+0002	 1.69196475433478E-0001	
 5.20500000000000E+0002	 1.70145500229671E-0001	
 5.22500000000000E+0002	 1.70780025025864E-0001	
 5.24500000000000E+0002	 1.71153049822057E-0001	
 5.26500000000000E+0002	 1.71854074618250E-0001	
 5.28500000000000E+0002	 1.72761099414442E-0001	
 5.30500000000000E+0002	 1.73207124210635E-0001	
 5.32500000000000E+0002	 1.73547649006828E-0001	
 5.34500000000000E+0002	 1.73922673803021E-0001	
 5.36500000000000E+0002	 1.74223698599214E-0001	
 5.38500000000000E+0002	 1.74336723395407E-0001	
 5.40500000000000E+0002	 1.74328748191599E-0001	
 5.42500000000000E+0002	 1.74142772987792E-0001	
 5.44500000000000E+0002	 1.73908797783985E-0001	
 5.46500000000000E+0002	 1.73639822580178E-0001	
 5.48500000000000E+0002	 1.73420847376371E-0001	
 5.50500000000000E+0002	 1.73251872172564E-0001	
 5.52500000000000E+0002	 1.73199896968756E-0001	
 5.54500000000000E+0002	 1.73041421764949E-0001	
 5.56500000000000E+0002	 1.72851446561142E-0001	
 5.58500000000000E+0002	 1.72649971357335E-0001	
 5.60500000000000E+0002	 1.72461996153528E-0001	
 5.62500000000000E+0002	 1.72180520949721E-0001	
 5.64500000000000E+0002	 1.71889045745914E-0001	
 5.66500000000000E+0002	 1.71530570542106E-0001	
 5.68500000000000E+0002	 1.71236595338299E-0001	
 5.70500000000000E+0002	 1.70967620134492E-0001	
 5.72500000000000E+0002	 1.70730144930685E-0001	
 5.74500000000000E+0002	 1.70339169726878E-0001	
 5.76500000000000E+0002	 1.70099694523071E-0001	
 5.78500000000000E+0002	 1.70043719319263E-0001	
 5.80500000000000E+0002	 1.69921744115456E-0001	
 5.82500000000000E+0002	 1.69808268911649E-0001	
 5.84500000000000E+0002	 1.69696293707842E-0001	
 5.86500000000000E+0002	 1.69540818504035E-0001	
 5.88500000000000E+0002	 1.69377843300228E-0001	
 5.90500000000000E+0002	 1.69134368096420E-0001	
 5.92500000000000E+0002	 1.69069892892613E-0001	
 5.94500000000000E+0002	 1.69198917688806E-0001	
 5.96500000000000E+0002	 1.69314942484999E-0001	
 5.98500000000000E+0002	 1.69333967281192E-0001	
 6.00500000000000E+0002	 1.69316492077385E-0001	
 6.02500000000000E+0002	 1.69303016873577E-0001	
 6.04500000000000E+0002	 1.69224541669770E-0001	
 6.06500000000000E+0002	 1.69138066465963E-0001	
 6.08500000000000E+0002	 1.69040091262156E-0001	
 6.10500000000000E+0002	 1.68929616058349E-0001	
 6.12500000000000E+0002	 1.68858140854542E-0001	
 6.14500000000000E+0002	 1.68734165650735E-0001	
 6.16500000000000E+0002	 1.68483190446927E-0001	
 6.18500000000000E+0002	 1.68454215243120E-0001	
 6.20500000000000E+0002	 1.68544740039313E-0001	
 6.22500000000000E+0002	 1.68411264835506E-0001	
 6.24500000000000E+0002	 1.68092789631699E-0001	
 6.26500000000000E+0002	 1.67775314427892E-0001	
 6.28500000000000E+0002	 1.67452839224084E-0001	
 6.30500000000000E+0002	 1.66986364020277E-0001	
 6.32500000000000E+0002	 1.66415888816470E-0001	
 6.34500000000000E+0002	 1.65811413612663E-0001	
 6.36500000000000E+0002	 1.65320438408856E-0001	
 6.38500000000000E+0002	 1.64932963205049E-0001	
 6.40500000000000E+0002	 1.64608488001241E-0001	
 6.42500000000000E+0002	 1.64291012797434E-0001	
 6.44500000000000E+0002	 1.63964537593627E-0001	
 6.46500000000000E+0002	 1.63551562389820E-0001	
 6.48500000000000E+0002	 1.63078087186013E-0001	
 6.50500000000000E+0002	 1.62554111982206E-0001	
 6.52500000000000E+0002	 1.62046136778399E-0001	
 6.54500000000000E+0002	 1.61627661574591E-0001	
 6.56500000000000E+0002	 1.61191686370784E-0001	
 6.58500000000000E+0002	 1.60662211166977E-0001	
 6.60500000000000E+0002	 1.60210235963170E-0001	
 6.62500000000000E+0002	 1.59829260759363E-0001	
 6.64500000000000E+0002	 1.59744285555556E-0001	
 6.66500000000000E+0002	 1.60936310351748E-0001	
 6.68500000000000E+0002	 1.60947835147941E-0001	
 6.70500000000000E+0002	 1.58355359944134E-0001	
 6.72500000000000E+0002	 1.57468384740327E-0001	
 6.74500000000000E+0002	 1.57075409536520E-0001	
 6.76500000000000E+0002	 1.56608434332713E-0001	
 6.78500000000000E+0002	 1.56053959128905E-0001	
 6.80500000000000E+0002	 1.55451983925098E-0001	
 6.82500000000000E+0002	 1.54814008721291E-0001	
 6.84500000000000E+0002	 1.54191533517484E-0001	
 6.86500000000000E+0002	 1.53527058313677E-0001	
 6.88500000000000E+0002	 1.52830583109870E-0001	
 6.90500000000000E+0002	 1.52286607906062E-0001	
 6.92500000000000E+0002	 1.51903632702255E-0001	
 6.94500000000000E+0002	 1.51619657498448E-0001	
 6.96500000000000E+0002	 1.51502682294641E-0001	
 6.98500000000000E+0002	 1.51405707090834E-0001	
 7.00500000000000E+0002	 1.51160231887027E-0001	
 7.02500000000000E+0002	 1.50594756683220E-0001	
 7.04500000000000E+0002	 1.49815781479412E-0001	
 7.06500000000000E+0002	 1.48939806275605E-0001	
 7.08500000000000E+0002	 1.48085831071798E-0001	
 7.10500000000000E+0002	 1.47279855867991E-0001	
 7.12500000000000E+0002	 1.46524380664184E-0001	
 7.14500000000000E+0002	 1.45655405460377E-0001	
 7.16500000000000E+0002	 1.44728930256569E-0001	
 7.18500000000000E+0002	 1.43675955052762E-0001	
 7.20500000000000E+0002	 1.42722979848955E-0001	
 7.22500000000000E+0002	 1.41944004645148E-0001	
 7.24500000000000E+0002	 1.40868529441341E-0001	
 7.26500000000000E+0002	 1.39438054237534E-0001	
 7.28500000000000E+0002	 1.37916579033726E-0001	
 7.30500000000000E+0002	 1.36411603829919E-0001	
 7.32500000000000E+0002	 1.35063128626112E-0001	
 7.34500000000000E+0002	 1.33886153422305E-0001	
 7.36500000000000E+0002	 1.32889178218498E-0001	
 7.38500000000000E+0002	 1.32009703014691E-0001	
 7.40500000000000E+0002	 1.31222227810884E-0001	
 7.42500000000000E+0002	 1.30492252607076E-0001	
 7.44500000000000E+0002	 1.29825277403269E-0001	
 7.46500000000000E+0002	 1.29156302199462E-0001	
 7.48500000000000E+0002	 1.28459826995655E-0001	
 7.50500000000000E+0002	 1.27733851791848E-0001	
 7.52500000000000E+0002	 1.27044376588041E-0001	
 7.54500000000000E+0002	 1.26407401384233E-0001	
 7.56500000000000E+0002	 1.25863926180426E-0001	
 7.58500000000000E+0002	 1.25360450976619E-0001	
 7.60500000000000E+0002	 1.24944975772812E-0001	
 7.62500000000000E+0002	 1.24626500569005E-0001	
 7.64500000000000E+0002	 1.24303525365198E-0001	
 7.66500000000000E+0002	 1.23732050161390E-0001	
 7.68500000000000E+0002	 1.22923574957583E-0001	
 7.70500000000000E+0002	 1.22031099753776E-0001	
 7.72500000000000E+0002	 1.21369624549969E-0001	
 7.74500000000000E+0002	 1.21114149346162E-0001	
 7.76500000000000E+0002	 1.21525674142355E-0001	
 7.78500000000000E+0002	 1.22371698938547E-0001	
 7.80500000000000E+0002	 1.22856223734740E-0001	
 7.82500000000000E+0002	 1.22487248530933E-0001	
 7.84500000000000E+0002	 1.21719273327126E-0001	
 7.86500000000000E+0002	 1.20896798123319E-0001	
 7.88500000000000E+0002	 1.20120822919512E-0001	
 7.90500000000000E+0002	 1.19437847715705E-0001	
 7.92500000000000E+0002	 1.19138872511897E-0001	
 7.94500000000000E+0002	 1.19247897308090E-0001	
 7.96500000000000E+0002	 1.19405422104283E-0001	
 7.98500000000000E+0002	 1.19075446900476E-0001	
 8.00500000000000E+0002	 1.18315471696669E-0001	
 8.02500000000000E+0002	 1.17505496492862E-0001	
 8.04500000000000E+0002	 1.16977021289054E-0001	
 8.06500000000000E+0002	 1.16661546085247E-0001	
 8.08500000000000E+0002	 1.16468570881440E-0001	
 8.10500000000000E+0002	 1.16246095677633E-0001	
 8.12500000000000E+0002	 1.15931120473826E-0001	
 8.14500000000000E+0002	 1.15462645270019E-0001	
 8.16500000000000E+0002	 1.14960670066211E-0001	
 8.18500000000000E+0002	 1.14487694862404E-0001	
 8.20500000000000E+0002	 1.14170219658597E-0001	
 8.22500000000000E+0002	 1.13994744454790E-0001	
 8.24500000000000E+0002	 1.13949769250983E-0001	
 8.26500000000000E+0002	 1.13850294047176E-0001	
 8.28500000000000E+0002	 1.13640818843369E-0001	
 8.30500000000000E+0002	 1.13247843639561E-0001	
 8.32500000000000E+0002	 1.12750368435754E-0001	
 8.34500000000000E+0002	 1.12111893231947E-0001	
 8.36500000000000E+0002	 1.11402418028140E-0001	
 8.38500000000000E+0002	 1.10617942824333E-0001	
 8.40500000000000E+0002	 1.09879467620526E-0001	
 8.42500000000000E+0002	 1.09205992416718E-0001	
 8.44500000000000E+0002	 1.08694517212911E-0001	
 8.46500000000000E+0002	 1.08338042009104E-0001	
 8.48500000000000E+0002	 1.08201566805297E-0001	
 8.50500000000000E+0002	 1.08174591601490E-0001	
 8.52500000000000E+0002	 1.08284616397683E-0001	
 8.54500000000000E+0002	 1.08489641193875E-0001	
 8.56500000000000E+0002	 1.08746665990068E-0001	
 8.58500000000000E+0002	 1.08917690786261E-0001	
 8.60500000000000E+0002	 1.08963715582454E-0001	
 8.62500000000000E+0002	 1.08794740378647E-0001	
 8.64500000000000E+0002	 1.08440765174840E-0001	
 8.66500000000000E+0002	 1.07959789971032E-0001	
 8.68500000000000E+0002	 1.07648814767225E-0001	
 8.70500000000000E+0002	 1.07827339563418E-0001	
 8.72500000000000E+0002	 1.08095864359611E-0001	
 8.74500000000000E+0002	 1.07675889155804E-0001	
 8.76500000000000E+0002	 1.06950913951997E-0001	
 8.78500000000000E+0002	 1.06379438748190E-0001	
 8.80500000000000E+0002	 1.06011463544382E-0001	
 8.82500000000000E+0002	 1.05701488340575E-0001	
 8.84500000000000E+0002	 1.05389513136768E-0001	
 8.86500000000000E+0002	 1.04996537932961E-0001	
 8.88500000000000E+0002	 1.04572562729154E-0001	
 8.90500000000000E+0002	 1.04110087525347E-0001	
 8.92500000000000E+0002	 1.03702112321539E-0001	
 8.94500000000000E+0002	 1.03319637117732E-0001	
 8.96500000000000E+0002	 1.02995661913925E-0001	
 8.98500000000000E+0002	 1.02742186710118E-0001	
 9.00500000000000E+0002	 1.02675711506311E-0001	
 9.02500000000000E+0002	 1.02832736302504E-0001	
 9.04500000000000E+0002	 1.03347261098696E-0001	
 9.06500000000000E+0002	 1.04189785894889E-0001	
 9.08500000000000E+0002	 1.05336810691082E-0001	
 9.10500000000000E+0002	 1.06554835487275E-0001	
 9.12500000000000E+0002	 1.07625360283468E-0001	
 9.14500000000000E+0002	 1.08283885079661E-0001	
 9.16500000000000E+0002	 1.08491409875854E-0001	
 9.18500000000000E+0002	 1.08247934672046E-0001	
 9.20500000000000E+0002	 1.07704959468239E-0001	
 9.22500000000000E+0002	 1.07008984264432E-0001	
 9.24500000000000E+0002	 1.06354009060625E-0001	
 9.26500000000000E+0002	 1.05802033856818E-0001	
 9.28500000000000E+0002	 1.05436558653011E-0001	
 9.30500000000000E+0002	 1.05260083449203E-0001	
 9.32500000000000E+0002	 1.05288608245396E-0001	
 9.34500000000000E+0002	 1.05427133041589E-0001	
 9.36500000000000E+0002	 1.05628157837782E-0001	
 9.38500000000000E+0002	 1.05858182633975E-0001	
 9.40500000000000E+0002	 1.06153707430168E-0001	
 9.42500000000000E+0002	 1.06526732226360E-0001	
 9.44500000000000E+0002	 1.07059757022553E-0001	
 9.46500000000000E+0002	 1.07743281818746E-0001	
 9.48500000000000E+0002	 1.08631806614939E-0001	
 9.50500000000000E+0002	 1.09730831411132E-0001	
 9.52500000000000E+0002	 1.11098356207325E-0001	
 9.54500000000000E+0002	 1.12709381003517E-0001	
 9.56500000000000E+0002	 1.14555405799710E-0001	
 9.58500000000000E+0002	 1.16462430595903E-0001	
 9.60500000000000E+0002	 1.18297955392096E-0001	
 9.62500000000000E+0002	 1.19888480188289E-0001	
 9.64500000000000E+0002	 1.21211004984482E-0001	
 9.66500000000000E+0002	 1.22237029780675E-0001	
 9.68500000000000E+0002	 1.23042554576867E-0001	
 9.70500000000000E+0002	 1.23589579373060E-0001	
 9.72500000000000E+0002	 1.23979604169253E-0001	
 9.74500000000000E+0002	 1.24325128965446E-0001	
 9.76500000000000E+0002	 1.24892653761639E-0001	
 9.78500000000000E+0002	 1.25921678557832E-0001	
 9.80500000000000E+0002	 1.27635203354024E-0001	
 9.82500000000000E+0002	 1.29995728150217E-0001	
 9.84500000000000E+0002	 1.32817752946410E-0001	
 9.86500000000000E+0002	 1.35726277742603E-0001	
 9.88500000000000E+0002	 1.38423802538796E-0001	
 9.90500000000000E+0002	 1.40700827334989E-0001	
 9.92500000000000E+0002	 1.42608852131181E-0001	
 9.94500000000000E+0002	 1.44321876927374E-0001	
 9.96500000000000E+0002	 1.46089901723567E-0001	
 9.98500000000000E+0002	 1.48085926519760E-0001	
 1.00050000000000E+0003	 1.50506451315953E-0001	
 1.00250000000000E+0003	 1.53422976112146E-0001	
 1.00450000000000E+0003	 1.56830000908339E-0001	
 1.00650000000000E+0003	 1.60605525704531E-0001	
 1.00850000000000E+0003	 1.64651050500724E-0001	
 1.01050000000000E+0003	 1.68793075296917E-0001	
 1.01250000000000E+0003	 1.72944100093110E-0001	
 1.01450000000000E+0003	 1.77017624889303E-0001	
 1.01650000000000E+0003	 1.80995649685496E-0001	
 1.01850000000000E+0003	 1.84806674481688E-0001	
 1.02050000000000E+0003	 1.88419699277881E-0001	
 1.02250000000000E+0003	 1.91804724074074E-0001	
 1.02450000000000E+0003	 1.95051748870267E-0001	
 1.02650000000000E+0003	 1.98225773666460E-0001	
 1.02850000000000E+0003	 2.01383298462653E-0001	
 1.03050000000000E+0003	 2.04458323258845E-0001	
 1.03250000000000E+0003	 2.07398848055038E-0001	
 1.03450000000000E+0003	 2.10095872851231E-0001	
 1.03650000000000E+0003	 2.12432397647424E-0001	
 1.03850000000000E+0003	 2.14256422443617E-0001	
 1.04050000000000E+0003	 2.15597447239810E-0001	
 1.04250000000000E+0003	 2.16596972036002E-0001	
 1.04450000000000E+0003	 2.17545996832195E-0001	
 1.04650000000000E+0003	 2.18750021628388E-0001	
 1.04850000000000E+0003	 2.20416046424581E-0001	
 1.05050000000000E+0003	 2.22356571220774E-0001	
 1.05250000000000E+0003	 2.24190096016967E-0001	
 1.05450000000000E+0003	 2.25570620813160E-0001	
 1.05650000000000E+0003	 2.26494145609352E-0001	
 1.05850000000000E+0003	 2.27038170405545E-0001	
 1.06050000000000E+0003	 2.27353695201738E-0001	
 1.06250000000000E+0003	 2.27622219997931E-0001	
 1.06450000000000E+0003	 2.28102744794124E-0001	
 1.06650000000000E+0003	 2.28859769590317E-0001	
 1.06850000000000E+0003	 2.29847794386509E-0001	
 1.07050000000000E+0003	 2.30818819182702E-0001	
 1.07250000000000E+0003	 2.31640343978895E-0001	
 1.07450000000000E+0003	 2.32181368775088E-0001	
 1.07650000000000E+0003	 2.32415393571281E-0001	
 1.07850000000000E+0003	 2.32235918367474E-0001	
 1.08050000000000E+0003	 2.31641943163666E-0001	
 1.08250000000000E+0003	 2.30530967959859E-0001	
 1.08450000000000E+0003	 2.28905492756052E-0001	
 1.08650000000000E+0003	 2.26642517552245E-0001	
 1.08850000000000E+0003	 2.23717542348438E-0001	
 1.09050000000000E+0003	 2.20364567144631E-0001	
 1.09250000000000E+0003	 2.17105091940824E-0001	
 1.09450000000000E+0003	 2.14325616737016E-0001	
 1.09650000000000E+0003	 2.12194641533209E-0001	
 1.09850000000000E+0003	 2.10461166329402E-0001	
 1.10050000000000E+0003	 2.08852191125595E-0001	
 1.10250000000000E+0003	 2.07101215921788E-0001	
 1.10450000000000E+0003	 2.05160740717981E-0001	
 1.10650000000000E+0003	 2.03105265514173E-0001	
 1.10850000000000E+0003	 2.01203290310366E-0001	
 1.11050000000000E+0003	 1.99646315106559E-0001	
 1.11250000000000E+0003	 1.98509339902752E-0001	
 1.11450000000000E+0003	 1.97596864698945E-0001	
 1.11650000000000E+0003	 1.96679389495138E-0001	
 1.11850000000000E+0003	 1.95508414291330E-0001	
 1.12050000000000E+0003	 1.93951939087523E-0001	
 1.12250000000000E+0003	 1.91923963883716E-0001	
 1.12450000000000E+0003	 1.89480988679909E-0001	
 1.12650000000000E+0003	 1.86657513476102E-0001	
 1.12850000000000E+0003	 1.83565538272295E-0001	
 1.13050000000000E+0003	 1.80260063068487E-0001	
 1.13250000000000E+0003	 1.76924587864680E-0001	
 1.13450000000000E+0003	 1.73692112660873E-0001	
 1.13650000000000E+0003	 1.70706637457066E-0001	
 1.13850000000000E+0003	 1.68036162253259E-0001	
 1.14050000000000E+0003	 1.65829187049452E-0001	
 1.14250000000000E+0003	 1.64107711845645E-0001	
 1.14450000000000E+0003	 1.62858236641837E-0001	
 1.14650000000000E+0003	 1.61895261438030E-0001	
 1.14850000000000E+0003	 1.61041786234223E-0001	
 1.15050000000000E+0003	 1.60064811030416E-0001	
 1.15250000000000E+0003	 1.58865835826609E-0001	
 1.15450000000000E+0003	 1.57379360622802E-0001	
 1.15650000000000E+0003	 1.55747885418994E-0001	
 1.15850000000000E+0003	 1.54063410215187E-0001	
 1.16050000000000E+0003	 1.52429935011380E-0001	
 1.16250000000000E+0003	 1.50752459807573E-0001	
 1.16450000000000E+0003	 1.49023984603766E-0001	
 1.16650000000000E+0003	 1.47220009399959E-0001	
 1.16850000000000E+0003	 1.45426034196151E-0001	
 1.17050000000000E+0003	 1.43606558992344E-0001	
 1.17250000000000E+0003	 1.41738583788537E-0001	
 1.17450000000000E+0003	 1.39718608584730E-0001	
 1.17650000000000E+0003	 1.37692133380923E-0001	
 1.17850000000000E+0003	 1.35828658177116E-0001	
 1.18050000000000E+0003	 1.34355182973309E-0001	
 1.18250000000000E+0003	 1.33340207769501E-0001	
 1.18450000000000E+0003	 1.32899232565694E-0001	
 1.18650000000000E+0003	 1.33040757361887E-0001	
 1.18850000000000E+0003	 1.33816782158080E-0001	
 1.19050000000000E+0003	 1.35141806954273E-0001	
 1.19250000000000E+0003	 1.37024331750466E-0001	
 1.19450000000000E+0003	 1.39398856546658E-0001	
 1.19650000000000E+0003	 1.42238381342851E-0001	
 1.19850000000000E+0003	 1.45403406139044E-0001	
 1.20050000000000E+0003	 1.48790930935237E-0001	
 1.20250000000000E+0003	 1.52212955731430E-0001	
 1.20450000000000E+0003	 1.55556980527623E-0001	
 1.20650000000000E+0003	 1.58670505323815E-0001	
 1.20850000000000E+0003	 1.61580530120008E-0001	
 1.21050000000000E+0003	 1.64410054916201E-0001	
 1.21250000000000E+0003	 1.67447079712394E-0001	
 1.21450000000000E+0003	 1.70864604508587E-0001	
 1.21650000000000E+0003	 1.74254129304780E-0001	
 1.21850000000000E+0003	 1.76583154100972E-0001	
 1.22050000000000E+0003	 1.78020178897165E-0001	
 1.22250000000000E+0003	 1.79745203693358E-0001	
 1.22450000000000E+0003	 1.81942728489551E-0001	
 1.22650000000000E+0003	 1.84056753285744E-0001	
 1.22850000000000E+0003	 1.85885278081937E-0001	
 1.23050000000000E+0003	 1.87284802878130E-0001	
 1.23250000000000E+0003	 1.88241827674322E-0001	
 1.23450000000000E+0003	 1.88741352470515E-0001	
 1.23650000000000E+0003	 1.88862377266708E-0001	
 1.23850000000000E+0003	 1.88635902062901E-0001	
 1.24050000000000E+0003	 1.88144926859094E-0001	
 1.24250000000000E+0003	 1.87364951655287E-0001	
 1.24450000000000E+0003	 1.86338976451479E-0001	
 1.24650000000000E+0003	 1.85033001247672E-0001	
 1.24850000000000E+0003	 1.83469526043865E-0001	
 1.25050000000000E+0003	 1.81633050840058E-0001	
 1.25250000000000E+0003	 1.79598075636251E-0001	
 1.25450000000000E+0003	 1.77398100432444E-0001	
 1.25650000000000E+0003	 1.75138125228636E-0001	
 1.25850000000000E+0003	 1.72823150024829E-0001	
 1.26050000000000E+0003	 1.70550174821022E-0001	
 1.26250000000000E+0003	 1.68328699617215E-0001	
 1.26450000000000E+0003	 1.66165224413408E-0001	
 1.26650000000000E+0003	 1.64033249209601E-0001	
 1.26850000000000E+0003	 1.62023274005794E-0001	
 1.27050000000000E+0003	 1.60174298801986E-0001	
 1.27250000000000E+0003	 1.58590823598179E-0001	
 1.27450000000000E+0003	 1.57221348394372E-0001	
 1.27650000000000E+0003	 1.56073873190565E-0001	
 1.27850000000000E+0003	 1.55088397986758E-0001	
 1.28050000000000E+0003	 1.54261422782951E-0001	
 1.28250000000000E+0003	 1.53472947579143E-0001	
 1.28450000000000E+0003	 1.52696972375336E-0001	
 1.28650000000000E+0003	 1.51906997171529E-0001	
 1.28850000000000E+0003	 1.51246021967722E-0001	
 1.29050000000000E+0003	 1.50724046763915E-0001	
 1.29250000000000E+0003	 1.50313571560108E-0001	
 1.29450000000000E+0003	 1.49951096356300E-0001	
 1.29650000000000E+0003	 1.49740621152493E-0001	
 1.29850000000000E+0003	 1.49694145948686E-0001	
 1.30050000000000E+0003	 1.49807170744879E-0001	
 1.30250000000000E+0003	 1.49961695541072E-0001	
 1.30450000000000E+0003	 1.50133220337265E-0001	
 1.30650000000000E+0003	 1.50261745133457E-0001	
 1.30850000000000E+0003	 1.50428769929650E-0001	
 1.31050000000000E+0003	 1.50513794725843E-0001	
 1.31250000000000E+0003	 1.50508819522036E-0001	
 1.31450000000000E+0003	 1.50377344318229E-0001	
 1.31650000000000E+0003	 1.50064869114422E-0001	
 1.31850000000000E+0003	 1.49537893910615E-0001	
 1.32050000000000E+0003	 1.49034918706807E-0001	
 1.32250000000000E+0003	 1.48533443503000E-0001	
 1.32450000000000E+0003	 1.48087968299193E-0001	
 1.32650000000000E+0003	 1.47704993095386E-0001	
 1.32850000000000E+0003	 1.47504017891579E-0001	
 1.33050000000000E+0003	 1.47408542687772E-0001	
 1.33250000000000E+0003	 1.47434567483964E-0001	
 1.33450000000000E+0003	 1.47392092280157E-0001	
 1.33650000000000E+0003	 1.47211617076350E-0001	
 1.33850000000000E+0003	 1.46878141872543E-0001	
 1.34050000000000E+0003	 1.46843666668736E-0001	
 1.34250000000000E+0003	 1.46983191464929E-0001	
 1.34450000000000E+0003	 1.46981216261121E-0001	
 1.34650000000000E+0003	 1.46793741057314E-0001	
 1.34850000000000E+0003	 1.46700265853507E-0001	
 1.35050000000000E+0003	 1.46737790649700E-0001	
 1.35250000000000E+0003	 1.46910315445893E-0001	
 1.35450000000000E+0003	 1.47094840242086E-0001	
 1.35650000000000E+0003	 1.47370365038279E-0001	
 1.35850000000000E+0003	 1.47823889834471E-0001	
 1.36050000000000E+0003	 1.48655414630664E-0001	
 1.36250000000000E+0003	 1.49971939426857E-0001	
 1.36450000000000E+0003	 1.52091964223050E-0001	
 1.36650000000000E+0003	 1.54323489019243E-0001	
 1.36850000000000E+0003	 1.56483013815436E-0001	
 1.37050000000000E+0003	 1.58338538611628E-0001	
 1.37250000000000E+0003	 1.59936563407821E-0001	
 1.37450000000000E+0003	 1.61396088204014E-0001	
 1.37650000000000E+0003	 1.62763113000207E-0001	
 1.37850000000000E+0003	 1.64022637796400E-0001	
 1.38050000000000E+0003	 1.65121662592593E-0001	
 1.38250000000000E+0003	 1.66085187388785E-0001	
 1.38450000000000E+0003	 1.66684712184978E-0001	
 1.38650000000000E+0003	 1.66970736981171E-0001	
 1.38850000000000E+0003	 1.67004261777364E-0001	
 1.39050000000000E+0003	 1.66853286573557E-0001	
 1.39250000000000E+0003	 1.67205811369750E-0001	
 1.39450000000000E+0003	 1.67619836165942E-0001	
 1.39650000000000E+0003	 1.67543860962135E-0001	
 1.39850000000000E+0003	 1.68051885758328E-0001	
 1.40050000000000E+0003	 1.68694410554521E-0001	
 1.40250000000000E+0003	 1.68818435350714E-0001	
 1.40450000000000E+0003	 1.68737960146907E-0001	
 1.40650000000000E+0003	 1.68374484943100E-0001	
 1.40850000000000E+0003	 1.67749009739292E-0001	
 1.41050000000000E+0003	 1.67042534535485E-0001	
 1.41250000000000E+0003	 1.66212059331678E-0001	
 1.41450000000000E+0003	 1.65252084127871E-0001	
 1.41650000000000E+0003	 1.63887108924064E-0001	
 1.41850000000000E+0003	 1.62995133720257E-0001	
 1.42050000000000E+0003	 1.61521158516449E-0001	
 1.42250000000000E+0003	 1.60038683312642E-0001	
 1.42450000000000E+0003	 1.59086208108835E-0001	
 1.42650000000000E+0003	 1.58050732905028E-0001	
 1.42850000000000E+0003	 1.57177257701221E-0001	
 1.43050000000000E+0003	 1.56752782497414E-0001	
 1.43250000000000E+0003	 1.56725307293606E-0001	
 1.43450000000000E+0003	 1.57511332089799E-0001	
 1.43650000000000E+0003	 1.59066356885992E-0001	
 1.43850000000000E+0003	 1.60431881682185E-0001	
 1.44050000000000E+0003	 1.61879406478378E-0001	
 1.44250000000000E+0003	 1.63590431274571E-0001	
 1.44450000000000E+0003	 1.64677956070764E-0001	
 1.44650000000000E+0003	 1.65807480866956E-0001	
 1.44850000000000E+0003	 1.66705505663149E-0001	
 1.45050000000000E+0003	 1.67391530459342E-0001	
 1.45250000000000E+0003	 1.67709055255535E-0001	
 1.45450000000000E+0003	 1.67324580051728E-0001	
 1.45650000000000E+0003	 1.66221604847921E-0001	
 1.45850000000000E+0003	 1.63974129644113E-0001	
 1.46050000000000E+0003	 1.62096154440306E-0001	
 1.46250000000000E+0003	 1.61041679236499E-0001	
 1.46450000000000E+0003	 1.59529204032692E-0001	
 1.46650000000000E+0003	 1.57722228828885E-0001	
 1.46850000000000E+0003	 1.55778753625078E-0001	
 1.47050000000000E+0003	 1.53431278421270E-0001	
 1.47250000000000E+0003	 1.49853303217463E-0001	
 1.47450000000000E+0003	 1.46308328013656E-0001	
 1.47650000000000E+0003	 1.44527352809849E-0001	
 1.47850000000000E+0003	 1.43698877606042E-0001	
 1.48050000000000E+0003	 1.43421902402235E-0001	
 1.48250000000000E+0003	 1.43813927198427E-0001	
 1.48450000000000E+0003	 1.44510951994620E-0001	
 1.48650000000000E+0003	 1.45647476790813E-0001	
 1.48850000000000E+0003	 1.47076501587006E-0001	
 1.49050000000000E+0003	 1.49828526383199E-0001	
 1.49250000000000E+0003	 1.53245551179392E-0001	
 1.49450000000000E+0003	 1.57171575975585E-0001	
 1.49650000000000E+0003	 1.61318600771777E-0001	
 1.49850000000000E+0003	 1.65660625567970E-0001	
 1.50050000000000E+0003	 1.69852150364163E-0001	
 1.50250000000000E+0003	 1.74063675160356E-0001	
 1.50450000000000E+0003	 1.77804699956549E-0001	
 1.50650000000000E+0003	 1.83010724752742E-0001	
 1.50850000000000E+0003	 1.89706749548934E-0001	
 1.51050000000000E+0003	 1.97633774345127E-0001	
 1.51250000000000E+0003	 2.05470299141320E-0001	
 1.51450000000000E+0003	 2.11831823937513E-0001	
 1.51650000000000E+0003	 2.17416348733706E-0001	
 1.51850000000000E+0003	 2.21877873529899E-0001	
 1.52050000000000E+0003	 2.25882898326091E-0001	
 1.52250000000000E+0003	 2.30179923122284E-0001	
 1.52450000000000E+0003	 2.34368947918477E-0001	
 1.52650000000000E+0003	 2.39781472714670E-0001	
 1.52850000000000E+0003	 2.44577497510863E-0001	
 1.53050000000000E+0003	 2.48568522307056E-0001	
 1.53250000000000E+0003	 2.52504047103249E-0001	
 1.53450000000000E+0003	 2.56335571899441E-0001	
 1.53650000000000E+0003	 2.58400096695634E-0001	
 1.53850000000000E+0003	 2.60325621491827E-0001	
 1.54050000000000E+0003	 2.62716646288020E-0001	
 1.54250000000000E+0003	 2.63910671084213E-0001	
 1.54450000000000E+0003	 2.65159695880406E-0001	
 1.54650000000000E+0003	 2.65117220676598E-0001	
 1.54850000000000E+0003	 2.63639745472791E-0001	
 1.55050000000000E+0003	 2.60670270268984E-0001	
 1.55250000000000E+0003	 2.56468795065177E-0001	
 1.55450000000000E+0003	 2.51088819861370E-0001	
 1.55650000000000E+0003	 2.44477844657563E-0001	
 1.55850000000000E+0003	 2.37504869453755E-0001	
 1.56050000000000E+0003	 2.29989394249948E-0001	
 1.56250000000000E+0003	 2.25045419046141E-0001	
 1.56450000000000E+0003	 2.21576443842334E-0001	
 1.56650000000000E+0003	 2.16501968638527E-0001	
 1.56850000000000E+0003	 2.12119493434720E-0001	
 1.57050000000000E+0003	 2.07539518230912E-0001	
 1.57250000000000E+0003	 2.03285043027105E-0001	
 1.57450000000000E+0003	 1.99836067823298E-0001	
 1.57650000000000E+0003	 1.95931592619491E-0001	
 1.57850000000000E+0003	 1.91972617415684E-0001	
 1.58050000000000E+0003	 1.90143142211877E-0001	
 1.58250000000000E+0003	 1.87987667008070E-0001	
 1.58450000000000E+0003	 1.86367691804262E-0001	
 1.58650000000000E+0003	 1.85316216600455E-0001	
 1.58850000000000E+0003	 1.85323241396648E-0001	
 1.59050000000000E+0003	 1.86011766192841E-0001	
 1.59250000000000E+0003	 1.87740790989034E-0001	
 1.59450000000000E+0003	 1.89964815785227E-0001	
 1.59650000000000E+0003	 1.92952340581419E-0001	
 1.59850000000000E+0003	 1.96120365377612E-0001	
 1.60050000000000E+0003	 1.99915390173805E-0001	
 1.60250000000000E+0003	 2.04068414969998E-0001	
 1.60450000000000E+0003	 2.09037939766191E-0001	
 1.60650000000000E+0003	 2.14409964562384E-0001	
 1.60850000000000E+0003	 2.20929989358576E-0001	
 1.61050000000000E+0003	 2.28290514154769E-0001	
 1.61250000000000E+0003	 2.36427038950962E-0001	
 1.61450000000000E+0003	 2.44226063747155E-0001	
 1.61650000000000E+0003	 2.54197088543348E-0001	
 1.61850000000000E+0003	 2.64620113339541E-0001	
 1.62050000000000E+0003	 2.74464138135733E-0001	
 1.62250000000000E+0003	 2.85346662931926E-0001	
 1.62450000000000E+0003	 2.96738687728119E-0001	
 1.62650000000000E+0003	 3.06760212524312E-0001	
 1.62850000000000E+0003	 3.17032237320505E-0001	
 1.63050000000000E+0003	 3.26239262116698E-0001	
 1.63250000000000E+0003	 3.33644286912891E-0001	
 1.63450000000000E+0003	 3.40447811709083E-0001	
 1.63650000000000E+0003	 3.47732836505276E-0001	
 1.63850000000000E+0003	 3.53400861301469E-0001	
 1.64050000000000E+0003	 3.58573886097662E-0001	
 1.64250000000000E+0003	 3.62428910893855E-0001	
 1.64450000000000E+0003	 3.65181935690048E-0001	
 1.64650000000000E+0003	 3.68448460486240E-0001	
 1.64850000000000E+0003	 3.71318985282433E-0001	
 1.65050000000000E+0003	 3.73113010078626E-0001	
 1.65250000000000E+0003	 3.75896034874819E-0001	
 1.65450000000000E+0003	 3.77656059671012E-0001	
 1.65650000000000E+0003	 3.77705584467205E-0001	
 1.65850000000000E+0003	 3.77420609263397E-0001	
 1.66050000000000E+0003	 3.74832634059590E-0001	
 1.66250000000000E+0003	 3.70995658855783E-0001	
 1.66450000000000E+0003	 3.65687683651976E-0001	
 1.66650000000000E+0003	 3.60290708448169E-0001	
 1.66850000000000E+0003	 3.54959733244362E-0001	
 1.67050000000000E+0003	 3.48651258040555E-0001	
 1.67250000000000E+0003	 3.42731782836747E-0001	
 1.67450000000000E+0003	 3.38102307632940E-0001	
 1.67650000000000E+0003	 3.32168332429133E-0001	
 1.67850000000000E+0003	 3.26361357225326E-0001	
 1.68050000000000E+0003	 3.21031882021519E-0001	
 1.68250000000000E+0003	 3.15285906817712E-0001	
 1.68450000000000E+0003	 3.08873431613904E-0001	
 1.68650000000000E+0003	 3.01325456410097E-0001	
 1.68850000000000E+0003	 2.96642981206290E-0001	
 1.69050000000000E+0003	 2.91411506002483E-0001	
 1.69250000000000E+0003	 2.84797530798676E-0001	
 1.69450000000000E+0003	 2.78219055594869E-0001	
 1.69650000000000E+0003	 2.69119080391061E-0001	
 1.69850000000000E+0003	 2.61232105187254E-0001	
 1.70050000000000E+0003	 2.54440629983447E-0001	
 1.70250000000000E+0003	 2.46511154779640E-0001	
 1.70450000000000E+0003	 2.41976179575833E-0001	
 1.70650000000000E+0003	 2.36763704372026E-0001	
 1.70850000000000E+0003	 2.31294729168218E-0001	
 1.71050000000000E+0003	 2.26862753964411E-0001	
 1.71250000000000E+0003	 2.22140278760604E-0001	
 1.71450000000000E+0003	 2.17402803556797E-0001	
 1.71650000000000E+0003	 2.12414328352990E-0001	
 1.71850000000000E+0003	 2.07454853149183E-0001	
 1.72050000000000E+0003	 2.02928877945376E-0001	
 1.72250000000000E+0003	 1.99637902741568E-0001	
 1.72450000000000E+0003	 1.95822927537761E-0001	
 1.72650000000000E+0003	 1.91692452333954E-0001	
 1.72850000000000E+0003	 1.87616977130147E-0001	
 1.73050000000000E+0003	 1.83396501926340E-0001	
 1.73250000000000E+0003	 1.80082526722533E-0001	
 1.73450000000000E+0003	 1.77924051518725E-0001	
 1.73650000000000E+0003	 1.75175576314918E-0001	
 1.73850000000000E+0003	 1.74287601111111E-0001	
 1.74050000000000E+0003	 1.72511125907304E-0001	
 1.74250000000000E+0003	 1.69803650703497E-0001	
 1.74450000000000E+0003	 1.67393675499690E-0001	
 1.74650000000000E+0003	 1.64654700295882E-0001	
 1.74850000000000E+0003	 1.61650725092075E-0001	
 1.75050000000000E+0003	 1.58611749888268E-0001	
 1.75250000000000E+0003	 1.55421274684461E-0001	
 1.75450000000000E+0003	 1.52734299480654E-0001	
 1.75650000000000E+0003	 1.50197824276847E-0001	
 1.75850000000000E+0003	 1.46740349073040E-0001	
 1.76050000000000E+0003	 1.43878873869232E-0001	
 1.76250000000000E+0003	 1.41157898665425E-0001	
 1.76450000000000E+0003	 1.37678423461618E-0001	
 1.76650000000000E+0003	 1.35334448257811E-0001	
 1.76850000000000E+0003	 1.32735473054004E-0001	
 1.77050000000000E+0003	 1.30296997850197E-0001	
 1.77250000000000E+0003	 1.28484022646389E-0001	
 1.77450000000000E+0003	 1.26227047442582E-0001	
 1.77650000000000E+0003	 1.24982572238775E-0001	
 1.77850000000000E+0003	 1.23931597034968E-0001	
 1.78050000000000E+0003	 1.22697621831161E-0001	
 1.78250000000000E+0003	 1.21503646627354E-0001	
 1.78450000000000E+0003	 1.20527171423546E-0001	
 1.78650000000000E+0003	 1.19419196219739E-0001	
 1.78850000000000E+0003	 1.18045221015932E-0001	
 1.79050000000000E+0003	 1.17111745812125E-0001	
 1.79250000000000E+0003	 1.16080270608318E-0001	
 1.79450000000000E+0003	 1.14666295404511E-0001	
 1.79650000000000E+0003	 1.13905820200703E-0001	
 1.79850000000000E+0003	 1.13412344996896E-0001	
 1.80050000000000E+0003	 1.12673369793089E-0001	
 1.80250000000000E+0003	 1.12068894589282E-0001	
 1.80450000000000E+0003	 1.11358919385475E-0001	
 1.80650000000000E+0003	 1.10721944181668E-0001	
 1.80850000000000E+0003	 1.09914968977861E-0001	
 1.81050000000000E+0003	 1.09261993774053E-0001	
 1.81250000000000E+0003	 1.08607518570246E-0001	
 1.81450000000000E+0003	 1.08170543366439E-0001	
 1.81650000000000E+0003	 1.07664568162632E-0001	
 1.81850000000000E+0003	 1.07143092958825E-0001	
 1.82050000000000E+0003	 1.06492117755018E-0001	
 1.82250000000000E+0003	 1.05841642551210E-0001	
 1.82450000000000E+0003	 1.05359667347403E-0001	
 1.82650000000000E+0003	 1.04581192143596E-0001	
 1.82850000000000E+0003	 1.04063716939789E-0001	
 1.83050000000000E+0003	 1.03938741735982E-0001	
 1.83250000000000E+0003	 1.03169766532175E-0001	
 1.83450000000000E+0003	 1.02964291328367E-0001	
 1.83650000000000E+0003	 1.02709816124560E-0001	
 1.83850000000000E+0003	 1.02284840920753E-0001	
 1.84050000000000E+0003	 1.01621365716946E-0001	
 1.84250000000000E+0003	 1.01165890513139E-0001	
 1.84450000000000E+0003	 1.00793915309332E-0001	
 1.84650000000000E+0003	 9.99659401055245E-0002	
 1.84850000000000E+0003	 1.00097464901717E-0001	
 1.85050000000000E+0003	 1.00190989697910E-0001	
 1.85250000000000E+0003	 1.00013014494103E-0001	
 1.85450000000000E+0003	 9.97635392902959E-0002	
 1.85650000000000E+0003	 9.94455640864887E-0002	
 1.85850000000000E+0003	 9.91330888826816E-0002	
 1.86050000000000E+0003	 9.88171136788744E-0002	
 1.86250000000000E+0003	 9.85156384750672E-0002	
 1.86450000000000E+0003	 9.80896632712601E-0002	
 1.86650000000000E+0003	 9.76116880674529E-0002	
 1.86850000000000E+0003	 9.74462128636458E-0002	
 1.87050000000000E+0003	 9.71347376598386E-0002	
 1.87250000000000E+0003	 9.69877624560315E-0002	
 1.87450000000000E+0003	 9.71837872522243E-0002	
 1.87650000000000E+0003	 9.70843120484171E-0002	
 1.87850000000000E+0003	 9.69013368446100E-0002	
 1.88050000000000E+0003	 9.67108616408028E-0002	
 1.88250000000000E+0003	 9.65088864369957E-0002	
 1.88450000000000E+0003	 9.63249112331885E-0002	
 1.88650000000000E+0003	 9.60369360293813E-0002	
 1.88850000000000E+0003	 9.59419608255742E-0002	
 1.89050000000000E+0003	 9.57739856217670E-0002	
 1.89250000000000E+0003	 9.54295104179599E-0002	
 1.89450000000000E+0003	 9.54115352141527E-0002	
 1.89650000000000E+0003	 9.53330600103455E-0002	
 1.89850000000000E+0003	 9.52065848065384E-0002	
 1.90050000000000E+0003	 9.51361096027312E-0002	
 1.90250000000000E+0003	 9.49916343989241E-0002	
 1.90450000000000E+0003	 9.48456591951169E-0002	
 1.90650000000000E+0003	 9.46286839913097E-0002	
 1.90850000000000E+0003	 9.44802087875026E-0002	
 1.91050000000000E+0003	 9.43492335836954E-0002	
 1.91250000000000E+0003	 9.42502583798883E-0002	
 1.91450000000000E+0003	 9.40497831760811E-0002	
 1.91650000000000E+0003	 9.39558079722739E-0002	
 1.91850000000000E+0003	 9.38443327684668E-0002	
 1.92050000000000E+0003	 9.34413575646596E-0002	
 1.92250000000000E+0003	 9.35563823608525E-0002	
 1.92450000000000E+0003	 9.36319071570453E-0002	
 1.92650000000000E+0003	 9.35774319532382E-0002	
 1.92850000000000E+0003	 9.36274567494310E-0002	
 1.93050000000000E+0003	 9.35554815456238E-0002	
 1.93250000000000E+0003	 9.34980063418167E-0002	
 1.93450000000000E+0003	 9.34185311380095E-0002	
 1.93650000000000E+0003	 9.33575559342024E-0002	
 1.93850000000000E+0003	 9.32065807303952E-0002	
 1.94050000000000E+0003	 9.30171055265880E-0002	
 1.94250000000000E+0003	 9.29861303227809E-0002	
 1.94450000000000E+0003	 9.28786551189737E-0002	
 1.94650000000000E+0003	 9.29121799151666E-0002	
 1.94850000000000E+0003	 9.30227047113594E-0002	
 1.95050000000000E+0003	 9.30252295075522E-0002	
 1.95250000000000E+0003	 9.30057543037451E-0002	
 1.95450000000000E+0003	 9.29572790999379E-0002	
 1.95650000000000E+0003	 9.29308038961308E-0002	
 1.95850000000000E+0003	 9.29093286923236E-0002	
 1.96050000000000E+0003	 9.28903534885164E-0002	
 1.96250000000000E+0003	 9.28298782847093E-0002	
 1.96450000000000E+0003	 9.27124030809021E-0002	
 1.96650000000000E+0003	 9.26769278770950E-0002	
 1.96850000000000E+0003	 9.26654526732878E-0002	
 1.97050000000000E+0003	 9.26604774694807E-0002	
 1.97250000000000E+0003	 9.27140022656735E-0002	
 1.97450000000000E+0003	 9.27075270618663E-0002	
 1.97650000000000E+0003	 9.26895518580592E-0002	
 1.97850000000000E+0003	 9.26680766542520E-0002	
 1.98050000000000E+0003	 9.26436014504449E-0002	
 1.98250000000000E+0003	 9.26271262466377E-0002	
 1.98450000000000E+0003	 9.25756510428305E-0002	
 1.98650000000000E+0003	 9.25176758390234E-0002	
 1.98850000000000E+0003	 9.24147006352162E-0002	
 1.99050000000000E+0003	 9.23577254314091E-0002	
 1.99250000000000E+0003	 9.23877502276019E-0002	
 1.99450000000000E+0003	 9.23627750237947E-0002	
 1.99650000000000E+0003	 9.24307998199876E-0002	
 1.99850000000000E+0003	 9.24948246161804E-0002	
 2.00050000000000E+0003	 9.24878494123733E-0002	
 2.00250000000000E+0003	 9.24918742085661E-0002	
 2.00450000000000E+0003	 9.24823990047589E-0002	
 2.00650000000000E+0003	 9.24859238009518E-0002	
 2.00850000000000E+0003	 9.24869485971446E-0002	
 2.01050000000000E+0003	 9.25014733933375E-0002	
 2.01250000000000E+0003	 9.24919981895303E-0002	
 2.01450000000000E+0003	 9.24515229857232E-0002	
 2.01650000000000E+0003	 9.24455477819160E-0002	
 2.01850000000000E+0003	 9.24680725781088E-0002	
 2.02050000000000E+0003	 9.25075973743017E-0002	
 2.02250000000000E+0003	 9.25921221704945E-0002	
 2.02450000000000E+0003	 9.26336469666874E-0002	
 2.02650000000000E+0003	 9.26766717628802E-0002	
 2.02850000000000E+0003	 9.27091965590730E-0002	
 2.03050000000000E+0003	 9.27422213552659E-0002	
 2.03250000000000E+0003	 9.27632461514587E-0002	
 2.03450000000000E+0003	 9.27812709476516E-0002	
 2.03650000000000E+0003	 9.27907957438444E-0002	
 2.03850000000000E+0003	 9.27813205400372E-0002	
 2.04050000000000E+0003	 9.27778453362301E-0002	
 2.04250000000000E+0003	 9.28013701324229E-0002	
 2.04450000000000E+0003	 9.28258949286158E-0002	
 2.04650000000000E+0003	 9.28644197248086E-0002	
 2.04850000000000E+0003	 9.28849445210014E-0002	
 2.05050000000000E+0003	 9.29024693171943E-0002	
 2.05250000000000E+0003	 9.29109941133871E-0002	
 2.05450000000000E+0003	 9.29205189095800E-0002	
 2.05650000000000E+0003	 9.29205437057728E-0002	
 2.05850000000000E+0003	 9.29175685019657E-0002	
 2.06050000000000E+0003	 9.29120932981585E-0002	
 2.06250000000000E+0003	 9.28816180943513E-0002	
 2.06450000000000E+0003	 9.28811428905442E-0002	
 2.06650000000000E+0003	 9.28916676867370E-0002	
 2.06850000000000E+0003	 9.29041924829299E-0002	
 2.07050000000000E+0003	 9.29307172791227E-0002	
 2.07250000000000E+0003	 9.29367420753155E-0002	
 2.07450000000000E+0003	 9.29362668715084E-0002	
 2.07650000000000E+0003	 9.29272916677012E-0002	
 2.07850000000000E+0003	 9.29183164638941E-0002	
 2.08050000000000E+0003	 9.29193412600869E-0002	
 2.08250000000000E+0003	 9.29168660562797E-0002	
 2.08450000000000E+0003	 9.29133908524726E-0002	
 2.08650000000000E+0003	 9.28939156486654E-0002	
 2.08850000000000E+0003	 9.28769404448583E-0002	
 2.09050000000000E+0003	 9.28714652410511E-0002	
 2.09250000000000E+0003	 9.28699900372439E-0002	
 2.09450000000000E+0003	 9.28640148334368E-0002	
 2.09650000000000E+0003	 9.28585396296296E-0002	
 2.09850000000000E+0003	 9.28415644258225E-0002	
 2.10050000000000E+0003	 9.28240892220153E-0002	
 2.10250000000000E+0003	 9.28031140182082E-0002	
 2.10450000000000E+0003	 9.27841388144010E-0002	
 2.10650000000000E+0003	 9.27606636105938E-0002	
 2.10850000000000E+0003	 9.27361884067867E-0002	
 2.11050000000000E+0003	 9.27067132029795E-0002	
 2.11250000000000E+0003	 9.26737379991724E-0002	
 2.11450000000000E+0003	 9.26402627953652E-0002	
 2.11650000000000E+0003	 9.26162875915580E-0002	
 2.11850000000000E+0003	 9.25918123877509E-0002	
 2.12050000000000E+0003	 9.25638371839437E-0002	
 2.12250000000000E+0003	 9.25278619801366E-0002	
 2.12450000000000E+0003	 9.24913867763294E-0002	
 2.12650000000000E+0003	 9.24514115725222E-0002	
 2.12850000000000E+0003	 9.24129363687151E-0002	
 2.13050000000000E+0003	 9.23784611649079E-0002	
 2.13250000000000E+0003	 9.23389859611008E-0002	
 2.13450000000000E+0003	 9.22960107572936E-0002	
 2.13650000000000E+0003	 9.22565355534864E-0002	
 2.13850000000000E+0003	 9.22110603496793E-0002	
 2.14050000000000E+0003	 9.21715851458721E-0002	
 2.14250000000000E+0003	 9.21366099420650E-0002	
 2.14450000000000E+0003	 9.20966347382578E-0002	
 2.14650000000000E+0003	 9.20491595344507E-0002	
 2.14850000000000E+0003	 9.20026843306435E-0002	
 2.15050000000000E+0003	 9.19567091268363E-0002	
 2.15250000000000E+0003	 9.19077339230292E-0002	
 2.15450000000000E+0003	 9.18572587192220E-0002	
 2.15650000000000E+0003	 9.18057835154149E-0002	
 2.15850000000000E+0003	 9.17493083116077E-0002	
 2.16050000000000E+0003	 9.16918331078005E-0002	
 2.16250000000000E+0003	 9.16373579039934E-0002	
 2.16450000000000E+0003	 9.15848827001862E-0002	
 2.16650000000000E+0003	 9.15374074963791E-0002	
 2.16850000000000E+0003	 9.14904322925719E-0002	
 2.17050000000000E+0003	 9.14344570887647E-0002	
 2.17250000000000E+0003	 9.13659818849576E-0002	
 2.17450000000000E+0003	 9.13000066811504E-0002	
 2.17650000000000E+0003	 9.12400314773433E-0002	
 2.17850000000000E+0003	 9.11825562735361E-0002	
 2.18050000000000E+0003	 9.11265810697289E-0002	
 2.18250000000000E+0003	 9.10711058659218E-0002	
 2.18450000000000E+0003	 9.10166306621146E-0002	
 2.18650000000000E+0003	 9.09651554583075E-0002	
 2.18850000000000E+0003	 9.09136802545003E-0002	
 2.19050000000000E+0003	 9.08607050506932E-0002	
 2.19250000000000E+0003	 9.08082298468860E-0002	
 2.19450000000000E+0003	 9.07517546430788E-0002	
 2.19650000000000E+0003	 9.06962794392717E-0002	
 2.19850000000000E+0003	 9.06418042354645E-0002	
 2.20050000000000E+0003	 9.05898290316574E-0002	
 2.20250000000000E+0003	 9.05368538278502E-0002	
 2.20450000000000E+0003	 9.04883786240430E-0002	
 2.20650000000000E+0003	 9.04404034202359E-0002	
 2.20850000000000E+0003	 9.03904282164287E-0002	
 2.21050000000000E+0003	 9.03379530126216E-0002	
 2.21250000000000E+0003	 9.02879778088144E-0002	
 2.21450000000000E+0003	 9.02370026050072E-0002	
 2.21650000000000E+0003	 9.01875274012001E-0002	
 2.21850000000000E+0003	 9.01375521973929E-0002	
 2.22050000000000E+0003	 9.00870769935858E-0002	
 2.22250000000000E+0003	 9.00361017897786E-0002	
 2.22450000000000E+0003	 8.99871265859714E-0002	
 2.22650000000000E+0003	 8.99411513821643E-0002	
 2.22850000000000E+0003	 8.98946761783571E-0002	
 2.23050000000000E+0003	 8.98507009745500E-0002	
 2.23250000000000E+0003	 8.98067257707428E-0002	
 2.23450000000000E+0003	 8.97617505669357E-0002	
 2.23650000000000E+0003	 8.97182753631285E-0002	
 2.23850000000000E+0003	 8.96748001593213E-0002	
 2.24050000000000E+0003	 8.96283249555142E-0002	
 2.24250000000000E+0003	 8.95813497517070E-0002	
 2.24450000000000E+0003	 8.95368745478999E-0002	
 2.24650000000000E+0003	 8.94938993440927E-0002	
 2.24850000000000E+0003	 8.94519241402855E-0002	
 2.25050000000000E+0003	 8.94104489364784E-0002	
 2.25250000000000E+0003	 8.93709737326712E-0002	
 2.25450000000000E+0003	 8.93309985288641E-0002	
 2.25650000000000E+0003	 8.92985233250569E-0002	
 2.25850000000000E+0003	 8.92760481212497E-0002	
 2.26050000000000E+0003	 8.92575729174426E-0002	
 2.26250000000000E+0003	 8.92410977136354E-0002	
 2.26450000000000E+0003	 8.92246225098283E-0002	
 2.26650000000000E+0003	 8.92076473060211E-0002	
 2.26850000000000E+0003	 8.91971721022139E-0002	
 2.27050000000000E+0003	 8.91801968984068E-0002	
 2.27250000000000E+0003	 8.91482216945996E-0002	
 2.27450000000000E+0003	 8.90977464907925E-0002	
 2.27650000000000E+0003	 8.90337712869853E-0002	
 2.27850000000000E+0003	 8.89567960831782E-0002	
 2.28050000000000E+0003	 8.88708208793710E-0002	
 2.28250000000000E+0003	 8.87763456755638E-0002	
 2.28450000000000E+0003	 8.86703704717567E-0002	
 2.28650000000000E+0003	 8.85343952679495E-0002	
 2.28850000000000E+0003	 8.83714200641424E-0002	
 2.29050000000000E+0003	 8.81824448603352E-0002	
 2.29250000000000E+0003	 8.79544696565280E-0002	
 2.29450000000000E+0003	 8.77009944527209E-0002	
 2.29650000000000E+0003	 8.74850192489137E-0002	
 2.29850000000000E+0003	 8.73380440451066E-0002	
 2.30050000000000E+0003	 8.72945688412994E-0002	
 2.30250000000000E+0003	 8.73660936374922E-0002	
 2.30450000000000E+0003	 8.73781184336851E-0002	
 2.30650000000000E+0003	 8.72141432298779E-0002	
 2.30850000000000E+0003	 8.70866680260708E-0002	
 2.31050000000000E+0003	 8.71781928222636E-0002	
 2.31250000000000E+0003	 8.75577176184564E-0002	
 2.31450000000000E+0003	 8.79112424146493E-0002	
 2.31650000000000E+0003	 8.79402672108421E-0002	
 2.31850000000000E+0003	 8.79162920070350E-0002	
 2.32050000000000E+0003	 8.79368168032278E-0002	
 2.32250000000000E+0003	 8.78688415994206E-0002	
 2.32450000000000E+0003	 8.78118663956135E-0002	
 2.32650000000000E+0003	 8.78753911918063E-0002	
 2.32850000000000E+0003	 8.80754159879992E-0002	
 2.33050000000000E+0003	 8.83209407841920E-0002	
 2.33250000000000E+0003	 8.85804655803849E-0002	
 2.33450000000000E+0003	 8.88839903765777E-0002	
 2.33650000000000E+0003	 8.91385151727705E-0002	
 2.33850000000000E+0003	 8.92530399689634E-0002	
 2.34050000000000E+0003	 8.90900647651562E-0002	
 2.34250000000000E+0003	 8.88170895613491E-0002	
 2.34450000000000E+0003	 8.88356143575419E-0002	
 2.34650000000000E+0003	 8.89501391537347E-0002	
 2.34850000000000E+0003	 8.90076639499276E-0002	
 2.35050000000000E+0003	 8.91546887461204E-0002	
 2.35250000000000E+0003	 8.93172135423133E-0002	
 2.35450000000000E+0003	 8.93662383385061E-0002	
 2.35650000000000E+0003	 8.91867631346989E-0002	
 2.35850000000000E+0003	 8.91112879308918E-0002	
 2.36050000000000E+0003	 8.92448127270846E-0002	
 2.36250000000000E+0003	 8.92888375232775E-0002	
 2.36450000000000E+0003	 8.92323623194703E-0002	
 2.36650000000000E+0003	 8.92078871156631E-0002	
 2.36850000000000E+0003	 8.92439119118560E-0002	
 2.37050000000000E+0003	 8.94199367080488E-0002	
 2.37250000000000E+0003	 8.98329615042417E-0002	
 2.37450000000000E+0003	 9.03309863004345E-0002	
 2.37650000000000E+0003	 9.04945110966274E-0002	
 2.37850000000000E+0003	 9.00470358928202E-0002	
 2.38050000000000E+0003	 8.93040606890130E-0002	
 2.38250000000000E+0003	 8.88840854852059E-0002	
 2.38450000000000E+0003	 8.90386102813987E-0002	
 2.38650000000000E+0003	 8.95176350775916E-0002	
 2.38850000000000E+0003	 8.99856598737844E-0002	
 2.39050000000000E+0003	 9.02926846699772E-0002	
 2.39250000000000E+0003	 9.04652094661701E-0002	
 2.39450000000000E+0003	 9.05702342623629E-0002	
 2.39650000000000E+0003	 9.06522590585558E-0002	
 2.39850000000000E+0003	 9.07312838547486E-0002	
 2.40050000000000E+0003	 9.08173086509414E-0002	
 2.40250000000000E+0003	 9.09028334471343E-0002	
 2.40450000000000E+0003	 9.09883582433271E-0002	
 2.40650000000000E+0003	 9.10798830395200E-0002	
 2.40850000000000E+0003	 9.11774078357128E-0002	
 2.41050000000000E+0003	 9.12734326319056E-0002	
 2.41250000000000E+0003	 9.13729574280985E-0002	
 2.41450000000000E+0003	 9.14719822242913E-0002	
 2.41650000000000E+0003	 9.15740070204842E-0002	
 2.41850000000000E+0003	 9.16780318166770E-0002	
 2.42050000000000E+0003	 9.17895566128699E-0002	
 2.42250000000000E+0003	 9.19000814090627E-0002	
 2.42450000000000E+0003	 9.20156062052555E-0002	
 2.42650000000000E+0003	 9.21306310014484E-0002	
 2.42850000000000E+0003	 9.22481557976412E-0002	
 2.43050000000000E+0003	 9.23656805938341E-0002	
 2.43250000000000E+0003	 9.24877053900269E-0002	
 2.43450000000000E+0003	 9.26077301862197E-0002	
 2.43650000000000E+0003	 9.27287549824126E-0002	
 2.43850000000000E+0003	 9.28462797786054E-0002	
 2.44050000000000E+0003	 9.29658045747983E-0002	
 2.44250000000000E+0003	 9.30878293709911E-0002	
 2.44450000000000E+0003	 9.32158541671839E-0002	
 2.44650000000000E+0003	 9.33413789633768E-0002	
 2.44850000000000E+0003	 9.34694037595696E-0002	
 2.45050000000000E+0003	 9.35974285557625E-0002	
 2.45250000000000E+0003	 9.37239533519553E-0002	
 2.45450000000000E+0003	 9.38524781481481E-0002	
 2.45650000000000E+0003	 9.39860029443410E-0002	
 2.45850000000000E+0003	 9.41230277405338E-0002	
 2.46050000000000E+0003	 9.42640525367267E-0002	
 2.46250000000000E+0003	 9.44070773329195E-0002	
 2.46450000000000E+0003	 9.45526021291124E-0002	
 2.46650000000000E+0003	 9.47026269253052E-0002	
 2.46850000000000E+0003	 9.48541517214980E-0002	
 2.47050000000000E+0003	 9.50041765176909E-0002	
 2.47250000000000E+0003	 9.51572013138837E-0002	
 2.47450000000000E+0003	 9.53132261100766E-0002	
 2.47650000000000E+0003	 9.54662509062694E-0002	
 2.47850000000000E+0003	 9.56162757024622E-0002	
 2.48050000000000E+0003	 9.57713004986551E-0002	
 2.48250000000000E+0003	 9.59263252948479E-0002	
 2.48450000000000E+0003	 9.60833500910408E-0002	
 2.48650000000000E+0003	 9.62383748872336E-0002	
 2.48850000000000E+0003	 9.63958996834264E-0002	
 2.49050000000000E+0003	 9.65519244796193E-0002	
 2.49250000000000E+0003	 9.67094492758121E-0002	
 2.49450000000000E+0003	 9.68629740720050E-0002	
 2.49650000000000E+0003	 9.70179988681978E-0002	
 2.49850000000000E+0003	 9.71710236643906E-0002	
 2.50050000000000E+0003	 9.73270484605835E-0002	
 2.50250000000000E+0003	 9.74825732567763E-0002	
 2.50450000000000E+0003	 9.76400980529692E-0002	
 2.50650000000000E+0003	 9.77926228491620E-0002	
 2.50850000000000E+0003	 9.79446476453549E-0002	
 2.51050000000000E+0003	 9.80921724415477E-0002	
 2.51250000000000E+0003	 9.82406972377405E-0002	
 2.51450000000000E+0003	 9.83847220339334E-0002	
 2.51650000000000E+0003	 9.85232468301262E-0002	
 2.51850000000000E+0003	 9.86557716263191E-0002	
 2.52050000000000E+0003	 9.87907964225119E-0002	
 2.52250000000000E+0003	 9.89223212187047E-0002	
 2.52450000000000E+0003	 9.90543460148976E-0002	
 2.52650000000000E+0003	 9.91838708110904E-0002	
 2.52850000000000E+0003	 9.93138956072833E-0002	
 2.53050000000000E+0003	 9.94399204034761E-0002	
 2.53250000000000E+0003	 9.95654451996689E-0002	
 2.53450000000000E+0003	 9.96919699958618E-0002	
 2.53650000000000E+0003	 9.98184947920546E-0002	
 2.53850000000000E+0003	 9.99415195882475E-0002	
 2.54050000000000E+0003	 1.00070044384440E-0001	
 2.54250000000000E+0003	 1.00196069180633E-0001	
 2.54450000000000E+0003	 1.00322593976826E-0001	
 2.54650000000000E+0003	 1.00449618773019E-0001	
 2.54850000000000E+0003	 1.00579143569212E-0001	
 2.55050000000000E+0003	 1.00708168365405E-0001	
 2.55250000000000E+0003	 1.00841693161597E-0001	
 2.55450000000000E+0003	 1.00976217957790E-0001	
 2.55650000000000E+0003	 1.01110242753983E-0001	
 2.55850000000000E+0003	 1.01241767550176E-0001	
 2.56050000000000E+0003	 1.01375292346369E-0001	
 2.56250000000000E+0003	 1.01504317142562E-0001	
 2.56450000000000E+0003	 1.01632841938754E-0001	
 2.56650000000000E+0003	 1.01760866734947E-0001	
 2.56850000000000E+0003	 1.01894891531140E-0001	
 2.57050000000000E+0003	 1.02030416327333E-0001	
 2.57250000000000E+0003	 1.02168941123526E-0001	
 2.57450000000000E+0003	 1.02309465919719E-0001	
 2.57650000000000E+0003	 1.02459490715911E-0001	
 2.57850000000000E+0003	 1.02613515512104E-0001	
 2.58050000000000E+0003	 1.02777040308297E-0001	
 2.58250000000000E+0003	 1.02944565104490E-0001	
 2.58450000000000E+0003	 1.03116589900683E-0001	
 2.58650000000000E+0003	 1.03290114696876E-0001	
 2.58850000000000E+0003	 1.03470639493068E-0001	
 2.59050000000000E+0003	 1.03648664289261E-0001	
 2.59250000000000E+0003	 1.03832689085454E-0001	
 2.59450000000000E+0003	 1.04021713881647E-0001	
 2.59650000000000E+0003	 1.04213738677840E-0001	
 2.59850000000000E+0003	 1.04401763474033E-0001	
 2.60050000000000E+0003	 1.04593788270226E-0001	
 2.60250000000000E+0003	 1.04791813066418E-0001	
 2.60450000000000E+0003	 1.04992837862611E-0001	
 2.60650000000000E+0003	 1.05188362658804E-0001	
 2.60850000000000E+0003	 1.05384887454997E-0001	
 2.61050000000000E+0003	 1.05582912251190E-0001	
 2.61250000000000E+0003	 1.05778437047383E-0001	
 2.61450000000000E+0003	 1.05971461843575E-0001	
 2.61650000000000E+0003	 1.06165486639768E-0001	
 2.61850000000000E+0003	 1.06353511435961E-0001	
 2.62050000000000E+0003	 1.06539536232154E-0001	
 2.62250000000000E+0003	 1.06724061028347E-0001	
 2.62450000000000E+0003	 1.06909585824540E-0001	
 2.62650000000000E+0003	 1.07098610620732E-0001	
 2.62850000000000E+0003	 1.07287135416925E-0001	
 2.63050000000000E+0003	 1.07471660213118E-0001	
 2.63250000000000E+0003	 1.07652685009311E-0001	
 2.63450000000000E+0003	 1.07831209805504E-0001	
 2.63650000000000E+0003	 1.08010234601697E-0001	
 2.63850000000000E+0003	 1.08190759397890E-0001	
 2.64050000000000E+0003	 1.08373284194082E-0001	
 2.64250000000000E+0003	 1.08551308990275E-0001	
 2.64450000000000E+0003	 1.08733333786468E-0001	
 2.64650000000000E+0003	 1.08913358582661E-0001	
 2.64850000000000E+0003	 1.09091883378854E-0001	
 2.65050000000000E+0003	 1.09266408175047E-0001	
 2.65250000000000E+0003	 1.09445432971239E-0001	
 2.65450000000000E+0003	 1.09621957767432E-0001	
 2.65650000000000E+0003	 1.09798482563625E-0001	
 2.65850000000000E+0003	 1.09978007359818E-0001	
 2.66050000000000E+0003	 1.10161032156011E-0001	
 2.66250000000000E+0003	 1.10341556952204E-0001	
 2.66450000000000E+0003	 1.10525581748396E-0001	
 2.66650000000000E+0003	 1.10711106544589E-0001	
 2.66850000000000E+0003	 1.10898631340782E-0001	
 2.67050000000000E+0003	 1.11084156136975E-0001	
 2.67250000000000E+0003	 1.11272680933168E-0001	
 2.67450000000000E+0003	 1.11463205729361E-0001	
 2.67650000000000E+0003	 1.11655730525553E-0001	
 2.67850000000000E+0003	 1.11853255321746E-0001	
 2.68050000000000E+0003	 1.12060280117939E-0001	
 2.68250000000000E+0003	 1.12264304914132E-0001	
 2.68450000000000E+0003	 1.12462329710325E-0001	
 2.68650000000000E+0003	 1.12662354506518E-0001	
 2.68850000000000E+0003	 1.12867879302711E-0001	
 2.69050000000000E+0003	 1.13075404098903E-0001	
 2.69250000000000E+0003	 1.13288928895096E-0001	
 2.69450000000000E+0003	 1.13504453691289E-0001	
 2.69650000000000E+0003	 1.13727978487482E-0001	
 2.69850000000000E+0003	 1.13967003283675E-0001	
 2.70050000000000E+0003	 1.14216528079868E-0001	
 2.70250000000000E+0003	 1.14463552876060E-0001	
 2.70450000000000E+0003	 1.14723077672253E-0001	
 2.70650000000000E+0003	 1.14994102468446E-0001	
 2.70850000000000E+0003	 1.15280627264639E-0001	
 2.71050000000000E+0003	 1.15584152060832E-0001	
 2.71250000000000E+0003	 1.15896176857025E-0001	
 2.71450000000000E+0003	 1.16215201653217E-0001	
 2.71650000000000E+0003	 1.16545726449410E-0001	
 2.71850000000000E+0003	 1.16879251245603E-0001	
 2.72050000000000E+0003	 1.17222776041796E-0001	
 2.72250000000000E+0003	 1.17579300837989E-0001	
 2.72450000000000E+0003	 1.17936825634182E-0001	
 2.72650000000000E+0003	 1.18299350430375E-0001	
 2.72850000000000E+0003	 1.18653375226567E-0001	
 2.73050000000000E+0003	 1.18988400022760E-0001	
 2.73250000000000E+0003	 1.19324424818953E-0001	
 2.73450000000000E+0003	 1.19653949615146E-0001	
 2.73650000000000E+0003	 1.19982474411339E-0001	
 2.73850000000000E+0003	 1.20307499207532E-0001	
 2.74050000000000E+0003	 1.20623524003724E-0001	
 2.74250000000000E+0003	 1.20929048799917E-0001	
 2.74450000000000E+0003	 1.21222573596110E-0001	
 2.74650000000000E+0003	 1.21519598392303E-0001	
 2.74850000000000E+0003	 1.21828623188496E-0001	
 2.75050000000000E+0003	 1.22130147984689E-0001	
 2.75250000000000E+0003	 1.22424672780881E-0001	
 2.75450000000000E+0003	 1.22722697577074E-0001	
 2.75650000000000E+0003	 1.23033722373267E-0001	
 2.75850000000000E+0003	 1.23348247169460E-0001	
 2.76050000000000E+0003	 1.23669271965653E-0001	
 2.76250000000000E+0003	 1.24000296761846E-0001	
 2.76450000000000E+0003	 1.24336321558038E-0001	
 2.76650000000000E+0003	 1.24669346354231E-0001	
 2.76850000000000E+0003	 1.25007871150424E-0001	
 2.77050000000000E+0003	 1.25346895946617E-0001	
 2.77250000000000E+0003	 1.25690920742810E-0001	
 2.77450000000000E+0003	 1.26057445539003E-0001	
 2.77650000000000E+0003	 1.26431470335196E-0001	
 2.77850000000000E+0003	 1.26787495131388E-0001	
 2.78050000000000E+0003	 1.27158019927581E-0001	
 2.78250000000000E+0003	 1.27545544723774E-0001	
 2.78450000000000E+0003	 1.27940069519967E-0001	
 2.78650000000000E+0003	 1.28335094316160E-0001	
 2.78850000000000E+0003	 1.28756119112353E-0001	
 2.79050000000000E+0003	 1.29188143908545E-0001	
 2.79250000000000E+0003	 1.29606168704738E-0001	
 2.79450000000000E+0003	 1.30019193500931E-0001	
 2.79650000000000E+0003	 1.30452218297124E-0001	
 2.79850000000000E+0003	 1.30909243093317E-0001	
 2.80050000000000E+0003	 1.31358767889510E-0001	
 2.80250000000000E+0003	 1.31800292685702E-0001	
 2.80450000000000E+0003	 1.32260817481895E-0001	
 2.80650000000000E+0003	 1.32726842278088E-0001	
 2.80850000000000E+0003	 1.33204367074281E-0001	
 2.81050000000000E+0003	 1.33705391870474E-0001	
 2.81250000000000E+0003	 1.34203916666667E-0001	
 2.81450000000000E+0003	 1.34694941462860E-0001	
 2.81650000000000E+0003	 1.35200466259052E-0001	
 2.81850000000000E+0003	 1.35716991055245E-0001	
 2.82050000000000E+0003	 1.36252015851438E-0001	
 2.82250000000000E+0003	 1.36802040647631E-0001	
 2.82450000000000E+0003	 1.37374565443824E-0001	
 2.82650000000000E+0003	 1.37968590240017E-0001	
 2.82850000000000E+0003	 1.38590115036209E-0001	
 2.83050000000000E+0003	 1.39252139832402E-0001	
 2.83250000000000E+0003	 1.39975664628595E-0001	
 2.83450000000000E+0003	 1.40774689424788E-0001	
 2.83650000000000E+0003	 1.41686214220981E-0001	
 2.83850000000000E+0003	 1.42778739017174E-0001	
 2.84050000000000E+0003	 1.44076263813366E-0001	
 2.84250000000000E+0003	 1.45663288609559E-0001	
 2.84450000000000E+0003	 1.47709813405752E-0001	
 2.84650000000000E+0003	 1.50244338201945E-0001	
 2.84850000000000E+0003	 1.53099362998138E-0001	
 2.85050000000000E+0003	 1.55875887794331E-0001	
 2.85250000000000E+0003	 1.58128912590523E-0001	
 2.85450000000000E+0003	 1.59549937386716E-0001	
 2.85650000000000E+0003	 1.60173462182909E-0001	
 2.85850000000000E+0003	 1.60365486979102E-0001	
 2.86050000000000E+0003	 1.60540511775295E-0001	
 2.86250000000000E+0003	 1.60944036571488E-0001	
 2.86450000000000E+0003	 1.61735061367681E-0001	
 2.86650000000000E+0003	 1.62936586163873E-0001	
 2.86850000000000E+0003	 1.64401610960066E-0001	
 2.87050000000000E+0003	 1.65921135756259E-0001	
 2.87250000000000E+0003	 1.67289160552452E-0001	
 2.87450000000000E+0003	 1.68224185348645E-0001	
 2.87650000000000E+0003	 1.68601210144838E-0001	
 2.87850000000000E+0003	 1.68608234941030E-0001	
 2.88050000000000E+0003	 1.68461259737223E-0001	
 2.88250000000000E+0003	 1.68311284533416E-0001	
 2.88450000000000E+0003	 1.68298809329609E-0001	
 2.88650000000000E+0003	 1.68506834125802E-0001	
 2.88850000000000E+0003	 1.68953358921995E-0001	
 2.89050000000000E+0003	 1.69612883718187E-0001	
 2.89250000000000E+0003	 1.70459408514380E-0001	
 2.89450000000000E+0003	 1.71474933310573E-0001	
 2.89650000000000E+0003	 1.72625958106766E-0001	
 2.89850000000000E+0003	 1.73836482902959E-0001	
 2.90050000000000E+0003	 1.75125507699152E-0001	
 2.90250000000000E+0003	 1.76550532495345E-0001	
 2.90450000000000E+0003	 1.78140057291537E-0001	
 2.90650000000000E+0003	 1.79917582087730E-0001	
 2.90850000000000E+0003	 1.81946106883923E-0001	
 2.91050000000000E+0003	 1.84281131680116E-0001	
 2.91250000000000E+0003	 1.86957656476309E-0001	
 2.91450000000000E+0003	 1.89896681272502E-0001	
 2.91650000000000E+0003	 1.92962706068694E-0001	
 2.91850000000000E+0003	 1.96037230864887E-0001	
 2.92050000000000E+0003	 1.98886255661080E-0001	
 2.92250000000000E+0003	 2.01268280457273E-0001	
 2.92450000000000E+0003	 2.03039305253466E-0001	
 2.92650000000000E+0003	 2.04181330049659E-0001	
 2.92850000000000E+0003	 2.04827854845851E-0001	
 2.93050000000000E+0003	 2.05046879642044E-0001	
 2.93250000000000E+0003	 2.04812904438237E-0001	
 2.93450000000000E+0003	 2.04202429234430E-0001	
 2.93650000000000E+0003	 2.03241954030623E-0001	
 2.93850000000000E+0003	 2.01912978826816E-0001	
 2.94050000000000E+0003	 2.00317503623008E-0001	
 2.94250000000000E+0003	 1.98690028419201E-0001	
 2.94450000000000E+0003	 1.97247053215394E-0001	
 2.94650000000000E+0003	 1.96120078011587E-0001	
 2.94850000000000E+0003	 1.95446602807780E-0001	
 2.95050000000000E+0003	 1.95352127603973E-0001	
 2.95250000000000E+0003	 1.95866152400166E-0001	
 2.95450000000000E+0003	 1.96717677196358E-0001	
 2.95650000000000E+0003	 1.97634201992551E-0001	
 2.95850000000000E+0003	 1.98403726788744E-0001	
 2.96050000000000E+0003	 1.98812251584937E-0001	
 2.96250000000000E+0003	 1.98746276381130E-0001	
 2.96450000000000E+0003	 1.98186301177323E-0001	
 2.96650000000000E+0003	 1.97244825973515E-0001	
 2.96850000000000E+0003	 1.96088350769708E-0001	
 2.97050000000000E+0003	 1.94597875565901E-0001	
 2.97250000000000E+0003	 1.92664400362094E-0001	
 2.97450000000000E+0003	 1.90612925158287E-0001	
 2.97650000000000E+0003	 1.88696449954480E-0001	
 2.97850000000000E+0003	 1.86928974750672E-0001	
 2.98050000000000E+0003	 1.85279499546865E-0001	
 2.98250000000000E+0003	 1.83681024343058E-0001	
 2.98450000000000E+0003	 1.82145049139251E-0001	
 2.98650000000000E+0003	 1.80728573935444E-0001	
 2.98850000000000E+0003	 1.79449098731637E-0001	
 2.99050000000000E+0003	 1.78317623527830E-0001	
 2.99250000000000E+0003	 1.77350148324022E-0001	
 2.99450000000000E+0003	 1.76497173120215E-0001	
 2.99650000000000E+0003	 1.75826197916408E-0001	
 2.99850000000000E+0003	 1.75377722712601E-0001	
 3.00050000000000E+0003	 1.75076247508794E-0001	
 3.00250000000000E+0003	 1.74936772304987E-0001	
 3.00450000000000E+0003	 1.74973297101179E-0001	
 3.00650000000000E+0003	 1.75126321897372E-0001	
 3.00850000000000E+0003	 1.75397846693565E-0001	
 3.01050000000000E+0003	 1.75830371489758E-0001	
 3.01250000000000E+0003	 1.76420396285951E-0001	
 3.01450000000000E+0003	 1.77102921082144E-0001	
 3.01650000000000E+0003	 1.77823445878336E-0001	
 3.01850000000000E+0003	 1.78571970674529E-0001	
 3.02050000000000E+0003	 1.79401495470722E-0001	
 3.02250000000000E+0003	 1.80329020266915E-0001	
 3.02450000000000E+0003	 1.81366545063108E-0001	
 3.02650000000000E+0003	 1.82426569859301E-0001	
 3.02850000000000E+0003	 1.83440094655493E-0001	
 3.03050000000000E+0003	 1.84425619451686E-0001	
 3.03250000000000E+0003	 1.85412144247879E-0001	
 3.03450000000000E+0003	 1.86440669044072E-0001	
 3.03650000000000E+0003	 1.87458193840265E-0001	
 3.03850000000000E+0003	 1.88446218636458E-0001	
 3.04050000000000E+0003	 1.89502243432651E-0001	
 3.04250000000000E+0003	 1.90619768228843E-0001	
 3.04450000000000E+0003	 1.91730793025036E-0001	
 3.04650000000000E+0003	 1.92826317821229E-0001	
 3.04850000000000E+0003	 1.93922842617422E-0001	
 3.05050000000000E+0003	 1.95086367413615E-0001	
 3.05250000000000E+0003	 1.96260392209808E-0001	
 3.05450000000000E+0003	 1.97393417006000E-0001	
 3.05650000000000E+0003	 1.98526441802193E-0001	
 3.05850000000000E+0003	 1.99621466598386E-0001	
 3.06050000000000E+0003	 2.00613991394579E-0001	
 3.06250000000000E+0003	 2.01506016190772E-0001	
 3.06450000000000E+0003	 2.02322540986965E-0001	
 3.06650000000000E+0003	 2.03114065783157E-0001	
 3.06850000000000E+0003	 2.03881590579350E-0001	
 3.07050000000000E+0003	 2.04556115375543E-0001	
 3.07250000000000E+0003	 2.05168140171736E-0001	
 3.07450000000000E+0003	 2.05731664967929E-0001	
 3.07650000000000E+0003	 2.06272189764122E-0001	
 3.07850000000000E+0003	 2.06823714560315E-0001	
 3.08050000000000E+0003	 2.07355239356507E-0001	
 3.08250000000000E+0003	 2.07846764152700E-0001	
 3.08450000000000E+0003	 2.08337288948893E-0001	
 3.08650000000000E+0003	 2.08776313745086E-0001	
 3.08850000000000E+0003	 2.09161338541279E-0001	
 3.09050000000000E+0003	 2.09550363337472E-0001	
 3.09250000000000E+0003	 2.09904888133664E-0001	
 3.09450000000000E+0003	 2.10205412929857E-0001	
 3.09650000000000E+0003	 2.10508437726050E-0001	
 3.09850000000000E+0003	 2.10843462522243E-0001	
 3.10050000000000E+0003	 2.11243487318436E-0001	
 3.10250000000000E+0003	 2.11672512114629E-0001	
 3.10450000000000E+0003	 2.12106036910821E-0001	
 3.10650000000000E+0003	 2.12568561707014E-0001	
 3.10850000000000E+0003	 2.13110586503207E-0001	
 3.11050000000000E+0003	 2.13677611299400E-0001	
 3.11250000000000E+0003	 2.14232636095593E-0001	
 3.11450000000000E+0003	 2.14880160891786E-0001	
 3.11650000000000E+0003	 2.15642185687978E-0001	
 3.11850000000000E+0003	 2.16455210484171E-0001	
 3.12050000000000E+0003	 2.17302735280364E-0001	
 3.12250000000000E+0003	 2.18151260076557E-0001	
 3.12450000000000E+0003	 2.19035284872750E-0001	
 3.12650000000000E+0003	 2.20007309668943E-0001	
 3.12850000000000E+0003	 2.21062334465136E-0001	
 3.13050000000000E+0003	 2.22169859261328E-0001	
 3.13250000000000E+0003	 2.23284384057521E-0001	
 3.13450000000000E+0003	 2.24440908853714E-0001	
 3.13650000000000E+0003	 2.25671933649907E-0001	
 3.13850000000000E+0003	 2.26994458446100E-0001	
 3.14050000000000E+0003	 2.28325983242293E-0001	
 3.14250000000000E+0003	 2.29621008038485E-0001	
 3.14450000000000E+0003	 2.30966032834678E-0001	
 3.14650000000000E+0003	 2.32382557630871E-0001	
 3.14850000000000E+0003	 2.33851582427064E-0001	
 3.15050000000000E+0003	 2.35416107223257E-0001	
 3.15250000000000E+0003	 2.37048632019450E-0001	
 3.15450000000000E+0003	 2.38605656815642E-0001	
 3.15650000000000E+0003	 2.40140681611835E-0001	
 3.15850000000000E+0003	 2.41756706408028E-0001	
 3.16050000000000E+0003	 2.43431731204221E-0001	
 3.16250000000000E+0003	 2.45138256000414E-0001	
 3.16450000000000E+0003	 2.46871280796607E-0001	
 3.16650000000000E+0003	 2.48624805592800E-0001	
 3.16850000000000E+0003	 2.50388330388992E-0001	
 3.17050000000000E+0003	 2.52163355185185E-0001	
 3.17250000000000E+0003	 2.53947379981378E-0001	
 3.17450000000000E+0003	 2.55720904777571E-0001	
 3.17650000000000E+0003	 2.57487929573764E-0001	
 3.17850000000000E+0003	 2.59270454369957E-0001	
 3.18050000000000E+0003	 2.61060479166149E-0001	
 3.18250000000000E+0003	 2.62825503962342E-0001	
 3.18450000000000E+0003	 2.64563028758535E-0001	
 3.18650000000000E+0003	 2.66288553554728E-0001	
 3.18850000000000E+0003	 2.68003578350921E-0001	
 3.19050000000000E+0003	 2.69685103147114E-0001	
 3.19250000000000E+0003	 2.71323127943306E-0001	
 3.19450000000000E+0003	 2.72915152739499E-0001	
 3.19650000000000E+0003	 2.74477677535692E-0001	
 3.19850000000000E+0003	 2.76037202331885E-0001	
 3.20050000000000E+0003	 2.77588227128078E-0001	
 3.20250000000000E+0003	 2.79110751924271E-0001	
 3.20450000000000E+0003	 2.80600776720463E-0001	
 3.20650000000000E+0003	 2.82059301516656E-0001	
 3.20850000000000E+0003	 2.83492826312849E-0001	
 3.21050000000000E+0003	 2.84917351109042E-0001	
 3.21250000000000E+0003	 2.86344375905235E-0001	
 3.21450000000000E+0003	 2.87776400701428E-0001	
 3.21650000000000E+0003	 2.89204425497621E-0001	
 3.21850000000000E+0003	 2.90638450293813E-0001	
 3.22050000000000E+0003	 2.92085475090006E-0001	
 3.22250000000000E+0003	 2.93534499886199E-0001	
 3.22450000000000E+0003	 2.95000024682392E-0001	
 3.22650000000000E+0003	 2.96481549478585E-0001	
 3.22850000000000E+0003	 2.97989074274778E-0001	
 3.23050000000000E+0003	 2.99551099070970E-0001	
 3.23250000000000E+0003	 3.01207123867163E-0001	
 3.23450000000000E+0003	 3.02865648663356E-0001	
 3.23650000000000E+0003	 3.04458173459549E-0001	
 3.23850000000000E+0003	 3.06097198255742E-0001	
 3.24050000000000E+0003	 3.07820723051935E-0001	
 3.24250000000000E+0003	 3.09581247848127E-0001	
 3.24450000000000E+0003	 3.11404272644320E-0001	
 3.24650000000000E+0003	 3.13329797440513E-0001	
 3.24850000000000E+0003	 3.15277822236706E-0001	
 3.25050000000000E+0003	 3.17193847032899E-0001	
 3.25250000000000E+0003	 3.19124371829092E-0001	
 3.25450000000000E+0003	 3.21116896625285E-0001	
 3.25650000000000E+0003	 3.23183921421477E-0001	
 3.25850000000000E+0003	 3.25237946217670E-0001	
 3.26050000000000E+0003	 3.27274471013863E-0001	
 3.26250000000000E+0003	 3.29316495810056E-0001	
 3.26450000000000E+0003	 3.31337520606249E-0001	
 3.26650000000000E+0003	 3.33300545402442E-0001	
 3.26850000000000E+0003	 3.35216570198634E-0001	
 3.27050000000000E+0003	 3.37109594994827E-0001	
 3.27250000000000E+0003	 3.38891119791020E-0001	
 3.27450000000000E+0003	 3.40536144587213E-0001	
 3.27650000000000E+0003	 3.42120669383406E-0001	
 3.27850000000000E+0003	 3.43610694179599E-0001	
 3.28050000000000E+0003	 3.45000718975791E-0001	
 3.28250000000000E+0003	 3.46292243771984E-0001	
 3.28450000000000E+0003	 3.47483268568177E-0001	
 3.28650000000000E+0003	 3.48559793364370E-0001	
 3.28850000000000E+0003	 3.49520318160563E-0001	
 3.29050000000000E+0003	 3.50401842956756E-0001	
 3.29250000000000E+0003	 3.51239867752948E-0001	
 3.29450000000000E+0003	 3.51985392549141E-0001	
 3.29650000000000E+0003	 3.52652417345334E-0001	
 3.29850000000000E+0003	 3.53226442141527E-0001	
 3.30050000000000E+0003	 3.53706966937720E-0001	
 3.30250000000000E+0003	 3.54130991733913E-0001	
 3.30450000000000E+0003	 3.54551016530106E-0001	
 3.30650000000000E+0003	 3.54927541326298E-0001	
 3.30850000000000E+0003	 3.55219566122491E-0001	
 3.31050000000000E+0003	 3.55445590918684E-0001	
 3.31250000000000E+0003	 3.55648115714877E-0001	
 3.31450000000000E+0003	 3.55847140511070E-0001	
 3.31650000000000E+0003	 3.56047665307263E-0001	
 3.31850000000000E+0003	 3.56235190103455E-0001	
 3.32050000000000E+0003	 3.56403714899648E-0001	
 3.32250000000000E+0003	 3.56560239695841E-0001	
 3.32450000000000E+0003	 3.56754264492034E-0001	
 3.32650000000000E+0003	 3.56987789288227E-0001	
 3.32850000000000E+0003	 3.57203814084420E-0001	
 3.33050000000000E+0003	 3.57406338880612E-0001	
 3.33250000000000E+0003	 3.57626363676805E-0001	
 3.33450000000000E+0003	 3.57861388472998E-0001	
 3.33650000000000E+0003	 3.58149413269191E-0001	
 3.33850000000000E+0003	 3.58492438065384E-0001	
 3.34050000000000E+0003	 3.58818962861577E-0001	
 3.34250000000000E+0003	 3.59132487657770E-0001	
 3.34450000000000E+0003	 3.59476512453962E-0001	
 3.34650000000000E+0003	 3.59810537250155E-0001	
 3.34850000000000E+0003	 3.60183562046348E-0001	
 3.35050000000000E+0003	 3.60618586842541E-0001	
 3.35250000000000E+0003	 3.61013611638734E-0001	
 3.35450000000000E+0003	 3.61357636434927E-0001	
 3.35650000000000E+0003	 3.61740161231119E-0001	
 3.35850000000000E+0003	 3.62149186027312E-0001	
 3.36050000000000E+0003	 3.62585710823505E-0001	
 3.36250000000000E+0003	 3.63012235619698E-0001	
 3.36450000000000E+0003	 3.63452760415891E-0001	
 3.36650000000000E+0003	 3.63965785212084E-0001	
 3.36850000000000E+0003	 3.64513810008276E-0001	
 3.37050000000000E+0003	 3.64963834804469E-0001	
 3.37250000000000E+0003	 3.65308359600662E-0001	
 3.37450000000000E+0003	 3.65677384396855E-0001	
 3.37650000000000E+0003	 3.66120909193048E-0001	
 3.37850000000000E+0003	 3.66569433989241E-0001	
 3.38050000000000E+0003	 3.66999958785433E-0001	
 3.38250000000000E+0003	 3.67415483581626E-0001	
 3.38450000000000E+0003	 3.67841008377819E-0001	
 3.38650000000000E+0003	 3.68271533174012E-0001	
 3.38850000000000E+0003	 3.68733057970205E-0001	
 3.39050000000000E+0003	 3.69272582766398E-0001	
 3.39250000000000E+0003	 3.69760607562591E-0001	
 3.39450000000000E+0003	 3.70075132358783E-0001	
 3.39650000000000E+0003	 3.70422157154976E-0001	
 3.39850000000000E+0003	 3.70938681951169E-0001	
 3.40050000000000E+0003	 3.71485206747362E-0001	
 3.40250000000000E+0003	 3.71788231543555E-0001	
 3.40450000000000E+0003	 3.71925256339748E-0001	
 3.40650000000000E+0003	 3.72154781135940E-0001	
 3.40850000000000E+0003	 3.72492805932133E-0001	
 3.41050000000000E+0003	 3.72795330728326E-0001	
 3.41250000000000E+0003	 3.73044855524519E-0001	
 3.41450000000000E+0003	 3.73208880320712E-0001	
 3.41650000000000E+0003	 3.73296405116905E-0001	
 3.41850000000000E+0003	 3.73388929913097E-0001	
 3.42050000000000E+0003	 3.73520454709290E-0001	
 3.42250000000000E+0003	 3.73609479505483E-0001	
 3.42450000000000E+0003	 3.73669004301676E-0001	
 3.42650000000000E+0003	 3.73743029097869E-0001	
 3.42850000000000E+0003	 3.73829053894062E-0001	
 3.43050000000000E+0003	 3.73835578690255E-0001	
 3.43250000000000E+0003	 3.73774603486447E-0001	
 3.43450000000000E+0003	 3.73739128282640E-0001	
 3.43650000000000E+0003	 3.73619653078833E-0001	
 3.43850000000000E+0003	 3.73266177875026E-0001	
 3.44050000000000E+0003	 3.72822202671219E-0001	
 3.44250000000000E+0003	 3.72416727467412E-0001	
 3.44450000000000E+0003	 3.72028752263604E-0001	
 3.44650000000000E+0003	 3.71691277059797E-0001	
 3.44850000000000E+0003	 3.71334301855990E-0001	
 3.45050000000000E+0003	 3.70899326652183E-0001	
 3.45250000000000E+0003	 3.70446851448376E-0001	
 3.45450000000000E+0003	 3.69936876244569E-0001	
 3.45650000000000E+0003	 3.69388401040761E-0001	
 3.45850000000000E+0003	 3.68838425836954E-0001	
 3.46050000000000E+0003	 3.68256950633147E-0001	
 3.46250000000000E+0003	 3.67569975429340E-0001	
 3.46450000000000E+0003	 3.66924500225533E-0001	
 3.46650000000000E+0003	 3.66427025021726E-0001	
 3.46850000000000E+0003	 3.65825049817918E-0001	
 3.47050000000000E+0003	 3.64875074614111E-0001	
 3.47250000000000E+0003	 3.63777599410304E-0001	
 3.47450000000000E+0003	 3.62794124206497E-0001	
 3.47650000000000E+0003	 3.61908649002690E-0001	
 3.47850000000000E+0003	 3.61045673798883E-0001	
 3.48050000000000E+0003	 3.60078698595076E-0001	
 3.48250000000000E+0003	 3.58962223391268E-0001	
 3.48450000000000E+0003	 3.57911248187461E-0001	
 3.48650000000000E+0003	 3.56946772983654E-0001	
 3.48850000000000E+0003	 3.55900797779847E-0001	
 3.49050000000000E+0003	 3.54795322576040E-0001	
 3.49250000000000E+0003	 3.53720847372233E-0001	
 3.49450000000000E+0003	 3.52652372168425E-0001	
 3.49650000000000E+0003	 3.51566896964618E-0001	
 3.49850000000000E+0003	 3.50375421760811E-0001	
 3.50050000000000E+0003	 3.49133946557004E-0001	
 3.50250000000000E+0003	 3.47939971353197E-0001	
 3.50450000000000E+0003	 3.46667496149390E-0001	
 3.50650000000000E+0003	 3.45331520945582E-0001	
 3.50850000000000E+0003	 3.44071545741775E-0001	
 3.51050000000000E+0003	 3.42887070537968E-0001	
 3.51250000000000E+0003	 3.41797595334161E-0001	
 3.51450000000000E+0003	 3.40617620130354E-0001	
 3.51650000000000E+0003	 3.39252644926547E-0001	
 3.51850000000000E+0003	 3.37847169722739E-0001	
 3.52050000000000E+0003	 3.36457694518932E-0001	
 3.52250000000000E+0003	 3.35092219315125E-0001	
 3.52450000000000E+0003	 3.33607244111318E-0001	
 3.52650000000000E+0003	 3.32067268907511E-0001	
 3.52850000000000E+0003	 3.30698293703704E-0001	
 3.53050000000000E+0003	 3.29382318499897E-0001	
 3.53250000000000E+0003	 3.28038343296089E-0001	
 3.53450000000000E+0003	 3.26711368092282E-0001	
 3.53650000000000E+0003	 3.25329892888475E-0001	
 3.53850000000000E+0003	 3.23741417684668E-0001	
 3.54050000000000E+0003	 3.22127442480861E-0001	
 3.54250000000000E+0003	 3.20554967277054E-0001	
 3.54450000000000E+0003	 3.18868492073246E-0001	
 3.54650000000000E+0003	 3.17024516869439E-0001	
 3.54850000000000E+0003	 3.15237541665632E-0001	
 3.55050000000000E+0003	 3.13622566461825E-0001	
 3.55250000000000E+0003	 3.11987091258018E-0001	
 3.55450000000000E+0003	 3.10235116054211E-0001	
 3.55650000000000E+0003	 3.08504640850403E-0001	
 3.55850000000000E+0003	 3.06745665646596E-0001	
 3.56050000000000E+0003	 3.04870690442789E-0001	
 3.56250000000000E+0003	 3.02773715238982E-0001	
 3.56450000000000E+0003	 3.00484240035175E-0001	
 3.56650000000000E+0003	 2.98266264831368E-0001	
 3.56850000000000E+0003	 2.96487789627561E-0001	
 3.57050000000000E+0003	 2.94947314423753E-0001	
 3.57250000000000E+0003	 2.93177839219946E-0001	
 3.57450000000000E+0003	 2.91214364016139E-0001	
 3.57650000000000E+0003	 2.89207888812332E-0001	
 3.57850000000000E+0003	 2.87168913608525E-0001	
 3.58050000000000E+0003	 2.85091438404718E-0001	
 3.58250000000000E+0003	 2.82967963200910E-0001	
 3.58450000000000E+0003	 2.80842487997103E-0001	
 3.58650000000000E+0003	 2.78622512793296E-0001	
 3.58850000000000E+0003	 2.76132537589489E-0001	
 3.59050000000000E+0003	 2.73769562385682E-0001	
 3.59250000000000E+0003	 2.71659087181875E-0001	
 3.59450000000000E+0003	 2.69499611978067E-0001	
 3.59650000000000E+0003	 2.67297136774260E-0001	
 3.59850000000000E+0003	 2.65129161570453E-0001	
 3.60050000000000E+0003	 2.62932186366646E-0001	
 3.60250000000000E+0003	 2.60701211162839E-0001	
 3.60450000000000E+0003	 2.58340235959032E-0001	
 3.60650000000000E+0003	 2.55786260755224E-0001	
 3.60850000000000E+0003	 2.53247785551417E-0001	
 3.61050000000000E+0003	 2.50913810347610E-0001	
 3.61250000000000E+0003	 2.48665835143803E-0001	
 3.61450000000000E+0003	 2.46301859939996E-0001	
 3.61650000000000E+0003	 2.44188384736189E-0001	
 3.61850000000000E+0003	 2.42489409532382E-0001	
 3.62050000000000E+0003	 2.40280934328574E-0001	
 3.62250000000000E+0003	 2.37478959124767E-0001	
 3.62450000000000E+0003	 2.34782983920960E-0001	
 3.62650000000000E+0003	 2.32370008717153E-0001	
 3.62850000000000E+0003	 2.30173533513346E-0001	
 3.63050000000000E+0003	 2.27702058309539E-0001	
 3.63250000000000E+0003	 2.25306083105731E-0001	
 3.63450000000000E+0003	 2.23189107901924E-0001	
 3.63650000000000E+0003	 2.21061132698117E-0001	
 3.63850000000000E+0003	 2.18902157494310E-0001	
 3.64050000000000E+0003	 2.16630682290503E-0001	
 3.64250000000000E+0003	 2.14249707086696E-0001	
 3.64450000000000E+0003	 2.11771231882888E-0001	
 3.64650000000000E+0003	 2.09274256679081E-0001	
 3.64850000000000E+0003	 2.06949281475274E-0001	
 3.65050000000000E+0003	 2.04955306271467E-0001	
 3.65250000000000E+0003	 2.03030331067660E-0001	
 3.65450000000000E+0003	 2.01236355863853E-0001	
 3.65650000000000E+0003	 1.99487380660046E-0001	
 3.65850000000000E+0003	 1.97619405456238E-0001	
 3.66050000000000E+0003	 1.95804430252431E-0001	
 3.66250000000000E+0003	 1.93848455048624E-0001	
 3.66450000000000E+0003	 1.91836479844817E-0001	
 3.66650000000000E+0003	 1.89940004641010E-0001	
 3.66850000000000E+0003	 1.88106529437203E-0001	
 3.67050000000000E+0003	 1.86206554233395E-0001	
 3.67250000000000E+0003	 1.84315079029588E-0001	
 3.67450000000000E+0003	 1.82691603825781E-0001	
 3.67650000000000E+0003	 1.81057128621974E-0001	
 3.67850000000000E+0003	 1.79719153418167E-0001	
 3.68050000000000E+0003	 1.78612678214360E-0001	
 3.68250000000000E+0003	 1.77419703010552E-0001	
 3.68450000000000E+0003	 1.76281227806745E-0001	
 3.68650000000000E+0003	 1.75150752602938E-0001	
 3.68850000000000E+0003	 1.74216277399131E-0001	
 3.69050000000000E+0003	 1.73056802195324E-0001	
 3.69250000000000E+0003	 1.71698826991517E-0001	
 3.69450000000000E+0003	 1.70770851787709E-0001	
 3.69650000000000E+0003	 1.70016376583902E-0001	
 3.69850000000000E+0003	 1.69191901380095E-0001	
 3.70050000000000E+0003	 1.68398426176288E-0001	
 3.70250000000000E+0003	 1.67530950972481E-0001	
 3.70450000000000E+0003	 1.66571475768674E-0001	
 3.70650000000000E+0003	 1.65645000564867E-0001	
 3.70850000000000E+0003	 1.64602025361059E-0001	
 3.71050000000000E+0003	 1.63633550157252E-0001	
 3.71250000000000E+0003	 1.63066574953445E-0001	
 3.71450000000000E+0003	 1.62818099749638E-0001	
 3.71650000000000E+0003	 1.62516624545831E-0001	
 3.71850000000000E+0003	 1.61976649342024E-0001	
 3.72050000000000E+0003	 1.61228174138216E-0001	
 3.72250000000000E+0003	 1.60461198934409E-0001	
 3.72450000000000E+0003	 1.59783723730602E-0001	
 3.72650000000000E+0003	 1.59244248526795E-0001	
 3.72850000000000E+0003	 1.58805273322988E-0001	
 3.73050000000000E+0003	 1.58358798119181E-0001	
 3.73250000000000E+0003	 1.57892822915373E-0001	
 3.73450000000000E+0003	 1.57218347711566E-0001	
 3.73650000000000E+0003	 1.56466372507759E-0001	
 3.73850000000000E+0003	 1.56014897303952E-0001	
 3.74050000000000E+0003	 1.55833922100145E-0001	
 3.74250000000000E+0003	 1.55479446896338E-0001	
 3.74450000000000E+0003	 1.55071471692531E-0001	
 3.74650000000000E+0003	 1.54629996488723E-0001	
 3.74850000000000E+0003	 1.54182521284916E-0001	
 3.75050000000000E+0003	 1.53867546081109E-0001	
 3.75250000000000E+0003	 1.53743070877302E-0001	
 3.75450000000000E+0003	 1.53800595673495E-0001	
 3.75650000000000E+0003	 1.53781620469688E-0001	
 3.75850000000000E+0003	 1.53558145265880E-0001	
 3.76050000000000E+0003	 1.53334170062073E-0001	
 3.76250000000000E+0003	 1.53143694858266E-0001	
 3.76450000000000E+0003	 1.52954219654459E-0001	
 3.76650000000000E+0003	 1.52655244450652E-0001	
 3.76850000000000E+0003	 1.52305769246845E-0001	
 3.77050000000000E+0003	 1.52134794043037E-0001	
 3.77250000000000E+0003	 1.52024818839230E-0001	
 3.77450000000000E+0003	 1.51898843635423E-0001	
 3.77650000000000E+0003	 1.51608368431616E-0001	
 3.77850000000000E+0003	 1.51285393227809E-0001	
 3.78050000000000E+0003	 1.51046418024002E-0001	
 3.78250000000000E+0003	 1.50807442820194E-0001	
 3.78450000000000E+0003	 1.50634967616387E-0001	
 3.78650000000000E+0003	 1.50459492412580E-0001	
 3.78850000000000E+0003	 1.50332517208773E-0001	
 3.79050000000000E+0003	 1.50177542004966E-0001	
 3.79250000000000E+0003	 1.49882066801159E-0001	
 3.79450000000000E+0003	 1.49440591597352E-0001	
 3.79650000000000E+0003	 1.49083116393544E-0001	
 3.79850000000000E+0003	 1.48783641189737E-0001	
 3.80050000000000E+0003	 1.48445665985930E-0001	
 3.80250000000000E+0003	 1.48181190782123E-0001	
 3.80450000000000E+0003	 1.48003715578316E-0001	
 3.80650000000000E+0003	 1.48039240374509E-0001	
 3.80850000000000E+0003	 1.48055265170701E-0001	
 3.81050000000000E+0003	 1.48011289966894E-0001	
 3.81250000000000E+0003	 1.47841814763087E-0001	
 3.81450000000000E+0003	 1.47432339559280E-0001	
 3.81650000000000E+0003	 1.47106864355473E-0001	
 3.81850000000000E+0003	 1.46893389151666E-0001	
 3.82050000000000E+0003	 1.46846913947858E-0001	
 3.82250000000000E+0003	 1.46687438744051E-0001	
 3.82450000000000E+0003	 1.46540963540244E-0001	
 3.82650000000000E+0003	 1.46527988336437E-0001	
 3.82850000000000E+0003	 1.46383013132630E-0001	
 3.83050000000000E+0003	 1.46256037928823E-0001	
 3.83250000000000E+0003	 1.46228062725016E-0001	
 3.83450000000000E+0003	 1.46200587521208E-0001	
 3.83650000000000E+0003	 1.46016112317401E-0001	
 3.83850000000000E+0003	 1.45634637113594E-0001	
 3.84050000000000E+0003	 1.45344661909787E-0001	
 3.84250000000000E+0003	 1.45256686705980E-0001	
 3.84450000000000E+0003	 1.45302211502173E-0001	
 3.84650000000000E+0003	 1.45225736298365E-0001	
 3.84850000000000E+0003	 1.45052261094558E-0001	
 3.85050000000000E+0003	 1.44836785890751E-0001	
 3.85250000000000E+0003	 1.45063810686944E-0001	
 3.85450000000000E+0003	 1.45434835483137E-0001	
 3.85650000000000E+0003	 1.45080360279330E-0001	
 3.85850000000000E+0003	 1.44605885075522E-0001	
 3.86050000000000E+0003	 1.44412909871715E-0001	
 3.86250000000000E+0003	 1.44451934667908E-0001	
 3.86450000000000E+0003	 1.44435459464101E-0001	
 3.86650000000000E+0003	 1.44249484260294E-0001	
 3.86850000000000E+0003	 1.44059009056487E-0001	
 3.87050000000000E+0003	 1.44019533852679E-0001	
 3.87250000000000E+0003	 1.43947558648872E-0001	
 3.87450000000000E+0003	 1.43997583445065E-0001	
 3.87650000000000E+0003	 1.43884608241258E-0001	
 3.87850000000000E+0003	 1.43793133037451E-0001	
 3.88050000000000E+0003	 1.43762657833644E-0001	
 3.88250000000000E+0003	 1.43567682629837E-0001	
 3.88450000000000E+0003	 1.43476207426029E-0001	
 3.88650000000000E+0003	 1.43493232222222E-0001	
 3.88850000000000E+0003	 1.43518257018415E-0001	
 3.89050000000000E+0003	 1.43802281814608E-0001	
 3.89250000000000E+0003	 1.43841306610801E-0001	
 3.89450000000000E+0003	 1.43512831406994E-0001	
 3.89650000000000E+0003	 1.43340356203186E-0001	
 3.89850000000000E+0003	 1.43280880999379E-0001	
 3.90050000000000E+0003	 1.42962405795572E-0001	
 3.90250000000000E+0003	 1.42848930591765E-0001	
 3.90450000000000E+0003	 1.43280455387958E-0001	
 3.90650000000000E+0003	 1.43409980184151E-0001	
 3.90850000000000E+0003	 1.43270504980343E-0001	
 3.91050000000000E+0003	 1.43232029776536E-0001	
 3.91250000000000E+0003	 1.43176054572729E-0001	
 3.91450000000000E+0003	 1.43006579368922E-0001	
 3.91650000000000E+0003	 1.42828604165115E-0001	
 3.91850000000000E+0003	 1.42751128961308E-0001	
 3.92050000000000E+0003	 1.42811653757501E-0001	
 3.92250000000000E+0003	 1.42872178553693E-0001	
 3.92450000000000E+0003	 1.42981203349886E-0001	
 3.92650000000000E+0003	 1.42954228146079E-0001	
 3.92850000000000E+0003	 1.42778252942272E-0001	
 3.93050000000000E+0003	 1.42594277738465E-0001	
 3.93250000000000E+0003	 1.42452302534658E-0001	
 3.93450000000000E+0003	 1.42500827330850E-0001	
 3.93650000000000E+0003	 1.42617852127043E-0001	
 3.93850000000000E+0003	 1.42647876923236E-0001	
 3.94050000000000E+0003	 1.42598401719429E-0001	
 3.94250000000000E+0003	 1.42578926515622E-0001	
 3.94450000000000E+0003	 1.42413451311815E-0001	
 3.94650000000000E+0003	 1.42210476108007E-0001	
 3.94850000000000E+0003	 1.42210500904200E-0001	
 3.95050000000000E+0003	 1.42333025700393E-0001	
 3.95250000000000E+0003	 1.42398050496586E-0001	
 3.95450000000000E+0003	 1.42376075292779E-0001	
 3.95650000000000E+0003	 1.42334100088972E-0001	
 3.95850000000000E+0003	 1.42268624885164E-0001	
 3.96050000000000E+0003	 1.42181149681357E-0001	
 3.96250000000000E+0003	 1.42139674477550E-0001	
 3.96450000000000E+0003	 1.42149699273743E-0001	
 3.96650000000000E+0003	 1.42163224069936E-0001	
 3.96850000000000E+0003	 1.42137248866129E-0001	
 3.97050000000000E+0003	 1.42096273662322E-0001	
 3.97250000000000E+0003	 1.42051298458514E-0001	
 3.97450000000000E+0003	 1.41993323254707E-0001	
 3.97650000000000E+0003	 1.41947348050900E-0001	
 3.97850000000000E+0003	 1.41944872847093E-0001	
 3.98050000000000E+0003	 1.41948897643286E-0001	
 3.98250000000000E+0003	 1.41946422439479E-0001	
 3.98450000000000E+0003	 1.41934947235671E-0001	
 3.98650000000000E+0003	 1.41890472031864E-0001	
 3.98850000000000E+0003	 1.41816496828057E-0001	
 3.99050000000000E+0003	 1.41766021624250E-0001	
 3.99250000000000E+0003	 1.41734046420443E-0001	
 3.99450000000000E+0003	 1.41725071216636E-0001	
 3.99650000000000E+0003	 1.41708096012828E-0001	
 3.99850000000000E+0003	 1.41657125000000E-0001	

>1	DATALINE
