*CPCWIN*

>1	DATALINE
DATALINE
1
Operator:

Description:

Remarks:





15.9.2008
10:48


_x	_y
	
	
UNIT	UNIT
 4.50500000000000E+0002	 1.28716394382487E-0001	
 4.52500000000000E+0002	 1.29167914291615E-0001	
 4.54500000000000E+0002	 1.29528934200743E-0001	
 4.56500000000000E+0002	 1.29603954109872E-0001	
 4.58500000000000E+0002	 1.29777974019000E-0001	
 4.60500000000000E+0002	 1.30618993928129E-0001	
 4.62500000000000E+0002	 1.31286513837257E-0001	
 4.64500000000000E+0002	 1.32006033746386E-0001	
 4.66500000000000E+0002	 1.32554053655514E-0001	
 4.68500000000000E+0002	 1.33104073564643E-0001	
 4.70500000000000E+0002	 1.33469093473771E-0001	
 4.72500000000000E+0002	 1.33922613382900E-0001	
 4.74500000000000E+0002	 1.34541633292028E-0001	
 4.76500000000000E+0002	 1.35281653201157E-0001	
 4.78500000000000E+0002	 1.35857173110285E-0001	
 4.80500000000000E+0002	 1.36456693019413E-0001	
 4.82500000000000E+0002	 1.37075212928542E-0001	
 4.84500000000000E+0002	 1.37809232837670E-0001	
 4.86500000000000E+0002	 1.38564752746799E-0001	
 4.88500000000000E+0002	 1.39428272655927E-0001	
 4.90500000000000E+0002	 1.40120792565056E-0001	
 4.92500000000000E+0002	 1.40962812474184E-0001	
 4.94500000000000E+0002	 1.41838332383313E-0001	
 4.96500000000000E+0002	 1.42672852292441E-0001	
 4.98500000000000E+0002	 1.43425372201570E-0001	
 5.00500000000000E+0002	 1.44101892110698E-0001	
 5.02500000000000E+0002	 1.44832412019827E-0001	
 5.04500000000000E+0002	 1.45902431928955E-0001	
 5.06500000000000E+0002	 1.46877951838083E-0001	
 5.08500000000000E+0002	 1.47793971747212E-0001	
 5.10500000000000E+0002	 1.48725491656340E-0001	
 5.12500000000000E+0002	 1.49780011565469E-0001	
 5.14500000000000E+0002	 1.50740031474597E-0001	
 5.16500000000000E+0002	 1.51694551383726E-0001	
 5.18500000000000E+0002	 1.52792571292854E-0001	
 5.20500000000000E+0002	 1.54034091201983E-0001	
 5.22500000000000E+0002	 1.55129111111111E-0001	
 5.24500000000000E+0002	 1.56083631020240E-0001	
 5.26500000000000E+0002	 1.57083650929368E-0001	
 5.28500000000000E+0002	 1.58263170838496E-0001	
 5.30500000000000E+0002	 1.59253690747625E-0001	
 5.32500000000000E+0002	 1.59991210656753E-0001	
 5.34500000000000E+0002	 1.60447230565882E-0001	
 5.36500000000000E+0002	 1.60681250475010E-0001	
 5.38500000000000E+0002	 1.60693770384139E-0001	
 5.40500000000000E+0002	 1.60631290293267E-0001	
 5.42500000000000E+0002	 1.60561310202396E-0001	
 5.44500000000000E+0002	 1.60547830111524E-0001	
 5.46500000000000E+0002	 1.60525850020653E-0001	
 5.48500000000000E+0002	 1.60552369929781E-0001	
 5.50500000000000E+0002	 1.60567389838910E-0001	
 5.52500000000000E+0002	 1.60561409748038E-0001	
 5.54500000000000E+0002	 1.60450429657166E-0001	
 5.56500000000000E+0002	 1.60289949566295E-0001	
 5.58500000000000E+0002	 1.60042969475423E-0001	
 5.60500000000000E+0002	 1.59693489384552E-0001	
 5.62500000000000E+0002	 1.59216509293680E-0001	
 5.64500000000000E+0002	 1.58800529202809E-0001	
 5.66500000000000E+0002	 1.58471049111937E-0001	
 5.68500000000000E+0002	 1.58208569021066E-0001	
 5.70500000000000E+0002	 1.57916588930194E-0001	
 5.72500000000000E+0002	 1.57700608839323E-0001	
 5.74500000000000E+0002	 1.57486628748451E-0001	
 5.76500000000000E+0002	 1.57349148657580E-0001	
 5.78500000000000E+0002	 1.57294668566708E-0001	
 5.80500000000000E+0002	 1.57193688475836E-0001	
 5.82500000000000E+0002	 1.57010708384965E-0001	
 5.84500000000000E+0002	 1.56847228294093E-0001	
 5.86500000000000E+0002	 1.56667248203222E-0001	
 5.88500000000000E+0002	 1.56551768112350E-0001	
 5.90500000000000E+0002	 1.56487788021479E-0001	
 5.92500000000000E+0002	 1.56572307930607E-0001	
 5.94500000000000E+0002	 1.56783827839736E-0001	
 5.96500000000000E+0002	 1.57099847748864E-0001	
 5.98500000000000E+0002	 1.57380867657993E-0001	
 6.00500000000000E+0002	 1.57609887567121E-0001	
 6.02500000000000E+0002	 1.57799407476249E-0001	
 6.04500000000000E+0002	 1.57867927385378E-0001	
 6.06500000000000E+0002	 1.57750447294506E-0001	
 6.08500000000000E+0002	 1.57544967203635E-0001	
 6.10500000000000E+0002	 1.57269487112763E-0001	
 6.12500000000000E+0002	 1.57003507021892E-0001	
 6.14500000000000E+0002	 1.56751526931020E-0001	
 6.16500000000000E+0002	 1.56553046840149E-0001	
 6.18500000000000E+0002	 1.56322066749277E-0001	
 6.20500000000000E+0002	 1.56050086658406E-0001	
 6.22500000000000E+0002	 1.55741606567534E-0001	
 6.24500000000000E+0002	 1.55445626476663E-0001	
 6.26500000000000E+0002	 1.55156146385791E-0001	
 6.28500000000000E+0002	 1.54880166294919E-0001	
 6.30500000000000E+0002	 1.54560186204048E-0001	
 6.32500000000000E+0002	 1.54216206113176E-0001	
 6.34500000000000E+0002	 1.53821226022305E-0001	
 6.36500000000000E+0002	 1.53436745931433E-0001	
 6.38500000000000E+0002	 1.53060265840562E-0001	
 6.40500000000000E+0002	 1.52693285749690E-0001	
 6.42500000000000E+0002	 1.52291305658819E-0001	
 6.44500000000000E+0002	 1.51887825567947E-0001	
 6.46500000000000E+0002	 1.51492345477076E-0001	
 6.48500000000000E+0002	 1.51081865386204E-0001	
 6.50500000000000E+0002	 1.50626885295333E-0001	
 6.52500000000000E+0002	 1.50198405204461E-0001	
 6.54500000000000E+0002	 1.49802925113589E-0001	
 6.56500000000000E+0002	 1.49474945022718E-0001	
 6.58500000000000E+0002	 1.49170964931846E-0001	
 6.60500000000000E+0002	 1.48890484840975E-0001	
 6.62500000000000E+0002	 1.48575504750103E-0001	
 6.64500000000000E+0002	 1.48115024659232E-0001	
 6.66500000000000E+0002	 1.47383044568360E-0001	
 6.68500000000000E+0002	 1.46635564477489E-0001	
 6.70500000000000E+0002	 1.46485584386617E-0001	
 6.72500000000000E+0002	 1.46338104295746E-0001	
 6.74500000000000E+0002	 1.45841624204874E-0001	
 6.76500000000000E+0002	 1.45269144114002E-0001	
 6.78500000000000E+0002	 1.44709164023131E-0001	
 6.80500000000000E+0002	 1.44218683932259E-0001	
 6.82500000000000E+0002	 1.43749203841388E-0001	
 6.84500000000000E+0002	 1.43324223750516E-0001	
 6.86500000000000E+0002	 1.42917243659645E-0001	
 6.88500000000000E+0002	 1.42559763568773E-0001	
 6.90500000000000E+0002	 1.42268783477902E-0001	
 6.92500000000000E+0002	 1.42043803387030E-0001	
 6.94500000000000E+0002	 1.41844323296159E-0001	
 6.96500000000000E+0002	 1.41691343205287E-0001	
 6.98500000000000E+0002	 1.41510863114416E-0001	
 7.00500000000000E+0002	 1.41257383023544E-0001	
 7.02500000000000E+0002	 1.40856402932672E-0001	
 7.04500000000000E+0002	 1.40335922841801E-0001	
 7.06500000000000E+0002	 1.39762442750929E-0001	
 7.08500000000000E+0002	 1.39225962660058E-0001	
 7.10500000000000E+0002	 1.38753982569186E-0001	
 7.12500000000000E+0002	 1.38264002478315E-0001	
 7.14500000000000E+0002	 1.37538022387443E-0001	
 7.16500000000000E+0002	 1.36679042296572E-0001	
 7.18500000000000E+0002	 1.35858062205700E-0001	
 7.20500000000000E+0002	 1.35051582114829E-0001	
 7.22500000000000E+0002	 1.34118602023957E-0001	
 7.24500000000000E+0002	 1.33044621933086E-0001	
 7.26500000000000E+0002	 1.31784141842214E-0001	
 7.28500000000000E+0002	 1.30406661751342E-0001	
 7.30500000000000E+0002	 1.29006681660471E-0001	
 7.32500000000000E+0002	 1.27760701569599E-0001	
 7.34500000000000E+0002	 1.26685721478728E-0001	
 7.36500000000000E+0002	 1.25747741387856E-0001	
 7.38500000000000E+0002	 1.24902261296985E-0001	
 7.40500000000000E+0002	 1.24167281206113E-0001	
 7.42500000000000E+0002	 1.23476301115242E-0001	
 7.44500000000000E+0002	 1.22832821024370E-0001	
 7.46500000000000E+0002	 1.22235840933499E-0001	
 7.48500000000000E+0002	 1.21681360842627E-0001	
 7.50500000000000E+0002	 1.21166880751755E-0001	
 7.52500000000000E+0002	 1.20789400660884E-0001	
 7.54500000000000E+0002	 1.20566420570012E-0001	
 7.56500000000000E+0002	 1.20508440479141E-0001	
 7.58500000000000E+0002	 1.20587460388269E-0001	
 7.60500000000000E+0002	 1.20878980297398E-0001	
 7.62500000000000E+0002	 1.21274000206526E-0001	
 7.64500000000000E+0002	 1.21491020115655E-0001	
 7.66500000000000E+0002	 1.21134540024783E-0001	
 7.68500000000000E+0002	 1.20143059933912E-0001	
 7.70500000000000E+0002	 1.18807579843040E-0001	
 7.72500000000000E+0002	 1.17582599752169E-0001	
 7.74500000000000E+0002	 1.16800119661297E-0001	
 7.76500000000000E+0002	 1.16707139570425E-0001	
 7.78500000000000E+0002	 1.17010159479554E-0001	
 7.80500000000000E+0002	 1.16899679388682E-0001	
 7.82500000000000E+0002	 1.16037699297811E-0001	
 7.84500000000000E+0002	 1.14933219206939E-0001	
 7.86500000000000E+0002	 1.13881239116068E-0001	
 7.88500000000000E+0002	 1.12863259025196E-0001	
 7.90500000000000E+0002	 1.11918778934325E-0001	
 7.92500000000000E+0002	 1.11303798843453E-0001	
 7.94500000000000E+0002	 1.11025818752582E-0001	
 7.96500000000000E+0002	 1.10726338661710E-0001	
 7.98500000000000E+0002	 1.10085358570838E-0001	
 8.00500000000000E+0002	 1.09268378479967E-0001	
 8.02500000000000E+0002	 1.08538898389095E-0001	
 8.04500000000000E+0002	 1.08038418298224E-0001	
 8.06500000000000E+0002	 1.07670938207352E-0001	
 8.08500000000000E+0002	 1.07376458116481E-0001	
 8.10500000000000E+0002	 1.07012478025609E-0001	
 8.12500000000000E+0002	 1.06509997934738E-0001	
 8.14500000000000E+0002	 1.05842517843866E-0001	
 8.16500000000000E+0002	 1.05078037752995E-0001	
 8.18500000000000E+0002	 1.04299057662123E-0001	
 8.20500000000000E+0002	 1.03648577571252E-0001	
 8.22500000000000E+0002	 1.03135097480380E-0001	
 8.24500000000000E+0002	 1.02804617389508E-0001	
 8.26500000000000E+0002	 1.02583637298637E-0001	
 8.28500000000000E+0002	 1.02450157207765E-0001	
 8.30500000000000E+0002	 1.02388177116894E-0001	
 8.32500000000000E+0002	 1.02429197026022E-0001	
 8.34500000000000E+0002	 1.02507716935151E-0001	
 8.36500000000000E+0002	 1.02575236844279E-0001	
 8.38500000000000E+0002	 1.02581756753408E-0001	
 8.40500000000000E+0002	 1.02557776662536E-0001	
 8.42500000000000E+0002	 1.02467796571665E-0001	
 8.44500000000000E+0002	 1.02364316480793E-0001	
 8.46500000000000E+0002	 1.02282336389922E-0001	
 8.48500000000000E+0002	 1.02260856299050E-0001	
 8.50500000000000E+0002	 1.02291876208178E-0001	
 8.52500000000000E+0002	 1.02442396117307E-0001	
 8.54500000000000E+0002	 1.02664916026435E-0001	
 8.56500000000000E+0002	 1.02882435935564E-0001	
 8.58500000000000E+0002	 1.02956955844692E-0001	
 8.60500000000000E+0002	 1.02817975753821E-0001	
 8.62500000000000E+0002	 1.02369495662949E-0001	
 8.64500000000000E+0002	 1.01662015572078E-0001	
 8.66500000000000E+0002	 1.00767535481206E-0001	
 8.68500000000000E+0002	 1.00028055390335E-0001	
 8.70500000000000E+0002	 9.99115752994630E-0002	
 8.72500000000000E+0002	 1.00033595208591E-0001	
 8.74500000000000E+0002	 9.93766151177200E-0002	
 8.76500000000000E+0002	 9.83016350268484E-0002	
 8.78500000000000E+0002	 9.74386549359769E-0002	
 8.80500000000000E+0002	 9.68611748451053E-0002	
 8.82500000000000E+0002	 9.64441947542338E-0002	
 8.84500000000000E+0002	 9.60927146633622E-0002	
 8.86500000000000E+0002	 9.57052345724907E-0002	
 8.88500000000000E+0002	 9.53077544816192E-0002	
 8.90500000000000E+0002	 9.48622743907476E-0002	
 8.92500000000000E+0002	 9.43977942998761E-0002	
 8.94500000000000E+0002	 9.39063142090045E-0002	
 8.96500000000000E+0002	 9.34403341181330E-0002	
 8.98500000000000E+0002	 9.30413540272615E-0002	
 9.00500000000000E+0002	 9.28128739363899E-0002	
 9.02500000000000E+0002	 9.28433938455184E-0002	
 9.04500000000000E+0002	 9.32789137546468E-0002	
 9.06500000000000E+0002	 9.41334336637753E-0002	
 9.08500000000000E+0002	 9.53469535729038E-0002	
 9.10500000000000E+0002	 9.66994734820322E-0002	
 9.12500000000000E+0002	 9.79559933911607E-0002	
 9.14500000000000E+0002	 9.88270133002891E-0002	
 9.16500000000000E+0002	 9.91715332094176E-0002	
 9.18500000000000E+0002	 9.89420531185461E-0002	
 9.20500000000000E+0002	 9.82420730276745E-0002	
 9.22500000000000E+0002	 9.72200929368030E-0002	
 9.24500000000000E+0002	 9.60651128459314E-0002	
 9.26500000000000E+0002	 9.48731327550599E-0002	
 9.28500000000000E+0002	 9.37586526641884E-0002	
 9.30500000000000E+0002	 9.27701725733168E-0002	
 9.32500000000000E+0002	 9.19681924824453E-0002	
 9.34500000000000E+0002	 9.13262123915737E-0002	
 9.36500000000000E+0002	 9.08482323007022E-0002	
 9.38500000000000E+0002	 9.04822522098306E-0002	
 9.40500000000000E+0002	 9.02247721189591E-0002	
 9.42500000000000E+0002	 9.00752920280876E-0002	
 9.44500000000000E+0002	 9.01058119372160E-0002	
 9.46500000000000E+0002	 9.03298318463445E-0002	
 9.48500000000000E+0002	 9.07898517554729E-0002	
 9.50500000000000E+0002	 9.14643716646014E-0002	
 9.52500000000000E+0002	 9.23803915737299E-0002	
 9.54500000000000E+0002	 9.35304114828583E-0002	
 9.56500000000000E+0002	 9.49169313919868E-0002	
 9.58500000000000E+0002	 9.64709513011152E-0002	
 9.60500000000000E+0002	 9.81394712102437E-0002	
 9.62500000000000E+0002	 9.98304911193722E-0002	
 9.64500000000000E+0002	 1.01493511028501E-0001	
 9.66500000000000E+0002	 1.03053030937629E-0001	
 9.68500000000000E+0002	 1.04503050846758E-0001	
 9.70500000000000E+0002	 1.05850070755886E-0001	
 9.72500000000000E+0002	 1.07216590665014E-0001	
 9.74500000000000E+0002	 1.08757110574143E-0001	
 9.76500000000000E+0002	 1.10719130483271E-0001	
 9.78500000000000E+0002	 1.13361650392400E-0001	
 9.80500000000000E+0002	 1.16928670301528E-0001	
 9.82500000000000E+0002	 1.21416190210657E-0001	
 9.84500000000000E+0002	 1.26583210119785E-0001	
 9.86500000000000E+0002	 1.31917730028914E-0001	
 9.88500000000000E+0002	 1.36861249938042E-0001	
 9.90500000000000E+0002	 1.41005769847171E-0001	
 9.92500000000000E+0002	 1.44338789756299E-0001	
 9.94500000000000E+0002	 1.47145309665428E-0001	
 9.96500000000000E+0002	 1.49929829574556E-0001	
 9.98500000000000E+0002	 1.53194349483684E-0001	
 1.00050000000000E+0003	 1.57290869392813E-0001	
 1.00250000000000E+0003	 1.62219389301941E-0001	
 1.00450000000000E+0003	 1.67768409211070E-0001	
 1.00650000000000E+0003	 1.73613929120198E-0001	
 1.00850000000000E+0003	 1.79504449029327E-0001	
 1.01050000000000E+0003	 1.85252968938455E-0001	
 1.01250000000000E+0003	 1.90786488847584E-0001	
 1.01450000000000E+0003	 1.96002008756712E-0001	
 1.01650000000000E+0003	 2.00762528665841E-0001	
 1.01850000000000E+0003	 2.04796548574969E-0001	
 1.02050000000000E+0003	 2.07916568484097E-0001	
 1.02250000000000E+0003	 2.10145588393226E-0001	
 1.02450000000000E+0003	 2.11805608302354E-0001	
 1.02650000000000E+0003	 2.13306128211483E-0001	
 1.02850000000000E+0003	 2.14985148120611E-0001	
 1.03050000000000E+0003	 2.17070168029740E-0001	
 1.03250000000000E+0003	 2.19458187938868E-0001	
 1.03450000000000E+0003	 2.21247207847997E-0001	
 1.03650000000000E+0003	 2.22436727757125E-0001	
 1.03850000000000E+0003	 2.23571247666254E-0001	
 1.04050000000000E+0003	 2.24536767575382E-0001	
 1.04250000000000E+0003	 2.25371287484511E-0001	
 1.04450000000000E+0003	 2.26364307393639E-0001	
 1.04650000000000E+0003	 2.27782827302767E-0001	
 1.04850000000000E+0003	 2.29748347211896E-0001	
 1.05050000000000E+0003	 2.32097867121024E-0001	
 1.05250000000000E+0003	 2.34340387030153E-0001	
 1.05450000000000E+0003	 2.35889906939281E-0001	
 1.05650000000000E+0003	 2.36444426848410E-0001	
 1.05850000000000E+0003	 2.36017946757538E-0001	
 1.06050000000000E+0003	 2.34901466666667E-0001	
 1.06250000000000E+0003	 2.33629986575795E-0001	
 1.06450000000000E+0003	 2.32880006484924E-0001	
 1.06650000000000E+0003	 2.33170026394052E-0001	
 1.06850000000000E+0003	 2.34746546303181E-0001	
 1.07050000000000E+0003	 2.37508066212309E-0001	
 1.07250000000000E+0003	 2.41058086121437E-0001	
 1.07450000000000E+0003	 2.44821606030566E-0001	
 1.07650000000000E+0003	 2.48218125939694E-0001	
 1.07850000000000E+0003	 2.50746645848823E-0001	
 1.08050000000000E+0003	 2.52050665757951E-0001	
 1.08250000000000E+0003	 2.51872185667080E-0001	
 1.08450000000000E+0003	 2.49996205576208E-0001	
 1.08650000000000E+0003	 2.46257225485337E-0001	
 1.08850000000000E+0003	 2.40779745394465E-0001	
 1.09050000000000E+0003	 2.34235765303594E-0001	
 1.09250000000000E+0003	 2.27749785212722E-0001	
 1.09450000000000E+0003	 2.22268305121850E-0001	
 1.09650000000000E+0003	 2.18134325030979E-0001	
 1.09850000000000E+0003	 2.14942844940107E-0001	
 1.10050000000000E+0003	 2.12041364849236E-0001	
 1.10250000000000E+0003	 2.09016884758364E-0001	
 1.10450000000000E+0003	 2.05782904667493E-0001	
 1.10650000000000E+0003	 2.02407424576621E-0001	
 1.10850000000000E+0003	 1.99139444485750E-0001	
 1.11050000000000E+0003	 1.96213464394878E-0001	
 1.11250000000000E+0003	 1.93729484304007E-0001	
 1.11450000000000E+0003	 1.91546004213135E-0001	
 1.11650000000000E+0003	 1.89446024122264E-0001	
 1.11850000000000E+0003	 1.87221044031392E-0001	
 1.12050000000000E+0003	 1.84758563940520E-0001	
 1.12250000000000E+0003	 1.81998083849649E-0001	
 1.12450000000000E+0003	 1.78997103758777E-0001	
 1.12650000000000E+0003	 1.75848123667906E-0001	
 1.12850000000000E+0003	 1.72657143577034E-0001	
 1.13050000000000E+0003	 1.69466663486163E-0001	
 1.13250000000000E+0003	 1.66404683395291E-0001	
 1.13450000000000E+0003	 1.63592703304420E-0001	
 1.13650000000000E+0003	 1.61133223213548E-0001	
 1.13850000000000E+0003	 1.59115243122677E-0001	
 1.14050000000000E+0003	 1.57642263031805E-0001	
 1.14250000000000E+0003	 1.56689282940933E-0001	
 1.14450000000000E+0003	 1.56138802850062E-0001	
 1.14650000000000E+0003	 1.55713322759190E-0001	
 1.14850000000000E+0003	 1.55073342668319E-0001	
 1.15050000000000E+0003	 1.53868362577447E-0001	
 1.15250000000000E+0003	 1.51943882486576E-0001	
 1.15450000000000E+0003	 1.49369902395704E-0001	
 1.15650000000000E+0003	 1.46428422304833E-0001	
 1.15850000000000E+0003	 1.43361942213961E-0001	
 1.16050000000000E+0003	 1.40310962123090E-0001	
 1.16250000000000E+0003	 1.37224482032218E-0001	
 1.16450000000000E+0003	 1.34064501941347E-0001	
 1.16650000000000E+0003	 1.30861021850475E-0001	
 1.16850000000000E+0003	 1.27759541759603E-0001	
 1.17050000000000E+0003	 1.24835061668732E-0001	
 1.17250000000000E+0003	 1.22126081577860E-0001	
 1.17450000000000E+0003	 1.19606601486989E-0001	
 1.17650000000000E+0003	 1.17315621396117E-0001	
 1.17850000000000E+0003	 1.15301141305246E-0001	
 1.18050000000000E+0003	 1.13683161214374E-0001	
 1.18250000000000E+0003	 1.12546681123503E-0001	
 1.18450000000000E+0003	 1.11954701032631E-0001	
 1.18650000000000E+0003	 1.11902720941760E-0001	
 1.18850000000000E+0003	 1.12411240850888E-0001	
 1.19050000000000E+0003	 1.13432760760017E-0001	
 1.19250000000000E+0003	 1.14944780669145E-0001	
 1.19450000000000E+0003	 1.16858300578273E-0001	
 1.19650000000000E+0003	 1.19096820487402E-0001	
 1.19850000000000E+0003	 1.21527340396530E-0001	
 1.20050000000000E+0003	 1.24010360305659E-0001	
 1.20250000000000E+0003	 1.26395380214787E-0001	
 1.20450000000000E+0003	 1.28632900123916E-0001	
 1.20650000000000E+0003	 1.30682920033044E-0001	
 1.20850000000000E+0003	 1.32580939942173E-0001	
 1.21050000000000E+0003	 1.34404959851301E-0001	
 1.21250000000000E+0003	 1.36330479760430E-0001	
 1.21450000000000E+0003	 1.38438499669558E-0001	
 1.21650000000000E+0003	 1.40606019578686E-0001	
 1.21850000000000E+0003	 1.42475039487815E-0001	
 1.22050000000000E+0003	 1.43956059396943E-0001	
 1.22250000000000E+0003	 1.45275579306072E-0001	
 1.22450000000000E+0003	 1.46559099215200E-0001	
 1.22650000000000E+0003	 1.47746119124329E-0001	
 1.22850000000000E+0003	 1.48800139033457E-0001	
 1.23050000000000E+0003	 1.49648658942586E-0001	
 1.23250000000000E+0003	 1.50254678851714E-0001	
 1.23450000000000E+0003	 1.50578698760843E-0001	
 1.23650000000000E+0003	 1.50644218669971E-0001	
 1.23850000000000E+0003	 1.50464738579100E-0001	
 1.24050000000000E+0003	 1.50068758488228E-0001	
 1.24250000000000E+0003	 1.49441778397356E-0001	
 1.24450000000000E+0003	 1.48613798306485E-0001	
 1.24650000000000E+0003	 1.47592318215613E-0001	
 1.24850000000000E+0003	 1.46399838124742E-0001	
 1.25050000000000E+0003	 1.45033858033870E-0001	
 1.25250000000000E+0003	 1.43532877942999E-0001	
 1.25450000000000E+0003	 1.41937397852127E-0001	
 1.25650000000000E+0003	 1.40319417761256E-0001	
 1.25850000000000E+0003	 1.38705937670384E-0001	
 1.26050000000000E+0003	 1.37128457579513E-0001	
 1.26250000000000E+0003	 1.35585477488641E-0001	
 1.26450000000000E+0003	 1.34117497397770E-0001	
 1.26650000000000E+0003	 1.32752017306898E-0001	
 1.26850000000000E+0003	 1.31520537216026E-0001	
 1.27050000000000E+0003	 1.30425057125155E-0001	
 1.27250000000000E+0003	 1.29490077034283E-0001	
 1.27450000000000E+0003	 1.28685596943412E-0001	
 1.27650000000000E+0003	 1.28018116852540E-0001	
 1.27850000000000E+0003	 1.27455636761669E-0001	
 1.28050000000000E+0003	 1.26983656670797E-0001	
 1.28250000000000E+0003	 1.26543176579926E-0001	
 1.28450000000000E+0003	 1.26115696489054E-0001	
 1.28650000000000E+0003	 1.25717716398183E-0001	
 1.28850000000000E+0003	 1.25433236307311E-0001	
 1.29050000000000E+0003	 1.25274756216439E-0001	
 1.29250000000000E+0003	 1.25245776125568E-0001	
 1.29450000000000E+0003	 1.25307796034696E-0001	
 1.29650000000000E+0003	 1.25490315943825E-0001	
 1.29850000000000E+0003	 1.25817835852953E-0001	
 1.30050000000000E+0003	 1.26281355762082E-0001	
 1.30250000000000E+0003	 1.26794375671210E-0001	
 1.30450000000000E+0003	 1.27294895580339E-0001	
 1.30650000000000E+0003	 1.27746915489467E-0001	
 1.30850000000000E+0003	 1.28163935398596E-0001	
 1.31050000000000E+0003	 1.28476955307724E-0001	
 1.31250000000000E+0003	 1.28676475216853E-0001	
 1.31450000000000E+0003	 1.28734995125981E-0001	
 1.31650000000000E+0003	 1.28609515035109E-0001	
 1.31850000000000E+0003	 1.28339534944238E-0001	
 1.32050000000000E+0003	 1.28007054853366E-0001	
 1.32250000000000E+0003	 1.27642074762495E-0001	
 1.32450000000000E+0003	 1.27369594671623E-0001	
 1.32650000000000E+0003	 1.27241114580752E-0001	
 1.32850000000000E+0003	 1.27301134489880E-0001	
 1.33050000000000E+0003	 1.27526654399009E-0001	
 1.33250000000000E+0003	 1.27888674308137E-0001	
 1.33450000000000E+0003	 1.28254694217266E-0001	
 1.33650000000000E+0003	 1.28545714126394E-0001	
 1.33850000000000E+0003	 1.28771234035523E-0001	
 1.34050000000000E+0003	 1.29060753944651E-0001	
 1.34250000000000E+0003	 1.29244773853779E-0001	
 1.34450000000000E+0003	 1.29297293762908E-0001	
 1.34650000000000E+0003	 1.29252813672036E-0001	
 1.34850000000000E+0003	 1.29242333581165E-0001	
 1.35050000000000E+0003	 1.29352853490293E-0001	
 1.35250000000000E+0003	 1.29587873399422E-0001	
 1.35450000000000E+0003	 1.29923893308550E-0001	
 1.35650000000000E+0003	 1.30346413217679E-0001	
 1.35850000000000E+0003	 1.30772933126807E-0001	
 1.36050000000000E+0003	 1.31208953035936E-0001	
 1.36250000000000E+0003	 1.31968972945064E-0001	
 1.36450000000000E+0003	 1.33323492854192E-0001	
 1.36650000000000E+0003	 1.34873012763321E-0001	
 1.36850000000000E+0003	 1.36407532672449E-0001	
 1.37050000000000E+0003	 1.37672552581578E-0001	
 1.37250000000000E+0003	 1.38668072490706E-0001	
 1.37450000000000E+0003	 1.39783092399835E-0001	
 1.37650000000000E+0003	 1.40896112308963E-0001	
 1.37850000000000E+0003	 1.41854132218092E-0001	
 1.38050000000000E+0003	 1.42796152127220E-0001	
 1.38250000000000E+0003	 1.43782672036349E-0001	
 1.38450000000000E+0003	 1.44614691945477E-0001	
 1.38650000000000E+0003	 1.44966711854606E-0001	
 1.38850000000000E+0003	 1.45461731763734E-0001	
 1.39050000000000E+0003	 1.46514251672862E-0001	
 1.39250000000000E+0003	 1.47667271581991E-0001	
 1.39450000000000E+0003	 1.48655791491119E-0001	
 1.39650000000000E+0003	 1.49875311400248E-0001	
 1.39850000000000E+0003	 1.51133831309376E-0001	
 1.40050000000000E+0003	 1.52179851218505E-0001	
 1.40250000000000E+0003	 1.52660871127633E-0001	
 1.40450000000000E+0003	 1.52692891036762E-0001	
 1.40650000000000E+0003	 1.52328410945890E-0001	
 1.40850000000000E+0003	 1.51735930855019E-0001	
 1.41050000000000E+0003	 1.51023450764147E-0001	
 1.41250000000000E+0003	 1.50226470673276E-0001	
 1.41450000000000E+0003	 1.49328990582404E-0001	
 1.41650000000000E+0003	 1.48113010491532E-0001	
 1.41850000000000E+0003	 1.46391530400661E-0001	
 1.42050000000000E+0003	 1.44768050309789E-0001	
 1.42250000000000E+0003	 1.44109070218918E-0001	
 1.42450000000000E+0003	 1.43533590128046E-0001	
 1.42650000000000E+0003	 1.42266110037175E-0001	
 1.42850000000000E+0003	 1.41034129946303E-0001	
 1.43050000000000E+0003	 1.40218149855432E-0001	
 1.43250000000000E+0003	 1.39860669764560E-0001	
 1.43450000000000E+0003	 1.39626689673689E-0001	
 1.43650000000000E+0003	 1.39332209582817E-0001	
 1.43850000000000E+0003	 1.40026229491945E-0001	
 1.44050000000000E+0003	 1.41655749401074E-0001	
 1.44250000000000E+0003	 1.43025269310202E-0001	
 1.44450000000000E+0003	 1.43757789219331E-0001	
 1.44650000000000E+0003	 1.44319309128459E-0001	
 1.44850000000000E+0003	 1.44933329037588E-0001	
 1.45050000000000E+0003	 1.45593348946716E-0001	
 1.45250000000000E+0003	 1.46150868855845E-0001	
 1.45450000000000E+0003	 1.45657888764973E-0001	
 1.45650000000000E+0003	 1.43378408674102E-0001	
 1.45850000000000E+0003	 1.41548928583230E-0001	
 1.46050000000000E+0003	 1.41112448492359E-0001	
 1.46250000000000E+0003	 1.40444968401487E-0001	
 1.46450000000000E+0003	 1.38538988310615E-0001	
 1.46650000000000E+0003	 1.36549008219744E-0001	
 1.46850000000000E+0003	 1.34828028128872E-0001	
 1.47050000000000E+0003	 1.32287548038001E-0001	
 1.47250000000000E+0003	 1.28458067947129E-0001	
 1.47450000000000E+0003	 1.25127087856258E-0001	
 1.47650000000000E+0003	 1.23445607765386E-0001	
 1.47850000000000E+0003	 1.22472127674515E-0001	
 1.48050000000000E+0003	 1.21659647583643E-0001	
 1.48250000000000E+0003	 1.21148167492772E-0001	
 1.48450000000000E+0003	 1.20757187401900E-0001	
 1.48650000000000E+0003	 1.20613707311029E-0001	
 1.48850000000000E+0003	 1.20708727220157E-0001	
 1.49050000000000E+0003	 1.21550247129285E-0001	
 1.49250000000000E+0003	 1.22873267038414E-0001	
 1.49450000000000E+0003	 1.24285786947542E-0001	
 1.49650000000000E+0003	 1.25528806856671E-0001	
 1.49850000000000E+0003	 1.27390826765799E-0001	
 1.50050000000000E+0003	 1.29855846674928E-0001	
 1.50250000000000E+0003	 1.32327366584056E-0001	
 1.50450000000000E+0003	 1.33652886493185E-0001	
 1.50650000000000E+0003	 1.35382406402313E-0001	
 1.50850000000000E+0003	 1.39640926311442E-0001	
 1.51050000000000E+0003	 1.44781446220570E-0001	
 1.51250000000000E+0003	 1.50104466129698E-0001	
 1.51450000000000E+0003	 1.54634986038827E-0001	
 1.51650000000000E+0003	 1.58804505947955E-0001	
 1.51850000000000E+0003	 1.62037025857084E-0001	
 1.52050000000000E+0003	 1.64062045766212E-0001	
 1.52250000000000E+0003	 1.67392065675341E-0001	
 1.52450000000000E+0003	 1.71497085584469E-0001	
 1.52650000000000E+0003	 1.76364105493598E-0001	
 1.52850000000000E+0003	 1.81186125402726E-0001	
 1.53050000000000E+0003	 1.85402145311855E-0001	
 1.53250000000000E+0003	 1.89266665220983E-0001	
 1.53450000000000E+0003	 1.93693185130112E-0001	
 1.53650000000000E+0003	 1.97110205039240E-0001	
 1.53850000000000E+0003	 1.99504724948368E-0001	
 1.54050000000000E+0003	 2.02497744857497E-0001	
 1.54250000000000E+0003	 2.05804764766625E-0001	
 1.54450000000000E+0003	 2.09269284675754E-0001	
 1.54650000000000E+0003	 2.11645304584882E-0001	
 1.54850000000000E+0003	 2.12171324494011E-0001	
 1.55050000000000E+0003	 2.11176844403139E-0001	
 1.55250000000000E+0003	 2.08463364312268E-0001	
 1.55450000000000E+0003	 2.04337384221396E-0001	
 1.55650000000000E+0003	 1.99489404130525E-0001	
 1.55850000000000E+0003	 1.93540424039653E-0001	
 1.56050000000000E+0003	 1.87952443948781E-0001	
 1.56250000000000E+0003	 1.85472463857910E-0001	
 1.56450000000000E+0003	 1.84796983767038E-0001	
 1.56650000000000E+0003	 1.82179003676167E-0001	
 1.56850000000000E+0003	 1.79016023585295E-0001	
 1.57050000000000E+0003	 1.75977543494424E-0001	
 1.57250000000000E+0003	 1.73408063403552E-0001	
 1.57450000000000E+0003	 1.70902083312681E-0001	
 1.57650000000000E+0003	 1.67485603221809E-0001	
 1.57850000000000E+0003	 1.65015123130938E-0001	
 1.58050000000000E+0003	 1.64237643040066E-0001	
 1.58250000000000E+0003	 1.63017662949195E-0001	
 1.58450000000000E+0003	 1.61693182858323E-0001	
 1.58650000000000E+0003	 1.60760702767451E-0001	
 1.58850000000000E+0003	 1.60420222676580E-0001	
 1.59050000000000E+0003	 1.60583742585708E-0001	
 1.59250000000000E+0003	 1.61323762494837E-0001	
 1.59450000000000E+0003	 1.62490282403965E-0001	
 1.59650000000000E+0003	 1.64109302313094E-0001	
 1.59850000000000E+0003	 1.65950822222222E-0001	
 1.60050000000000E+0003	 1.68244842131351E-0001	
 1.60250000000000E+0003	 1.70946362040479E-0001	
 1.60450000000000E+0003	 1.74119881949608E-0001	
 1.60650000000000E+0003	 1.77640901858736E-0001	
 1.60850000000000E+0003	 1.81886921767865E-0001	
 1.61050000000000E+0003	 1.86769441676993E-0001	
 1.61250000000000E+0003	 1.92220961586121E-0001	
 1.61450000000000E+0003	 1.97550481495250E-0001	
 1.61650000000000E+0003	 2.03800501404378E-0001	
 1.61850000000000E+0003	 2.11530521313507E-0001	
 1.62050000000000E+0003	 2.19797541222635E-0001	
 1.62250000000000E+0003	 2.28927561131764E-0001	
 1.62450000000000E+0003	 2.38921581040892E-0001	
 1.62650000000000E+0003	 2.48771600950021E-0001	
 1.62850000000000E+0003	 2.59620120859149E-0001	
 1.63050000000000E+0003	 2.70360640768278E-0001	
 1.63250000000000E+0003	 2.79741160677406E-0001	
 1.63450000000000E+0003	 2.88141180586534E-0001	
 1.63650000000000E+0003	 2.97165200495663E-0001	
 1.63850000000000E+0003	 3.04646720404791E-0001	
 1.64050000000000E+0003	 3.10763740313920E-0001	
 1.64250000000000E+0003	 3.15393260223048E-0001	
 1.64450000000000E+0003	 3.18249780132177E-0001	
 1.64650000000000E+0003	 3.21170800041305E-0001	
 1.64850000000000E+0003	 3.24921319950434E-0001	
 1.65050000000000E+0003	 3.27135839859562E-0001	
 1.65250000000000E+0003	 3.27089859768691E-0001	
 1.65450000000000E+0003	 3.27296379677819E-0001	
 1.65650000000000E+0003	 3.27222899586948E-0001	
 1.65850000000000E+0003	 3.26026919496076E-0001	
 1.66050000000000E+0003	 3.20794439405204E-0001	
 1.66250000000000E+0003	 3.13059459314333E-0001	
 1.66450000000000E+0003	 3.04191479223461E-0001	
 1.66650000000000E+0003	 2.95970499132590E-0001	
 1.66850000000000E+0003	 2.87255519041718E-0001	
 1.67050000000000E+0003	 2.77857038950847E-0001	
 1.67250000000000E+0003	 2.69549058859975E-0001	
 1.67450000000000E+0003	 2.61679078769104E-0001	
 1.67650000000000E+0003	 2.53165598678232E-0001	
 1.67850000000000E+0003	 2.46058118587361E-0001	
 1.68050000000000E+0003	 2.39487138496489E-0001	
 1.68250000000000E+0003	 2.31833658405618E-0001	
 1.68450000000000E+0003	 2.22393678314746E-0001	
 1.68650000000000E+0003	 2.13594698223874E-0001	
 1.68850000000000E+0003	 2.08104218133003E-0001	
 1.69050000000000E+0003	 2.02033238042131E-0001	
 1.69250000000000E+0003	 1.94766257951260E-0001	
 1.69450000000000E+0003	 1.86900777860388E-0001	
 1.69650000000000E+0003	 1.78099797769517E-0001	
 1.69850000000000E+0003	 1.71325317678645E-0001	
 1.70050000000000E+0003	 1.65266337587774E-0001	
 1.70250000000000E+0003	 1.60214357496902E-0001	
 1.70450000000000E+0003	 1.58011377406031E-0001	
 1.70650000000000E+0003	 1.55408897315159E-0001	
 1.70850000000000E+0003	 1.51957917224287E-0001	
 1.71050000000000E+0003	 1.48826437133416E-0001	
 1.71250000000000E+0003	 1.45277457042544E-0001	
 1.71450000000000E+0003	 1.41064976951673E-0001	
 1.71650000000000E+0003	 1.35903496860801E-0001	
 1.71850000000000E+0003	 1.30658516769930E-0001	
 1.72050000000000E+0003	 1.26856536679058E-0001	
 1.72250000000000E+0003	 1.24272556588187E-0001	
 1.72450000000000E+0003	 1.21251076497315E-0001	
 1.72650000000000E+0003	 1.18159096406444E-0001	
 1.72850000000000E+0003	 1.15438116315572E-0001	
 1.73050000000000E+0003	 1.13095136224701E-0001	
 1.73250000000000E+0003	 1.10354156133829E-0001	
 1.73450000000000E+0003	 1.07815176042957E-0001	
 1.73650000000000E+0003	 1.06657195952086E-0001	
 1.73850000000000E+0003	 1.06947715861214E-0001	
 1.74050000000000E+0003	 1.06521235770343E-0001	
 1.74250000000000E+0003	 1.05353255679471E-0001	
 1.74450000000000E+0003	 1.04422275588600E-0001	
 1.74650000000000E+0003	 1.03102795497728E-0001	
 1.74850000000000E+0003	 1.01374315406857E-0001	
 1.75050000000000E+0003	 9.91858353159851E-0002	
 1.75250000000000E+0003	 9.70118552251136E-0002	
 1.75450000000000E+0003	 9.56568751342420E-0002	
 1.75650000000000E+0003	 9.44993950433705E-0002	
 1.75850000000000E+0003	 9.30219149524990E-0002	
 1.76050000000000E+0003	 9.15059348616274E-0002	
 1.76250000000000E+0003	 9.02749547707559E-0002	
 1.76450000000000E+0003	 8.91434746798843E-0002	
 1.76650000000000E+0003	 8.82189945890128E-0002	
 1.76850000000000E+0003	 8.71265144981413E-0002	
 1.77050000000000E+0003	 8.60385344072697E-0002	
 1.77250000000000E+0003	 8.51770543163982E-0002	
 1.77450000000000E+0003	 8.43945742255266E-0002	
 1.77650000000000E+0003	 8.43995941346551E-0002	
 1.77850000000000E+0003	 8.44171140437836E-0002	
 1.78050000000000E+0003	 8.40406339529120E-0002	
 1.78250000000000E+0003	 8.35486538620405E-0002	
 1.78450000000000E+0003	 8.29326737711689E-0002	
 1.78650000000000E+0003	 8.25706936802974E-0002	
 1.78850000000000E+0003	 8.21862135894259E-0002	
 1.79050000000000E+0003	 8.16257334985543E-0002	
 1.79250000000000E+0003	 8.10152534076828E-0002	
 1.79450000000000E+0003	 8.05432733168112E-0002	
 1.79650000000000E+0003	 8.05677932259397E-0002	
 1.79850000000000E+0003	 8.05578131350682E-0002	
 1.80050000000000E+0003	 8.01553330441966E-0002	
 1.80250000000000E+0003	 7.98103529533251E-0002	
 1.80450000000000E+0003	 7.95973728624535E-0002	
 1.80650000000000E+0003	 7.94573927715820E-0002	
 1.80850000000000E+0003	 7.92044126807105E-0002	
 1.81050000000000E+0003	 7.89664325898389E-0002	
 1.81250000000000E+0003	 7.87569524989674E-0002	
 1.81450000000000E+0003	 7.85074724080958E-0002	
 1.81650000000000E+0003	 7.82964923172243E-0002	
 1.81850000000000E+0003	 7.81235122263527E-0002	
 1.82050000000000E+0003	 7.79220321354812E-0002	
 1.82250000000000E+0003	 7.76350520446097E-0002	
 1.82450000000000E+0003	 7.73090719537381E-0002	
 1.82650000000000E+0003	 7.70540918628666E-0002	
 1.82850000000000E+0003	 7.67451117719950E-0002	
 1.83050000000000E+0003	 7.67616316811235E-0002	
 1.83250000000000E+0003	 7.65351515902520E-0002	
 1.83450000000000E+0003	 7.65126714993804E-0002	
 1.83650000000000E+0003	 7.65836914085089E-0002	
 1.83850000000000E+0003	 7.64992113176373E-0002	
 1.84050000000000E+0003	 7.62497312267658E-0002	
 1.84250000000000E+0003	 7.57267511358943E-0002	
 1.84450000000000E+0003	 7.52337710450227E-0002	
 1.84650000000000E+0003	 7.50337909541512E-0002	
 1.84850000000000E+0003	 7.54183108632796E-0002	
 1.85050000000000E+0003	 7.57353307724081E-0002	
 1.85250000000000E+0003	 7.56953506815366E-0002	
 1.85450000000000E+0003	 7.56383705906650E-0002	
 1.85650000000000E+0003	 7.55358904997935E-0002	
 1.85850000000000E+0003	 7.54504104089219E-0002	
 1.86050000000000E+0003	 7.53629303180504E-0002	
 1.86250000000000E+0003	 7.52829502271789E-0002	
 1.86450000000000E+0003	 7.51554701363073E-0002	
 1.86650000000000E+0003	 7.49494900454358E-0002	
 1.86850000000000E+0003	 7.47985099545642E-0002	
 1.87050000000000E+0003	 7.46695298636927E-0002	
 1.87250000000000E+0003	 7.46160497728211E-0002	
 1.87450000000000E+0003	 7.48360696819496E-0002	
 1.87650000000000E+0003	 7.48960895910781E-0002	
 1.87850000000000E+0003	 7.48516095002065E-0002	
 1.88050000000000E+0003	 7.48066294093350E-0002	
 1.88250000000000E+0003	 7.47611493184634E-0002	
 1.88450000000000E+0003	 7.47311692275919E-0002	
 1.88650000000000E+0003	 7.46426891367204E-0002	
 1.88850000000000E+0003	 7.45107090458488E-0002	
 1.89050000000000E+0003	 7.45247289549773E-0002	
 1.89250000000000E+0003	 7.44347488641057E-0002	
 1.89450000000000E+0003	 7.44627687732342E-0002	
 1.89650000000000E+0003	 7.45427886823627E-0002	
 1.89850000000000E+0003	 7.44958085914911E-0002	
 1.90050000000000E+0003	 7.44848285006196E-0002	
 1.90250000000000E+0003	 7.44813484097480E-0002	
 1.90450000000000E+0003	 7.44628683188765E-0002	
 1.90650000000000E+0003	 7.44178882280050E-0002	
 1.90850000000000E+0003	 7.43984081371334E-0002	
 1.91050000000000E+0003	 7.44364280462619E-0002	
 1.91250000000000E+0003	 7.44179479553903E-0002	
 1.91450000000000E+0003	 7.43639678645188E-0002	
 1.91650000000000E+0003	 7.42109877736473E-0002	
 1.91850000000000E+0003	 7.41325076827757E-0002	
 1.92050000000000E+0003	 7.40610275919042E-0002	
 1.92250000000000E+0003	 7.42175475010326E-0002	
 1.92450000000000E+0003	 7.44410674101611E-0002	
 1.92650000000000E+0003	 7.44245873192895E-0002	
 1.92850000000000E+0003	 7.44751072284180E-0002	
 1.93050000000000E+0003	 7.45091271375465E-0002	
 1.93250000000000E+0003	 7.45226470466749E-0002	
 1.93450000000000E+0003	 7.45451669558034E-0002	
 1.93650000000000E+0003	 7.45621868649318E-0002	
 1.93850000000000E+0003	 7.45642067740603E-0002	
 1.94050000000000E+0003	 7.44832266831888E-0002	
 1.94250000000000E+0003	 7.45097465923172E-0002	
 1.94450000000000E+0003	 7.45732665014457E-0002	
 1.94650000000000E+0003	 7.46007864105741E-0002	
 1.94850000000000E+0003	 7.47003063197026E-0002	
 1.95050000000000E+0003	 7.47428262288311E-0002	
 1.95250000000000E+0003	 7.47803461379595E-0002	
 1.95450000000000E+0003	 7.48148660470880E-0002	
 1.95650000000000E+0003	 7.48628859562164E-0002	
 1.95850000000000E+0003	 7.48964058653449E-0002	
 1.96050000000000E+0003	 7.49364257744734E-0002	
 1.96250000000000E+0003	 7.49744456836018E-0002	
 1.96450000000000E+0003	 7.49639655927303E-0002	
 1.96650000000000E+0003	 7.49874855018587E-0002	
 1.96850000000000E+0003	 7.50675054109872E-0002	
 1.97050000000000E+0003	 7.50855253201157E-0002	
 1.97250000000000E+0003	 7.51410452292441E-0002	
 1.97450000000000E+0003	 7.52020651383726E-0002	
 1.97650000000000E+0003	 7.52400850475010E-0002	
 1.97850000000000E+0003	 7.52766049566295E-0002	
 1.98050000000000E+0003	 7.53146248657580E-0002	
 1.98250000000000E+0003	 7.53556447748864E-0002	
 1.98450000000000E+0003	 7.53936646840149E-0002	
 1.98650000000000E+0003	 7.54166845931433E-0002	
 1.98850000000000E+0003	 7.54402045022718E-0002	
 1.99050000000000E+0003	 7.54232244114002E-0002	
 1.99250000000000E+0003	 7.54847443205287E-0002	
 1.99450000000000E+0003	 7.55557642296572E-0002	
 1.99650000000000E+0003	 7.56077841387856E-0002	
 1.99850000000000E+0003	 7.57073040479141E-0002	
 2.00050000000000E+0003	 7.57693239570425E-0002	
 2.00250000000000E+0003	 7.58218438661710E-0002	
 2.00450000000000E+0003	 7.58748637752995E-0002	
 2.00650000000000E+0003	 7.59313836844279E-0002	
 2.00850000000000E+0003	 7.59949035935564E-0002	
 2.01050000000000E+0003	 7.60649235026848E-0002	
 2.01250000000000E+0003	 7.61289434118133E-0002	
 2.01450000000000E+0003	 7.61664633209418E-0002	
 2.01650000000000E+0003	 7.62209832300702E-0002	
 2.01850000000000E+0003	 7.63190031391987E-0002	
 2.02050000000000E+0003	 7.63870230483271E-0002	
 2.02250000000000E+0003	 7.64720429574556E-0002	
 2.02450000000000E+0003	 7.65620628665841E-0002	
 2.02650000000000E+0003	 7.66415827757125E-0002	
 2.02850000000000E+0003	 7.67181026848410E-0002	
 2.03050000000000E+0003	 7.67916225939694E-0002	
 2.03250000000000E+0003	 7.68626425030979E-0002	
 2.03450000000000E+0003	 7.69326624122264E-0002	
 2.03650000000000E+0003	 7.70011823213548E-0002	
 2.03850000000000E+0003	 7.70597022304833E-0002	
 2.04050000000000E+0003	 7.71127221396117E-0002	
 2.04250000000000E+0003	 7.71887420487402E-0002	
 2.04450000000000E+0003	 7.72512619578686E-0002	
 2.04650000000000E+0003	 7.73082818669971E-0002	
 2.04850000000000E+0003	 7.73673017761256E-0002	
 2.05050000000000E+0003	 7.74263216852540E-0002	
 2.05250000000000E+0003	 7.74823415943825E-0002	
 2.05450000000000E+0003	 7.75298615035109E-0002	
 2.05650000000000E+0003	 7.75698814126394E-0002	
 2.05850000000000E+0003	 7.76074013217679E-0002	
 2.06050000000000E+0003	 7.76479212308963E-0002	
 2.06250000000000E+0003	 7.76734411400248E-0002	
 2.06450000000000E+0003	 7.77059610491532E-0002	
 2.06650000000000E+0003	 7.77679809582817E-0002	
 2.06850000000000E+0003	 7.78085008674102E-0002	
 2.07050000000000E+0003	 7.78550207765386E-0002	
 2.07250000000000E+0003	 7.78995406856671E-0002	
 2.07450000000000E+0003	 7.79410605947955E-0002	
 2.07650000000000E+0003	 7.79790805039240E-0002	
 2.07850000000000E+0003	 7.80111004130525E-0002	
 2.08050000000000E+0003	 7.80391203221809E-0002	
 2.08250000000000E+0003	 7.80681402313094E-0002	
 2.08450000000000E+0003	 7.80966601404378E-0002	
 2.08650000000000E+0003	 7.81201800495663E-0002	
 2.08850000000000E+0003	 7.81391999586948E-0002	
 2.09050000000000E+0003	 7.81697198678232E-0002	
 2.09250000000000E+0003	 7.82007397769517E-0002	
 2.09450000000000E+0003	 7.82242596860801E-0002	
 2.09650000000000E+0003	 7.82512795952086E-0002	
 2.09850000000000E+0003	 7.82722995043371E-0002	
 2.10050000000000E+0003	 7.82928194134655E-0002	
 2.10250000000000E+0003	 7.83103393225940E-0002	
 2.10450000000000E+0003	 7.83253592317224E-0002	
 2.10650000000000E+0003	 7.83428791408509E-0002	
 2.10850000000000E+0003	 7.83578990499793E-0002	
 2.11050000000000E+0003	 7.83664189591078E-0002	
 2.11250000000000E+0003	 7.83729388682363E-0002	
 2.11450000000000E+0003	 7.83814587773647E-0002	
 2.11650000000000E+0003	 7.83919786864932E-0002	
 2.11850000000000E+0003	 7.83954985956216E-0002	
 2.12050000000000E+0003	 7.84030185047501E-0002	
 2.12250000000000E+0003	 7.84095384138786E-0002	
 2.12450000000000E+0003	 7.84135583230070E-0002	
 2.12650000000000E+0003	 7.84165782321355E-0002	
 2.12850000000000E+0003	 7.84165981412639E-0002	
 2.13050000000000E+0003	 7.84161180503924E-0002	
 2.13250000000000E+0003	 7.84131379595209E-0002	
 2.13450000000000E+0003	 7.84091578686493E-0002	
 2.13650000000000E+0003	 7.84086777777778E-0002	
 2.13850000000000E+0003	 7.84071976869062E-0002	
 2.14050000000000E+0003	 7.84032175960347E-0002	
 2.14250000000000E+0003	 7.84012375051632E-0002	
 2.14450000000000E+0003	 7.83967574142916E-0002	
 2.14650000000000E+0003	 7.83882773234201E-0002	
 2.14850000000000E+0003	 7.83782972325485E-0002	
 2.15050000000000E+0003	 7.83663171416770E-0002	
 2.15250000000000E+0003	 7.83498370508055E-0002	
 2.15450000000000E+0003	 7.83293569599339E-0002	
 2.15650000000000E+0003	 7.83083768690624E-0002	
 2.15850000000000E+0003	 7.82843967781908E-0002	
 2.16050000000000E+0003	 7.82574166873193E-0002	
 2.16250000000000E+0003	 7.82294365964477E-0002	
 2.16450000000000E+0003	 7.81979565055762E-0002	
 2.16650000000000E+0003	 7.81719764147047E-0002	
 2.16850000000000E+0003	 7.81554963238331E-0002	
 2.17050000000000E+0003	 7.81260162329616E-0002	
 2.17250000000000E+0003	 7.80805361420900E-0002	
 2.17450000000000E+0003	 7.80380560512185E-0002	
 2.17650000000000E+0003	 7.80025759603470E-0002	
 2.17850000000000E+0003	 7.79670958694754E-0002	
 2.18050000000000E+0003	 7.79331157786039E-0002	
 2.18250000000000E+0003	 7.79006356877323E-0002	
 2.18450000000000E+0003	 7.78656555968608E-0002	
 2.18650000000000E+0003	 7.78331755059893E-0002	
 2.18850000000000E+0003	 7.78041954151177E-0002	
 2.19050000000000E+0003	 7.77727153242462E-0002	
 2.19250000000000E+0003	 7.77377352333746E-0002	
 2.19450000000000E+0003	 7.77037551425031E-0002	
 2.19650000000000E+0003	 7.76722750516316E-0002	
 2.19850000000000E+0003	 7.76447949607600E-0002	
 2.20050000000000E+0003	 7.76163148698885E-0002	
 2.20250000000000E+0003	 7.75848347790169E-0002	
 2.20450000000000E+0003	 7.75523546881454E-0002	
 2.20650000000000E+0003	 7.75203745972739E-0002	
 2.20850000000000E+0003	 7.74913945064023E-0002	
 2.21050000000000E+0003	 7.74629144155308E-0002	
 2.21250000000000E+0003	 7.74344343246592E-0002	
 2.21450000000000E+0003	 7.74044542337877E-0002	
 2.21650000000000E+0003	 7.73749741429162E-0002	
 2.21850000000000E+0003	 7.73484940520446E-0002	
 2.22050000000000E+0003	 7.73225139611731E-0002	
 2.22250000000000E+0003	 7.72980338703015E-0002	
 2.22450000000000E+0003	 7.72720537794300E-0002	
 2.22650000000000E+0003	 7.72430736885584E-0002	
 2.22850000000000E+0003	 7.72170935976869E-0002	
 2.23050000000000E+0003	 7.71941135068154E-0002	
 2.23250000000000E+0003	 7.71726334159438E-0002	
 2.23450000000000E+0003	 7.71491533250723E-0002	
 2.23650000000000E+0003	 7.71291732342007E-0002	
 2.23850000000000E+0003	 7.71136931433292E-0002	
 2.24050000000000E+0003	 7.70967130524577E-0002	
 2.24250000000000E+0003	 7.70742329615861E-0002	
 2.24450000000000E+0003	 7.70547528707146E-0002	
 2.24650000000000E+0003	 7.70372727798430E-0002	
 2.24850000000000E+0003	 7.70172926889715E-0002	
 2.25050000000000E+0003	 7.69998125981000E-0002	
 2.25250000000000E+0003	 7.69858325072284E-0002	
 2.25450000000000E+0003	 7.69728524163569E-0002	
 2.25650000000000E+0003	 7.69613723254853E-0002	
 2.25850000000000E+0003	 7.69473922346138E-0002	
 2.26050000000000E+0003	 7.69314121437423E-0002	
 2.26250000000000E+0003	 7.69144320528707E-0002	
 2.26450000000000E+0003	 7.69009519619992E-0002	
 2.26650000000000E+0003	 7.68924718711276E-0002	
 2.26850000000000E+0003	 7.68854917802561E-0002	
 2.27050000000000E+0003	 7.68750116893846E-0002	
 2.27250000000000E+0003	 7.68665315985130E-0002	
 2.27450000000000E+0003	 7.68580515076415E-0002	
 2.27650000000000E+0003	 7.68490714167699E-0002	
 2.27850000000000E+0003	 7.68390913258984E-0002	
 2.28050000000000E+0003	 7.68286112350268E-0002	
 2.28250000000000E+0003	 7.68141311441553E-0002	
 2.28450000000000E+0003	 7.68086510532838E-0002	
 2.28650000000000E+0003	 7.68146709624122E-0002	
 2.28850000000000E+0003	 7.68191908715407E-0002	
 2.29050000000000E+0003	 7.68177107806691E-0002	
 2.29250000000000E+0003	 7.68152306897976E-0002	
 2.29450000000000E+0003	 7.68142505989261E-0002	
 2.29650000000000E+0003	 7.68142705080545E-0002	
 2.29850000000000E+0003	 7.68162904171830E-0002	
 2.30050000000000E+0003	 7.68243103263114E-0002	
 2.30250000000000E+0003	 7.68283302354399E-0002	
 2.30450000000000E+0003	 7.68208501445684E-0002	
 2.30650000000000E+0003	 7.68173700536968E-0002	
 2.30850000000000E+0003	 7.68263899628253E-0002	
 2.31050000000000E+0003	 7.68384098719537E-0002	
 2.31250000000000E+0003	 7.68599297810822E-0002	
 2.31450000000000E+0003	 7.68839496902107E-0002	
 2.31650000000000E+0003	 7.68899695993391E-0002	
 2.31850000000000E+0003	 7.68944895084676E-0002	
 2.32050000000000E+0003	 7.69015094175960E-0002	
 2.32250000000000E+0003	 7.69185293267245E-0002	
 2.32450000000000E+0003	 7.69370492358530E-0002	
 2.32650000000000E+0003	 7.69205691449814E-0002	
 2.32850000000000E+0003	 7.69080890541099E-0002	
 2.33050000000000E+0003	 7.69046089632383E-0002	
 2.33250000000000E+0003	 7.69101288723668E-0002	
 2.33450000000000E+0003	 7.69486487814952E-0002	
 2.33650000000000E+0003	 7.70146686906237E-0002	
 2.33850000000000E+0003	 7.70576885997522E-0002	
 2.34050000000000E+0003	 7.70992085088806E-0002	
 2.34250000000000E+0003	 7.71282284180091E-0002	
 2.34450000000000E+0003	 7.71317483271375E-0002	
 2.34650000000000E+0003	 7.70252682362660E-0002	
 2.34850000000000E+0003	 7.67507881453945E-0002	
 2.35050000000000E+0003	 7.67628080545229E-0002	
 2.35250000000000E+0003	 7.70083279636514E-0002	
 2.35450000000000E+0003	 7.70913478727798E-0002	
 2.35650000000000E+0003	 7.71453677819083E-0002	
 2.35850000000000E+0003	 7.71868876910368E-0002	
 2.36050000000000E+0003	 7.72024076001652E-0002	
 2.36250000000000E+0003	 7.72229275092937E-0002	
 2.36450000000000E+0003	 7.72744474184221E-0002	
 2.36650000000000E+0003	 7.73289673275506E-0002	
 2.36850000000000E+0003	 7.73984872366791E-0002	
 2.37050000000000E+0003	 7.74795071458075E-0002	
 2.37250000000000E+0003	 7.75555270549360E-0002	
 2.37450000000000E+0003	 7.76025469640644E-0002	
 2.37650000000000E+0003	 7.76520668731929E-0002	
 2.37850000000000E+0003	 7.77130867823214E-0002	
 2.38050000000000E+0003	 7.77761066914498E-0002	
 2.38250000000000E+0003	 7.78396266005783E-0002	
 2.38450000000000E+0003	 7.79081465097067E-0002	
 2.38650000000000E+0003	 7.79771664188352E-0002	
 2.38850000000000E+0003	 7.80431863279637E-0002	
 2.39050000000000E+0003	 7.81062062370921E-0002	
 2.39250000000000E+0003	 7.81702261462206E-0002	
 2.39450000000000E+0003	 7.82327460553490E-0002	
 2.39650000000000E+0003	 7.82957659644775E-0002	
 2.39850000000000E+0003	 7.83577858736059E-0002	
 2.40050000000000E+0003	 7.84223057827344E-0002	
 2.40250000000000E+0003	 7.84913256918629E-0002	
 2.40450000000000E+0003	 7.85648456009913E-0002	
 2.40650000000000E+0003	 7.86393655101198E-0002	
 2.40850000000000E+0003	 7.87163854192482E-0002	
 2.41050000000000E+0003	 7.87954053283767E-0002	
 2.41250000000000E+0003	 7.88774252375052E-0002	
 2.41450000000000E+0003	 7.89619451466336E-0002	
 2.41650000000000E+0003	 7.90479650557621E-0002	
 2.41850000000000E+0003	 7.91349849648905E-0002	
 2.42050000000000E+0003	 7.92280048740190E-0002	
 2.42250000000000E+0003	 7.93235247831475E-0002	
 2.42450000000000E+0003	 7.94220446922759E-0002	
 2.42650000000000E+0003	 7.95220646014044E-0002	
 2.42850000000000E+0003	 7.96200845105328E-0002	
 2.43050000000000E+0003	 7.97171044196613E-0002	
 2.43250000000000E+0003	 7.98201243287898E-0002	
 2.43450000000000E+0003	 7.99246442379182E-0002	
 2.43650000000000E+0003	 8.00296641470467E-0002	
 2.43850000000000E+0003	 8.01331840561751E-0002	
 2.44050000000000E+0003	 8.02397039653036E-0002	
 2.44250000000000E+0003	 8.03472238744321E-0002	
 2.44450000000000E+0003	 8.04557437835605E-0002	
 2.44650000000000E+0003	 8.05617636926890E-0002	
 2.44850000000000E+0003	 8.06677836018174E-0002	
 2.45050000000000E+0003	 8.07748035109459E-0002	
 2.45250000000000E+0003	 8.08848234200743E-0002	
 2.45450000000000E+0003	 8.09948433292028E-0002	
 2.45650000000000E+0003	 8.11048632383313E-0002	
 2.45850000000000E+0003	 8.12173831474597E-0002	
 2.46050000000000E+0003	 8.13364030565882E-0002	
 2.46250000000000E+0003	 8.14574229657166E-0002	
 2.46450000000000E+0003	 8.15794428748451E-0002	
 2.46650000000000E+0003	 8.16994627839736E-0002	
 2.46850000000000E+0003	 8.18204826931020E-0002	
 2.47050000000000E+0003	 8.19440026022305E-0002	
 2.47250000000000E+0003	 8.20710225113589E-0002	
 2.47450000000000E+0003	 8.21960424204874E-0002	
 2.47650000000000E+0003	 8.23195623296159E-0002	
 2.47850000000000E+0003	 8.24440822387443E-0002	
 2.48050000000000E+0003	 8.25681021478728E-0002	
 2.48250000000000E+0003	 8.26891220570012E-0002	
 2.48450000000000E+0003	 8.28111419661297E-0002	
 2.48650000000000E+0003	 8.29336618752582E-0002	
 2.48850000000000E+0003	 8.30561817843866E-0002	
 2.49050000000000E+0003	 8.31782016935151E-0002	
 2.49250000000000E+0003	 8.33002216026435E-0002	
 2.49450000000000E+0003	 8.34207415117720E-0002	
 2.49650000000000E+0003	 8.35422614209005E-0002	
 2.49850000000000E+0003	 8.36637813300289E-0002	
 2.50050000000000E+0003	 8.37848012391574E-0002	
 2.50250000000000E+0003	 8.39068211482858E-0002	
 2.50450000000000E+0003	 8.40283410574143E-0002	
 2.50650000000000E+0003	 8.41463609665428E-0002	
 2.50850000000000E+0003	 8.42643808756712E-0002	
 2.51050000000000E+0003	 8.43799007847997E-0002	
 2.51250000000000E+0003	 8.44914206939281E-0002	
 2.51450000000000E+0003	 8.46009406030566E-0002	
 2.51650000000000E+0003	 8.47079605121850E-0002	
 2.51850000000000E+0003	 8.48139804213135E-0002	
 2.52050000000000E+0003	 8.49215003304420E-0002	
 2.52250000000000E+0003	 8.50260202395704E-0002	
 2.52450000000000E+0003	 8.51295401486989E-0002	
 2.52650000000000E+0003	 8.52340600578273E-0002	
 2.52850000000000E+0003	 8.53415799669558E-0002	
 2.53050000000000E+0003	 8.54480998760843E-0002	
 2.53250000000000E+0003	 8.55571197852127E-0002	
 2.53450000000000E+0003	 8.56646396943412E-0002	
 2.53650000000000E+0003	 8.57721596034696E-0002	
 2.53850000000000E+0003	 8.58831795125981E-0002	
 2.54050000000000E+0003	 8.59981994217266E-0002	
 2.54250000000000E+0003	 8.61122193308550E-0002	
 2.54450000000000E+0003	 8.62257392399835E-0002	
 2.54650000000000E+0003	 8.63417591491119E-0002	
 2.54850000000000E+0003	 8.64612790582404E-0002	
 2.55050000000000E+0003	 8.65807989673689E-0002	
 2.55250000000000E+0003	 8.67003188764973E-0002	
 2.55450000000000E+0003	 8.68188387856258E-0002	
 2.55650000000000E+0003	 8.69363586947542E-0002	
 2.55850000000000E+0003	 8.70533786038827E-0002	
 2.56050000000000E+0003	 8.71733985130112E-0002	
 2.56250000000000E+0003	 8.72924184221396E-0002	
 2.56450000000000E+0003	 8.74124383312681E-0002	
 2.56650000000000E+0003	 8.75324582403965E-0002	
 2.56850000000000E+0003	 8.76569781495250E-0002	
 2.57050000000000E+0003	 8.77824980586534E-0002	
 2.57250000000000E+0003	 8.79090179677819E-0002	
 2.57450000000000E+0003	 8.80395378769104E-0002	
 2.57650000000000E+0003	 8.81745577860388E-0002	
 2.57850000000000E+0003	 8.83135776951673E-0002	
 2.58050000000000E+0003	 8.84570976042957E-0002	
 2.58250000000000E+0003	 8.86036175134242E-0002	
 2.58450000000000E+0003	 8.87506374225527E-0002	
 2.58650000000000E+0003	 8.88996573316811E-0002	
 2.58850000000000E+0003	 8.90551772408096E-0002	
 2.59050000000000E+0003	 8.92126971499380E-0002	
 2.59250000000000E+0003	 8.93692170590665E-0002	
 2.59450000000000E+0003	 8.95292369681950E-0002	
 2.59650000000000E+0003	 8.96952568773234E-0002	
 2.59850000000000E+0003	 8.98637767864519E-0002	
 2.60050000000000E+0003	 9.00352966955803E-0002	
 2.60250000000000E+0003	 9.02073166047088E-0002	
 2.60450000000000E+0003	 9.03808365138373E-0002	
 2.60650000000000E+0003	 9.05573564229657E-0002	
 2.60850000000000E+0003	 9.07373763320942E-0002	
 2.61050000000000E+0003	 9.09193962412226E-0002	
 2.61250000000000E+0003	 9.11009161503511E-0002	
 2.61450000000000E+0003	 9.12829360594796E-0002	
 2.61650000000000E+0003	 9.14719559686080E-0002	
 2.61850000000000E+0003	 9.16624758777365E-0002	
 2.62050000000000E+0003	 9.18549957868649E-0002	
 2.62250000000000E+0003	 9.20515156959934E-0002	
 2.62450000000000E+0003	 9.22515356051219E-0002	
 2.62650000000000E+0003	 9.24530555142503E-0002	
 2.62850000000000E+0003	 9.26560754233788E-0002	
 2.63050000000000E+0003	 9.28595953325072E-0002	
 2.63250000000000E+0003	 9.30661152416357E-0002	
 2.63450000000000E+0003	 9.32751351507641E-0002	
 2.63650000000000E+0003	 9.34826550598926E-0002	
 2.63850000000000E+0003	 9.36901749690211E-0002	
 2.64050000000000E+0003	 9.39041948781495E-0002	
 2.64250000000000E+0003	 9.41227147872780E-0002	
 2.64450000000000E+0003	 9.43407346964064E-0002	
 2.64650000000000E+0003	 9.45577546055349E-0002	
 2.64850000000000E+0003	 9.47782745146634E-0002	
 2.65050000000000E+0003	 9.50007944237918E-0002	
 2.65250000000000E+0003	 9.52268143329203E-0002	
 2.65450000000000E+0003	 9.54518342420487E-0002	
 2.65650000000000E+0003	 9.56743541511772E-0002	
 2.65850000000000E+0003	 9.58973740603057E-0002	
 2.66050000000000E+0003	 9.61228939694341E-0002	
 2.66250000000000E+0003	 9.63484138785626E-0002	
 2.66450000000000E+0003	 9.65774337876910E-0002	
 2.66650000000000E+0003	 9.68074536968195E-0002	
 2.66850000000000E+0003	 9.70354736059480E-0002	
 2.67050000000000E+0003	 9.72604935150764E-0002	
 2.67250000000000E+0003	 9.74865134242049E-0002	
 2.67450000000000E+0003	 9.77105333333333E-0002	
 2.67650000000000E+0003	 9.79310532424618E-0002	
 2.67850000000000E+0003	 9.81535731515903E-0002	
 2.68050000000000E+0003	 9.83785930607187E-0002	
 2.68250000000000E+0003	 9.85981129698472E-0002	
 2.68450000000000E+0003	 9.88141328789756E-0002	
 2.68650000000000E+0003	 9.90311527881041E-0002	
 2.68850000000000E+0003	 9.92456726972325E-0002	
 2.69050000000000E+0003	 9.94581926063610E-0002	
 2.69250000000000E+0003	 9.96707125154895E-0002	
 2.69450000000000E+0003	 9.98847324246179E-0002	
 2.69650000000000E+0003	 1.00101752333746E-0001	
 2.69850000000000E+0003	 1.00320272242875E-0001	
 2.70050000000000E+0003	 1.00543792152003E-0001	
 2.70250000000000E+0003	 1.00770812061132E-0001	
 2.70450000000000E+0003	 1.01002331970260E-0001	
 2.70650000000000E+0003	 1.01238851879389E-0001	
 2.70850000000000E+0003	 1.01478371788517E-0001	
 2.71050000000000E+0003	 1.01725891697646E-0001	
 2.71250000000000E+0003	 1.01985411606774E-0001	
 2.71450000000000E+0003	 1.02249931515903E-0001	
 2.71650000000000E+0003	 1.02516951425031E-0001	
 2.71850000000000E+0003	 1.02788971334159E-0001	
 2.72050000000000E+0003	 1.03065491243288E-0001	
 2.72250000000000E+0003	 1.03346511152416E-0001	
 2.72450000000000E+0003	 1.03627031061545E-0001	
 2.72650000000000E+0003	 1.03913050970673E-0001	
 2.72850000000000E+0003	 1.04199570879802E-0001	
 2.73050000000000E+0003	 1.04473590788930E-0001	
 2.73250000000000E+0003	 1.04741110698059E-0001	
 2.73450000000000E+0003	 1.05007130607187E-0001	
 2.73650000000000E+0003	 1.05273150516316E-0001	
 2.73850000000000E+0003	 1.05536670425444E-0001	
 2.74050000000000E+0003	 1.05794190334572E-0001	
 2.74250000000000E+0003	 1.06047210243701E-0001	
 2.74450000000000E+0003	 1.06297730152829E-0001	
 2.74650000000000E+0003	 1.06550750061958E-0001	
 2.74850000000000E+0003	 1.06807769971086E-0001	
 2.75050000000000E+0003	 1.07064789880215E-0001	
 2.75250000000000E+0003	 1.07323809789343E-0001	
 2.75450000000000E+0003	 1.07584329698472E-0001	
 2.75650000000000E+0003	 1.07851349607600E-0001	
 2.75850000000000E+0003	 1.08123869516729E-0001	
 2.76050000000000E+0003	 1.08403389425857E-0001	
 2.76250000000000E+0003	 1.08688409334986E-0001	
 2.76450000000000E+0003	 1.08976429244114E-0001	
 2.76650000000000E+0003	 1.09264949153242E-0001	
 2.76850000000000E+0003	 1.09555469062371E-0001	
 2.77050000000000E+0003	 1.09851488971499E-0001	
 2.77250000000000E+0003	 1.10155008880628E-0001	
 2.77450000000000E+0003	 1.10472028789756E-0001	
 2.77650000000000E+0003	 1.10797048698885E-0001	
 2.77850000000000E+0003	 1.11121068608013E-0001	
 2.78050000000000E+0003	 1.11453088517142E-0001	
 2.78250000000000E+0003	 1.11797608426270E-0001	
 2.78450000000000E+0003	 1.12146128335399E-0001	
 2.78650000000000E+0003	 1.12495648244527E-0001	
 2.78850000000000E+0003	 1.12861168153656E-0001	
 2.79050000000000E+0003	 1.13241688062784E-0001	
 2.79250000000000E+0003	 1.13627207971912E-0001	
 2.79450000000000E+0003	 1.14015727881041E-0001	
 2.79650000000000E+0003	 1.14411747790169E-0001	
 2.79850000000000E+0003	 1.14822267699298E-0001	
 2.80050000000000E+0003	 1.15237287608426E-0001	
 2.80250000000000E+0003	 1.15653307517555E-0001	
 2.80450000000000E+0003	 1.16079327426683E-0001	
 2.80650000000000E+0003	 1.16512347335812E-0001	
 2.80850000000000E+0003	 1.16957367244940E-0001	
 2.81050000000000E+0003	 1.17417887154069E-0001	
 2.81250000000000E+0003	 1.17887407063197E-0001	
 2.81450000000000E+0003	 1.18363426972325E-0001	
 2.81650000000000E+0003	 1.18850946881454E-0001	
 2.81850000000000E+0003	 1.19350966790582E-0001	
 2.82050000000000E+0003	 1.19868486699711E-0001	
 2.82250000000000E+0003	 1.20405006608839E-0001	
 2.82450000000000E+0003	 1.20965026517968E-0001	
 2.82650000000000E+0003	 1.21546046427096E-0001	
 2.82850000000000E+0003	 1.22147566336225E-0001	
 2.83050000000000E+0003	 1.22782086245353E-0001	
 2.83250000000000E+0003	 1.23465106154482E-0001	
 2.83450000000000E+0003	 1.24212126063610E-0001	
 2.83650000000000E+0003	 1.25048145972739E-0001	
 2.83850000000000E+0003	 1.26025165881867E-0001	
 2.84050000000000E+0003	 1.27193185790995E-0001	
 2.84250000000000E+0003	 1.28621205700124E-0001	
 2.84450000000000E+0003	 1.30374725609252E-0001	
 2.84650000000000E+0003	 1.32464745518381E-0001	
 2.84850000000000E+0003	 1.34828265427509E-0001	
 2.85050000000000E+0003	 1.37218285336638E-0001	
 2.85250000000000E+0003	 1.39257305245766E-0001	
 2.85450000000000E+0003	 1.40639825154895E-0001	
 2.85650000000000E+0003	 1.41356345064023E-0001	
 2.85850000000000E+0003	 1.41675864973152E-0001	
 2.86050000000000E+0003	 1.41924884882280E-0001	
 2.86250000000000E+0003	 1.42324404791409E-0001	
 2.86450000000000E+0003	 1.42988924700537E-0001	
 2.86650000000000E+0003	 1.43930944609665E-0001	
 2.86850000000000E+0003	 1.45075964518794E-0001	
 2.87050000000000E+0003	 1.46285484427922E-0001	
 2.87250000000000E+0003	 1.47402004337051E-0001	
 2.87450000000000E+0003	 1.48252524246179E-0001	
 2.87650000000000E+0003	 1.48764544155308E-0001	
 2.87850000000000E+0003	 1.49035064064436E-0001	
 2.88050000000000E+0003	 1.49194083973565E-0001	
 2.88250000000000E+0003	 1.49335103882693E-0001	
 2.88450000000000E+0003	 1.49540123791822E-0001	
 2.88650000000000E+0003	 1.49863143700950E-0001	
 2.88850000000000E+0003	 1.50315663610078E-0001	
 2.89050000000000E+0003	 1.50897183519207E-0001	
 2.89250000000000E+0003	 1.51596703428335E-0001	
 2.89450000000000E+0003	 1.52390723337464E-0001	
 2.89650000000000E+0003	 1.53266243246592E-0001	
 2.89850000000000E+0003	 1.54219263155721E-0001	
 2.90050000000000E+0003	 1.55272783064849E-0001	
 2.90250000000000E+0003	 1.56443802973978E-0001	
 2.90450000000000E+0003	 1.57760322883106E-0001	
 2.90650000000000E+0003	 1.59266842792235E-0001	
 2.90850000000000E+0003	 1.61007362701363E-0001	
 2.91050000000000E+0003	 1.63015882610492E-0001	
 2.91250000000000E+0003	 1.65325902519620E-0001	
 2.91450000000000E+0003	 1.67919422428748E-0001	
 2.91650000000000E+0003	 1.70714442337877E-0001	
 2.91850000000000E+0003	 1.73576462247005E-0001	
 2.92050000000000E+0003	 1.76273982156134E-0001	
 2.92250000000000E+0003	 1.78559002065262E-0001	
 2.92450000000000E+0003	 1.80266021974391E-0001	
 2.92650000000000E+0003	 1.81371041883519E-0001	
 2.92850000000000E+0003	 1.81973561792648E-0001	
 2.93050000000000E+0003	 1.82153081701776E-0001	
 2.93250000000000E+0003	 1.81944601610905E-0001	
 2.93450000000000E+0003	 1.81393121520033E-0001	
 2.93650000000000E+0003	 1.80494141429162E-0001	
 2.93850000000000E+0003	 1.79250661338290E-0001	
 2.94050000000000E+0003	 1.77753181247418E-0001	
 2.94250000000000E+0003	 1.76159701156547E-0001	
 2.94450000000000E+0003	 1.74622221065675E-0001	
 2.94650000000000E+0003	 1.73270740974804E-0001	
 2.94850000000000E+0003	 1.72237260883932E-0001	
 2.95050000000000E+0003	 1.71641280793061E-0001	
 2.95250000000000E+0003	 1.71494300702189E-0001	
 2.95450000000000E+0003	 1.71637820611318E-0001	
 2.95650000000000E+0003	 1.71891840520446E-0001	
 2.95850000000000E+0003	 1.72066360429575E-0001	
 2.96050000000000E+0003	 1.71990380338703E-0001	
 2.96250000000000E+0003	 1.71585400247831E-0001	
 2.96450000000000E+0003	 1.70837420156960E-0001	
 2.96650000000000E+0003	 1.69790440066088E-0001	
 2.96850000000000E+0003	 1.68522959975217E-0001	
 2.97050000000000E+0003	 1.67087479884345E-0001	
 2.97250000000000E+0003	 1.65547999793474E-0001	
 2.97450000000000E+0003	 1.64010019702602E-0001	
 2.97650000000000E+0003	 1.62552039611731E-0001	
 2.97850000000000E+0003	 1.61220059520859E-0001	
 2.98050000000000E+0003	 1.60004079429988E-0001	
 2.98250000000000E+0003	 1.58816599339116E-0001	
 2.98450000000000E+0003	 1.57651119248245E-0001	
 2.98650000000000E+0003	 1.56600139157373E-0001	
 2.98850000000000E+0003	 1.55690159066501E-0001	
 2.99050000000000E+0003	 1.54910178975630E-0001	
 2.99250000000000E+0003	 1.54259198884758E-0001	
 2.99450000000000E+0003	 1.53724218793887E-0001	
 2.99650000000000E+0003	 1.53338738703015E-0001	
 2.99850000000000E+0003	 1.53111258612144E-0001	
 3.00050000000000E+0003	 1.53022278521272E-0001	
 3.00250000000000E+0003	 1.53076798430401E-0001	
 3.00450000000000E+0003	 1.53256818339529E-0001	
 3.00650000000000E+0003	 1.53529338248658E-0001	
 3.00850000000000E+0003	 1.53897858157786E-0001	
 3.01050000000000E+0003	 1.54384878066914E-0001	
 3.01250000000000E+0003	 1.54956897976043E-0001	
 3.01450000000000E+0003	 1.55582417885171E-0001	
 3.01650000000000E+0003	 1.56261437794300E-0001	
 3.01850000000000E+0003	 1.57000457703428E-0001	
 3.02050000000000E+0003	 1.57816977612557E-0001	
 3.02250000000000E+0003	 1.58714997521685E-0001	
 3.02450000000000E+0003	 1.59676517430814E-0001	
 3.02650000000000E+0003	 1.60664537339942E-0001	
 3.02850000000000E+0003	 1.61664557249071E-0001	
 3.03050000000000E+0003	 1.62670077158199E-0001	
 3.03250000000000E+0003	 1.63679097067328E-0001	
 3.03450000000000E+0003	 1.64704116976456E-0001	
 3.03650000000000E+0003	 1.65731136885584E-0001	
 3.03850000000000E+0003	 1.66767656794713E-0001	
 3.04050000000000E+0003	 1.67860676703841E-0001	
 3.04250000000000E+0003	 1.69002696612970E-0001	
 3.04450000000000E+0003	 1.70149716522098E-0001	
 3.04650000000000E+0003	 1.71299736431227E-0001	
 3.04850000000000E+0003	 1.72469756340355E-0001	
 3.05050000000000E+0003	 1.73673776249484E-0001	
 3.05250000000000E+0003	 1.74897796158612E-0001	
 3.05450000000000E+0003	 1.76124816067741E-0001	
 3.05650000000000E+0003	 1.77351335976869E-0001	
 3.05850000000000E+0003	 1.78551855885998E-0001	
 3.06050000000000E+0003	 1.79707375795126E-0001	
 3.06250000000000E+0003	 1.80813895704254E-0001	
 3.06450000000000E+0003	 1.81874415613383E-0001	
 3.06650000000000E+0003	 1.82904435522511E-0001	
 3.06850000000000E+0003	 1.83906955431640E-0001	
 3.07050000000000E+0003	 1.84864975340768E-0001	
 3.07250000000000E+0003	 1.85793995249897E-0001	
 3.07450000000000E+0003	 1.86705515159025E-0001	
 3.07650000000000E+0003	 1.87612535068154E-0001	
 3.07850000000000E+0003	 1.88525054977282E-0001	
 3.08050000000000E+0003	 1.89422574886411E-0001	
 3.08250000000000E+0003	 1.90302094795539E-0001	
 3.08450000000000E+0003	 1.91182114704667E-0001	
 3.08650000000000E+0003	 1.92043634613796E-0001	
 3.08850000000000E+0003	 1.92877654522924E-0001	
 3.09050000000000E+0003	 1.93704174432053E-0001	
 3.09250000000000E+0003	 1.94514194341181E-0001	
 3.09450000000000E+0003	 1.95306214250310E-0001	
 3.09650000000000E+0003	 1.96101234159438E-0001	
 3.09850000000000E+0003	 1.96905754068567E-0001	
 3.10050000000000E+0003	 1.97728273977695E-0001	
 3.10250000000000E+0003	 1.98566293886824E-0001	
 3.10450000000000E+0003	 1.99416313795952E-0001	
 3.10650000000000E+0003	 2.00289833705081E-0001	
 3.10850000000000E+0003	 2.01201353614209E-0001	
 3.11050000000000E+0003	 2.02132873523337E-0001	
 3.11250000000000E+0003	 2.03080393432466E-0001	
 3.11450000000000E+0003	 2.04087413341594E-0001	
 3.11650000000000E+0003	 2.05154433250723E-0001	
 3.11850000000000E+0003	 2.06253953159851E-0001	
 3.12050000000000E+0003	 2.07380473068980E-0001	
 3.12250000000000E+0003	 2.08526992978108E-0001	
 3.12450000000000E+0003	 2.09710512887237E-0001	
 3.12650000000000E+0003	 2.10948032796365E-0001	
 3.12850000000000E+0003	 2.12238052705494E-0001	
 3.13050000000000E+0003	 2.13564072614622E-0001	
 3.13250000000000E+0003	 2.14909092523751E-0001	
 3.13450000000000E+0003	 2.16292112432879E-0001	
 3.13650000000000E+0003	 2.17727132342007E-0001	
 3.13850000000000E+0003	 2.19209652251136E-0001	
 3.14050000000000E+0003	 2.20712172160264E-0001	
 3.14250000000000E+0003	 2.22224192069393E-0001	
 3.14450000000000E+0003	 2.23779211978521E-0001	
 3.14650000000000E+0003	 2.25385731887650E-0001	
 3.14850000000000E+0003	 2.27044751796778E-0001	
 3.15050000000000E+0003	 2.28768771705907E-0001	
 3.15250000000000E+0003	 2.30529791615035E-0001	
 3.15450000000000E+0003	 2.32272811524164E-0001	
 3.15650000000000E+0003	 2.34027831433292E-0001	
 3.15850000000000E+0003	 2.35841351342420E-0001	
 3.16050000000000E+0003	 2.37701871251549E-0001	
 3.16250000000000E+0003	 2.39589891160677E-0001	
 3.16450000000000E+0003	 2.41504911069806E-0001	
 3.16650000000000E+0003	 2.43446430978934E-0001	
 3.16850000000000E+0003	 2.45406450888063E-0001	
 3.17050000000000E+0003	 2.47379470797191E-0001	
 3.17250000000000E+0003	 2.49362990706320E-0001	
 3.17450000000000E+0003	 2.51355010615448E-0001	
 3.17650000000000E+0003	 2.53355030524577E-0001	
 3.17850000000000E+0003	 2.55361050433705E-0001	
 3.18050000000000E+0003	 2.57364070342834E-0001	
 3.18250000000000E+0003	 2.59356090251962E-0001	
 3.18450000000000E+0003	 2.61344610161090E-0001	
 3.18650000000000E+0003	 2.63333630070219E-0001	
 3.18850000000000E+0003	 2.65312149979347E-0001	
 3.19050000000000E+0003	 2.67271169888476E-0001	
 3.19250000000000E+0003	 2.69213189797604E-0001	
 3.19450000000000E+0003	 2.71124709706733E-0001	
 3.19650000000000E+0003	 2.73013229615861E-0001	
 3.19850000000000E+0003	 2.74891249524990E-0001	
 3.20050000000000E+0003	 2.76757769434118E-0001	
 3.20250000000000E+0003	 2.78597289343247E-0001	
 3.20450000000000E+0003	 2.80415309252375E-0001	
 3.20650000000000E+0003	 2.82218829161504E-0001	
 3.20850000000000E+0003	 2.84009349070632E-0001	
 3.21050000000000E+0003	 2.85786368979760E-0001	
 3.21250000000000E+0003	 2.87562388888889E-0001	
 3.21450000000000E+0003	 2.89338908798017E-0001	
 3.21650000000000E+0003	 2.91110428707146E-0001	
 3.21850000000000E+0003	 2.92882948616274E-0001	
 3.22050000000000E+0003	 2.94660468525403E-0001	
 3.22250000000000E+0003	 2.96441488434531E-0001	
 3.22450000000000E+0003	 2.98239008343660E-0001	
 3.22650000000000E+0003	 3.00057028252788E-0001	
 3.22850000000000E+0003	 3.01902548161917E-0001	
 3.23050000000000E+0003	 3.03796068071045E-0001	
 3.23250000000000E+0003	 3.05734587980173E-0001	
 3.23450000000000E+0003	 3.07649607889302E-0001	
 3.23650000000000E+0003	 3.09554127798430E-0001	
 3.23850000000000E+0003	 3.11520647707559E-0001	
 3.24050000000000E+0003	 3.13557167616687E-0001	
 3.24250000000000E+0003	 3.15641187525816E-0001	
 3.24450000000000E+0003	 3.17787207434944E-0001	
 3.24650000000000E+0003	 3.19990227344073E-0001	
 3.24850000000000E+0003	 3.22205747253201E-0001	
 3.25050000000000E+0003	 3.24436767162330E-0001	
 3.25250000000000E+0003	 3.26727287071458E-0001	
 3.25450000000000E+0003	 3.29076306980587E-0001	
 3.25650000000000E+0003	 3.31450326889715E-0001	
 3.25850000000000E+0003	 3.33825846798843E-0001	
 3.26050000000000E+0003	 3.36215366707972E-0001	
 3.26250000000000E+0003	 3.38611386617100E-0001	
 3.26450000000000E+0003	 3.40997406526229E-0001	
 3.26650000000000E+0003	 3.43352926435357E-0001	
 3.26850000000000E+0003	 3.45679446344486E-0001	
 3.27050000000000E+0003	 3.47962966253614E-0001	
 3.27250000000000E+0003	 3.50159486162743E-0001	
 3.27450000000000E+0003	 3.52264506071871E-0001	
 3.27650000000000E+0003	 3.54302025981000E-0001	
 3.27850000000000E+0003	 3.56249545890128E-0001	
 3.28050000000000E+0003	 3.58097065799257E-0001	
 3.28250000000000E+0003	 3.59846585708385E-0001	
 3.28450000000000E+0003	 3.61504105617513E-0001	
 3.28650000000000E+0003	 3.63049625526642E-0001	
 3.28850000000000E+0003	 3.64487645435770E-0001	
 3.29050000000000E+0003	 3.65831165344899E-0001	
 3.29250000000000E+0003	 3.67077685254027E-0001	
 3.29450000000000E+0003	 3.68211205163156E-0001	
 3.29650000000000E+0003	 3.69248725072284E-0001	
 3.29850000000000E+0003	 3.70197744981413E-0001	
 3.30050000000000E+0003	 3.71069264890541E-0001	
 3.30250000000000E+0003	 3.71874284799670E-0001	
 3.30450000000000E+0003	 3.72633804708798E-0001	
 3.30650000000000E+0003	 3.73325824617926E-0001	
 3.30850000000000E+0003	 3.73948844527055E-0001	
 3.31050000000000E+0003	 3.74525864436183E-0001	
 3.31250000000000E+0003	 3.75069884345312E-0001	
 3.31450000000000E+0003	 3.75590904254440E-0001	
 3.31650000000000E+0003	 3.76104424163569E-0001	
 3.31850000000000E+0003	 3.76608444072697E-0001	
 3.32050000000000E+0003	 3.77111463981826E-0001	
 3.32250000000000E+0003	 3.77618983890954E-0001	
 3.32450000000000E+0003	 3.78145003800083E-0001	
 3.32650000000000E+0003	 3.78679023709211E-0001	
 3.32850000000000E+0003	 3.79217543618340E-0001	
 3.33050000000000E+0003	 3.79766563527468E-0001	
 3.33250000000000E+0003	 3.80340583436596E-0001	
 3.33450000000000E+0003	 3.80937603345725E-0001	
 3.33650000000000E+0003	 3.81567123254853E-0001	
 3.33850000000000E+0003	 3.82213143163982E-0001	
 3.34050000000000E+0003	 3.82849163073110E-0001	
 3.34250000000000E+0003	 3.83479682982239E-0001	
 3.34450000000000E+0003	 3.84119702891367E-0001	
 3.34650000000000E+0003	 3.84775222800496E-0001	
 3.34850000000000E+0003	 3.85477242709624E-0001	
 3.35050000000000E+0003	 3.86179262618753E-0001	
 3.35250000000000E+0003	 3.86820282527881E-0001	
 3.35450000000000E+0003	 3.87441302437010E-0001	
 3.35650000000000E+0003	 3.88102822346138E-0001	
 3.35850000000000E+0003	 3.88788842255266E-0001	
 3.36050000000000E+0003	 3.89470862164395E-0001	
 3.36250000000000E+0003	 3.90132382073523E-0001	
 3.36450000000000E+0003	 3.90825901982652E-0001	
 3.36650000000000E+0003	 3.91566421891780E-0001	
 3.36850000000000E+0003	 3.92273941800909E-0001	
 3.37050000000000E+0003	 3.92838961710037E-0001	
 3.37250000000000E+0003	 3.93330981619166E-0001	
 3.37450000000000E+0003	 3.93881001528294E-0001	
 3.37650000000000E+0003	 3.94471021437423E-0001	
 3.37850000000000E+0003	 3.95033041346551E-0001	
 3.38050000000000E+0003	 3.95569061255679E-0001	
 3.38250000000000E+0003	 3.96081581164808E-0001	
 3.38450000000000E+0003	 3.96582601073936E-0001	
 3.38650000000000E+0003	 3.97078620983065E-0001	
 3.38850000000000E+0003	 3.97636140892193E-0001	
 3.39050000000000E+0003	 3.98233660801322E-0001	
 3.39250000000000E+0003	 3.98678680710450E-0001	
 3.39450000000000E+0003	 3.98958700619579E-0001	
 3.39650000000000E+0003	 3.99305220528707E-0001	
 3.39850000000000E+0003	 3.99812240437836E-0001	
 3.40050000000000E+0003	 4.00253260346964E-0001	
 3.40250000000000E+0003	 4.00396780256093E-0001	
 3.40450000000000E+0003	 4.00436300165221E-0001	
 3.40650000000000E+0003	 4.00593320074349E-0001	
 3.40850000000000E+0003	 4.00803339983478E-0001	
 3.41050000000000E+0003	 4.00944859892606E-0001	
 3.41250000000000E+0003	 4.01009879801735E-0001	
 3.41450000000000E+0003	 4.00969899710863E-0001	
 3.41650000000000E+0003	 4.00875419619992E-0001	
 3.41850000000000E+0003	 4.00789939529120E-0001	
 3.42050000000000E+0003	 4.00679459438249E-0001	
 3.42250000000000E+0003	 4.00486979347377E-0001	
 3.42450000000000E+0003	 4.00258999256506E-0001	
 3.42650000000000E+0003	 4.00036519165634E-0001	
 3.42850000000000E+0003	 3.99803039074762E-0001	
 3.43050000000000E+0003	 3.99462058983891E-0001	
 3.43250000000000E+0003	 3.99063578893019E-0001	
 3.43450000000000E+0003	 3.98668598802148E-0001	
 3.43650000000000E+0003	 3.98115618711276E-0001	
 3.43850000000000E+0003	 3.97344638620405E-0001	
 3.44050000000000E+0003	 3.96529158529533E-0001	
 3.44250000000000E+0003	 3.95755178438662E-0001	
 3.44450000000000E+0003	 3.94991698347790E-0001	
 3.44650000000000E+0003	 3.94186218256919E-0001	
 3.44850000000000E+0003	 3.93306738166047E-0001	
 3.45050000000000E+0003	 3.92369258075176E-0001	
 3.45250000000000E+0003	 3.91401777984304E-0001	
 3.45450000000000E+0003	 3.90380797893432E-0001	
 3.45650000000000E+0003	 3.89332817802561E-0001	
 3.45850000000000E+0003	 3.88283837711689E-0001	
 3.46050000000000E+0003	 3.87152357620818E-0001	
 3.46250000000000E+0003	 3.85911877529946E-0001	
 3.46450000000000E+0003	 3.84741397439075E-0001	
 3.46650000000000E+0003	 3.83653917348203E-0001	
 3.46850000000000E+0003	 3.82390937257332E-0001	
 3.47050000000000E+0003	 3.80814957166460E-0001	
 3.47250000000000E+0003	 3.79165977075589E-0001	
 3.47450000000000E+0003	 3.77624996984717E-0001	
 3.47650000000000E+0003	 3.76171516893846E-0001	
 3.47850000000000E+0003	 3.74739536802974E-0001	
 3.48050000000000E+0003	 3.73159556712102E-0001	
 3.48250000000000E+0003	 3.71430576621231E-0001	
 3.48450000000000E+0003	 3.69769096530359E-0001	
 3.48650000000000E+0003	 3.68137116439488E-0001	
 3.48850000000000E+0003	 3.66417636348616E-0001	
 3.49050000000000E+0003	 3.64668656257745E-0001	
 3.49250000000000E+0003	 3.62953176166873E-0001	
 3.49450000000000E+0003	 3.61238696076002E-0001	
 3.49650000000000E+0003	 3.59487715985130E-0001	
 3.49850000000000E+0003	 3.57681735894259E-0001	
 3.50050000000000E+0003	 3.55898755803387E-0001	
 3.50250000000000E+0003	 3.54064775712515E-0001	
 3.50450000000000E+0003	 3.52062795621644E-0001	
 3.50650000000000E+0003	 3.50053315530772E-0001	
 3.50850000000000E+0003	 3.48124335439901E-0001	
 3.51050000000000E+0003	 3.46226855349029E-0001	
 3.51250000000000E+0003	 3.44365875258158E-0001	
 3.51450000000000E+0003	 3.42422895167286E-0001	
 3.51650000000000E+0003	 3.40373915076415E-0001	
 3.51850000000000E+0003	 3.38326934985543E-0001	
 3.52050000000000E+0003	 3.36354454894672E-0001	
 3.52250000000000E+0003	 3.34410474803800E-0001	
 3.52450000000000E+0003	 3.32322994712929E-0001	
 3.52650000000000E+0003	 3.30108014622057E-0001	
 3.52850000000000E+0003	 3.27920034531185E-0001	
 3.53050000000000E+0003	 3.25774054440314E-0001	
 3.53250000000000E+0003	 3.23665574349442E-0001	
 3.53450000000000E+0003	 3.21590594258571E-0001	
 3.53650000000000E+0003	 3.19419614167699E-0001	
 3.53850000000000E+0003	 3.17114634076828E-0001	
 3.54050000000000E+0003	 3.14867653985956E-0001	
 3.54250000000000E+0003	 3.12706173895085E-0001	
 3.54450000000000E+0003	 3.10453693804213E-0001	
 3.54650000000000E+0003	 3.07956713713342E-0001	
 3.54850000000000E+0003	 3.05403733622470E-0001	
 3.55050000000000E+0003	 3.02980253531599E-0001	
 3.55250000000000E+0003	 3.00534773440727E-0001	
 3.55450000000000E+0003	 2.98028293349855E-0001	
 3.55650000000000E+0003	 2.95555813258984E-0001	
 3.55850000000000E+0003	 2.93097833168112E-0001	
 3.56050000000000E+0003	 2.90603353077241E-0001	
 3.56250000000000E+0003	 2.88030372986369E-0001	
 3.56450000000000E+0003	 2.85415392895498E-0001	
 3.56650000000000E+0003	 2.82739912804626E-0001	
 3.56850000000000E+0003	 2.80037932713755E-0001	
 3.57050000000000E+0003	 2.77422452622883E-0001	
 3.57250000000000E+0003	 2.74809472532012E-0001	
 3.57450000000000E+0003	 2.72134992441140E-0001	
 3.57650000000000E+0003	 2.69440512350268E-0001	
 3.57850000000000E+0003	 2.66754532259397E-0001	
 3.58050000000000E+0003	 2.64090052168525E-0001	
 3.58250000000000E+0003	 2.61456072077654E-0001	
 3.58450000000000E+0003	 2.58838091986782E-0001	
 3.58650000000000E+0003	 2.56029611895911E-0001	
 3.58850000000000E+0003	 2.52991131805039E-0001	
 3.59050000000000E+0003	 2.50140151714168E-0001	
 3.59250000000000E+0003	 2.47473671623296E-0001	
 3.59450000000000E+0003	 2.44708191532425E-0001	
 3.59650000000000E+0003	 2.41909211441553E-0001	
 3.59850000000000E+0003	 2.39186231350682E-0001	
 3.60050000000000E+0003	 2.36439251259810E-0001	
 3.60250000000000E+0003	 2.33679771168938E-0001	
 3.60450000000000E+0003	 2.30976791078067E-0001	
 3.60650000000000E+0003	 2.28257310987195E-0001	
 3.60850000000000E+0003	 2.25442330896324E-0001	
 3.61050000000000E+0003	 2.22649350805452E-0001	
 3.61250000000000E+0003	 2.19938370714581E-0001	
 3.61450000000000E+0003	 2.17244890623709E-0001	
 3.61650000000000E+0003	 2.14671910532838E-0001	
 3.61850000000000E+0003	 2.12076930441966E-0001	
 3.62050000000000E+0003	 2.09331450351095E-0001	
 3.62250000000000E+0003	 2.06682970260223E-0001	
 3.62450000000000E+0003	 2.04192490169352E-0001	
 3.62650000000000E+0003	 2.01794010078480E-0001	
 3.62850000000000E+0003	 1.99191029987608E-0001	
 3.63050000000000E+0003	 1.96388549896737E-0001	
 3.63250000000000E+0003	 1.93933569805865E-0001	
 3.63450000000000E+0003	 1.91597589714994E-0001	
 3.63650000000000E+0003	 1.89228109624122E-0001	
 3.63850000000000E+0003	 1.86893629533251E-0001	
 3.64050000000000E+0003	 1.84596649442379E-0001	
 3.64250000000000E+0003	 1.82348169351508E-0001	
 3.64450000000000E+0003	 1.80202689260636E-0001	
 3.64650000000000E+0003	 1.78123209169765E-0001	
 3.64850000000000E+0003	 1.75951229078893E-0001	
 3.65050000000000E+0003	 1.73719248988021E-0001	
 3.65250000000000E+0003	 1.71660768897150E-0001	
 3.65450000000000E+0003	 1.69819288806278E-0001	
 3.65650000000000E+0003	 1.67962808715407E-0001	
 3.65850000000000E+0003	 1.66123828624535E-0001	
 3.66050000000000E+0003	 1.64391348533664E-0001	
 3.66250000000000E+0003	 1.62669868442792E-0001	
 3.66450000000000E+0003	 1.61023888351921E-0001	
 3.66650000000000E+0003	 1.59516908261049E-0001	
 3.66850000000000E+0003	 1.58064428170178E-0001	
 3.67050000000000E+0003	 1.56552448079306E-0001	
 3.67250000000000E+0003	 1.55202967988435E-0001	
 3.67450000000000E+0003	 1.53979487897563E-0001	
 3.67650000000000E+0003	 1.52640507806691E-0001	
 3.67850000000000E+0003	 1.51443527715820E-0001	
 3.68050000000000E+0003	 1.50372047624948E-0001	
 3.68250000000000E+0003	 1.49358567534077E-0001	
 3.68450000000000E+0003	 1.48429087443205E-0001	
 3.68650000000000E+0003	 1.47608107352334E-0001	
 3.68850000000000E+0003	 1.46764627261462E-0001	
 3.69050000000000E+0003	 1.45825647170591E-0001	
 3.69250000000000E+0003	 1.44968167079719E-0001	
 3.69450000000000E+0003	 1.44250186988848E-0001	
 3.69650000000000E+0003	 1.43587206897976E-0001	
 3.69850000000000E+0003	 1.42949226807105E-0001	
 3.70050000000000E+0003	 1.42339246716233E-0001	
 3.70250000000000E+0003	 1.41740266625361E-0001	
 3.70450000000000E+0003	 1.41184286534490E-0001	
 3.70650000000000E+0003	 1.40684806443618E-0001	
 3.70850000000000E+0003	 1.40207326352747E-0001	
 3.71050000000000E+0003	 1.39715346261875E-0001	
 3.71250000000000E+0003	 1.39235866171004E-0001	
 3.71450000000000E+0003	 1.38806386080132E-0001	
 3.71650000000000E+0003	 1.38407905989261E-0001	
 3.71850000000000E+0003	 1.38030925898389E-0001	
 3.72050000000000E+0003	 1.37660945807518E-0001	
 3.72250000000000E+0003	 1.37291965716646E-0001	
 3.72450000000000E+0003	 1.36943485625774E-0001	
 3.72650000000000E+0003	 1.36626005534903E-0001	
 3.72850000000000E+0003	 1.36337525444031E-0001	
 3.73050000000000E+0003	 1.36066045353160E-0001	
 3.73250000000000E+0003	 1.35793565262288E-0001	
 3.73450000000000E+0003	 1.35524085171417E-0001	
 3.73650000000000E+0003	 1.35248105080545E-0001	
 3.73850000000000E+0003	 1.35001624989674E-0001	
 3.74050000000000E+0003	 1.34751144898802E-0001	
 3.74250000000000E+0003	 1.34529164807931E-0001	
 3.74450000000000E+0003	 1.34308184717059E-0001	
 3.74650000000000E+0003	 1.34069704626188E-0001	
 3.74850000000000E+0003	 1.33809724535316E-0001	
 3.75050000000000E+0003	 1.33565244444444E-0001	
 3.75250000000000E+0003	 1.33376764353573E-0001	
 3.75450000000000E+0003	 1.33210784262701E-0001	
 3.75650000000000E+0003	 1.33021304171830E-0001	
 3.75850000000000E+0003	 1.32830824080958E-0001	
 3.76050000000000E+0003	 1.32658343990087E-0001	
 3.76250000000000E+0003	 1.32497863899215E-0001	
 3.76450000000000E+0003	 1.32344383808344E-0001	
 3.76650000000000E+0003	 1.32189403717472E-0001	
 3.76850000000000E+0003	 1.32028923626601E-0001	
 3.77050000000000E+0003	 1.31869443535729E-0001	
 3.77250000000000E+0003	 1.31731963444857E-0001	
 3.77450000000000E+0003	 1.31591483353986E-0001	
 3.77650000000000E+0003	 1.31461503263114E-0001	
 3.77850000000000E+0003	 1.31339523172243E-0001	
 3.78050000000000E+0003	 1.31205543081371E-0001	
 3.78250000000000E+0003	 1.31058562990500E-0001	
 3.78450000000000E+0003	 1.30913082899628E-0001	
 3.78650000000000E+0003	 1.30796602808757E-0001	
 3.78850000000000E+0003	 1.30699622717885E-0001	
 3.79050000000000E+0003	 1.30603142627014E-0001	
 3.79250000000000E+0003	 1.30489662536142E-0001	
 3.79450000000000E+0003	 1.30368182445271E-0001	
 3.79650000000000E+0003	 1.30258702354399E-0001	
 3.79850000000000E+0003	 1.30157222263527E-0001	
 3.80050000000000E+0003	 1.30039242172656E-0001	
 3.80250000000000E+0003	 1.29939762081784E-0001	
 3.80450000000000E+0003	 1.29874281990913E-0001	
 3.80650000000000E+0003	 1.29783301900041E-0001	
 3.80850000000000E+0003	 1.29717821809170E-0001	
 3.81050000000000E+0003	 1.29648841718298E-0001	
 3.81250000000000E+0003	 1.29562361627427E-0001	
 3.81450000000000E+0003	 1.29488881536555E-0001	
 3.81650000000000E+0003	 1.29417901445684E-0001	
 3.81850000000000E+0003	 1.29363921354812E-0001	
 3.82050000000000E+0003	 1.29278941263941E-0001	
 3.82250000000000E+0003	 1.29202461173069E-0001	
 3.82450000000000E+0003	 1.29129981082197E-0001	
 3.82650000000000E+0003	 1.29043500991326E-0001	
 3.82850000000000E+0003	 1.28998520900454E-0001	
 3.83050000000000E+0003	 1.28961540809583E-0001	
 3.83250000000000E+0003	 1.28935560718711E-0001	
 3.83450000000000E+0003	 1.28929580627840E-0001	
 3.83650000000000E+0003	 1.28887600536968E-0001	
 3.83850000000000E+0003	 1.28790620446097E-0001	
 3.84050000000000E+0003	 1.28703640355225E-0001	
 3.84250000000000E+0003	 1.28647660264354E-0001	
 3.84450000000000E+0003	 1.28622680173482E-0001	
 3.84650000000000E+0003	 1.28594700082610E-0001	
 3.84850000000000E+0003	 1.28556719991739E-0001	
 3.85050000000000E+0003	 1.28528739900867E-0001	
 3.85250000000000E+0003	 1.28544259809996E-0001	
 3.85450000000000E+0003	 1.28568279719124E-0001	
 3.85650000000000E+0003	 1.28523299628253E-0001	
 3.85850000000000E+0003	 1.28402819537381E-0001	
 3.86050000000000E+0003	 1.28345339446510E-0001	
 3.86250000000000E+0003	 1.28333859355638E-0001	
 3.86450000000000E+0003	 1.28328879264767E-0001	
 3.86650000000000E+0003	 1.28317899173895E-0001	
 3.86850000000000E+0003	 1.28293419083024E-0001	
 3.87050000000000E+0003	 1.28260938992152E-0001	
 3.87250000000000E+0003	 1.28239958901280E-0001	
 3.87450000000000E+0003	 1.28203478810409E-0001	
 3.87650000000000E+0003	 1.28184498719537E-0001	
 3.87850000000000E+0003	 1.28174018628666E-0001	
 3.88050000000000E+0003	 1.28175538537794E-0001	
 3.88250000000000E+0003	 1.28173558446923E-0001	
 3.88450000000000E+0003	 1.28177578356051E-0001	
 3.88650000000000E+0003	 1.28187598265180E-0001	
 3.88850000000000E+0003	 1.28184618174308E-0001	
 3.89050000000000E+0003	 1.28178638083437E-0001	
 3.89250000000000E+0003	 1.28177657992565E-0001	
 3.89450000000000E+0003	 1.28150677901694E-0001	
 3.89650000000000E+0003	 1.28128197810822E-0001	
 3.89850000000000E+0003	 1.28143717719950E-0001	
 3.90050000000000E+0003	 1.28151737629079E-0001	
 3.90250000000000E+0003	 1.28165757538207E-0001	
 3.90450000000000E+0003	 1.28194777447336E-0001	
 3.90650000000000E+0003	 1.28195797356464E-0001	
 3.90850000000000E+0003	 1.28168817265593E-0001	
 3.91050000000000E+0003	 1.28162337174721E-0001	
 3.91250000000000E+0003	 1.28170857083850E-0001	
 3.91450000000000E+0003	 1.28179876992978E-0001	
 3.91650000000000E+0003	 1.28195896902107E-0001	
 3.91850000000000E+0003	 1.28223916811235E-0001	
 3.92050000000000E+0003	 1.28239936720363E-0001	
 3.92250000000000E+0003	 1.28243456629492E-0001	
 3.92450000000000E+0003	 1.28256476538620E-0001	
 3.92650000000000E+0003	 1.28268996447749E-0001	
 3.92850000000000E+0003	 1.28264016356877E-0001	
 3.93050000000000E+0003	 1.28266036266006E-0001	
 3.93250000000000E+0003	 1.28294056175134E-0001	
 3.93450000000000E+0003	 1.28319576084263E-0001	
 3.93650000000000E+0003	 1.28324595993391E-0001	
 3.93850000000000E+0003	 1.28325115902520E-0001	
 3.94050000000000E+0003	 1.28334635811648E-0001	
 3.94250000000000E+0003	 1.28353655720777E-0001	
 3.94450000000000E+0003	 1.28358675629905E-0001	
 3.94650000000000E+0003	 1.28351195539033E-0001	
 3.94850000000000E+0003	 1.28361715448162E-0001	
 3.95050000000000E+0003	 1.28380735357290E-0001	
 3.95250000000000E+0003	 1.28386755266419E-0001	
 3.95450000000000E+0003	 1.28391275175547E-0001	
 3.95650000000000E+0003	 1.28402295084676E-0001	
 3.95850000000000E+0003	 1.28410314993804E-0001	
 3.96050000000000E+0003	 1.28415334902933E-0001	
 3.96250000000000E+0003	 1.28423354812061E-0001	
 3.96450000000000E+0003	 1.28434374721190E-0001	
 3.96650000000000E+0003	 1.28446894630318E-0001	
 3.96850000000000E+0003	 1.28460914539447E-0001	
 3.97050000000000E+0003	 1.28469434448575E-0001	
 3.97250000000000E+0003	 1.28474954357703E-0001	
 3.97450000000000E+0003	 1.28485974266832E-0001	
 3.97650000000000E+0003	 1.28501494175960E-0001	
 3.97850000000000E+0003	 1.28513514085089E-0001	
 3.98050000000000E+0003	 1.28523533994217E-0001	
 3.98250000000000E+0003	 1.28543053903346E-0001	
 3.98450000000000E+0003	 1.28562073812474E-0001	
 3.98650000000000E+0003	 1.28566093721603E-0001	
 3.98850000000000E+0003	 1.28570113630731E-0001	
 3.99050000000000E+0003	 1.28580633539860E-0001	
 3.99250000000000E+0003	 1.28589153448988E-0001	
 3.99450000000000E+0003	 1.28601173358116E-0001	
 3.99650000000000E+0003	 1.28616693267245E-0001	
 3.99850000000000E+0003	 1.28630213176373E-0001	

>1	DATALINE
