*CPCWIN*

>1	DATALINE
DATALINE
1
Operator:

Description:

Remarks:





15.9.2008
10:49


_x	_y
	
	
UNIT	UNIT
 4.50500000000000E+0002	 1.04994500000000E-0001	
 4.52500000000000E+0002	 1.05163500000000E-0001	
 4.54500000000000E+0002	 1.04700500000000E-0001	
 4.56500000000000E+0002	 1.04844000000000E-0001	
 4.58500000000000E+0002	 1.05076356263779E-0001	
 4.60500000000000E+0002	 1.05354703544044E-0001	
 4.62500000000000E+0002	 1.05690050824310E-0001	
 4.64500000000000E+0002	 1.06104398104575E-0001	
 4.66500000000000E+0002	 1.06283245384841E-0001	
 4.68500000000000E+0002	 1.06423592665106E-0001	
 4.70500000000000E+0002	 1.06676439945371E-0001	
 4.72500000000000E+0002	 1.06951787225637E-0001	
 4.74500000000000E+0002	 1.07293634505902E-0001	
 4.76500000000000E+0002	 1.07583981786167E-0001	
 4.78500000000000E+0002	 1.07885829066433E-0001	
 4.80500000000000E+0002	 1.08194176346698E-0001	
 4.82500000000000E+0002	 1.08444523626963E-0001	
 4.84500000000000E+0002	 1.08649370907229E-0001	
 4.86500000000000E+0002	 1.08961218187494E-0001	
 4.88500000000000E+0002	 1.09368065467759E-0001	
 4.90500000000000E+0002	 1.09677412748025E-0001	
 4.92500000000000E+0002	 1.09916760028290E-0001	
 4.94500000000000E+0002	 1.10280607308555E-0001	
 4.96500000000000E+0002	 1.10602454588821E-0001	
 4.98500000000000E+0002	 1.10944801869086E-0001	
 5.00500000000000E+0002	 1.11283149149351E-0001	
 5.02500000000000E+0002	 1.11687996429617E-0001	
 5.04500000000000E+0002	 1.12052843709882E-0001	
 5.06500000000000E+0002	 1.12483190990147E-0001	
 5.08500000000000E+0002	 1.12993538270413E-0001	
 5.10500000000000E+0002	 1.13448885550678E-0001	
 5.12500000000000E+0002	 1.13892232830943E-0001	
 5.14500000000000E+0002	 1.14318080111209E-0001	
 5.16500000000000E+0002	 1.14693927391474E-0001	
 5.18500000000000E+0002	 1.15161774671739E-0001	
 5.20500000000000E+0002	 1.15573121952005E-0001	
 5.22500000000000E+0002	 1.15964969232270E-0001	
 5.24500000000000E+0002	 1.16250316512535E-0001	
 5.26500000000000E+0002	 1.16494663792801E-0001	
 5.28500000000000E+0002	 1.16753511073066E-0001	
 5.30500000000000E+0002	 1.17080858353331E-0001	
 5.32500000000000E+0002	 1.17310205633597E-0001	
 5.34500000000000E+0002	 1.17506052913862E-0001	
 5.36500000000000E+0002	 1.17614400194127E-0001	
 5.38500000000000E+0002	 1.17688747474393E-0001	
 5.40500000000000E+0002	 1.17668094754658E-0001	
 5.42500000000000E+0002	 1.17645942034923E-0001	
 5.44500000000000E+0002	 1.17577789315189E-0001	
 5.46500000000000E+0002	 1.17554136595454E-0001	
 5.48500000000000E+0002	 1.17484983875719E-0001	
 5.50500000000000E+0002	 1.17468331155985E-0001	
 5.52500000000000E+0002	 1.17457678436250E-0001	
 5.54500000000000E+0002	 1.17431525716515E-0001	
 5.56500000000000E+0002	 1.17344872996781E-0001	
 5.58500000000000E+0002	 1.17254720277046E-0001	
 5.60500000000000E+0002	 1.17104067557311E-0001	
 5.62500000000000E+0002	 1.16948914837577E-0001	
 5.64500000000000E+0002	 1.16788262117842E-0001	
 5.66500000000000E+0002	 1.16699109398108E-0001	
 5.68500000000000E+0002	 1.16594956678373E-0001	
 5.70500000000000E+0002	 1.16479803958638E-0001	
 5.72500000000000E+0002	 1.16344651238904E-0001	
 5.74500000000000E+0002	 1.16219498519169E-0001	
 5.76500000000000E+0002	 1.16131345799434E-0001	
 5.78500000000000E+0002	 1.16065693079700E-0001	
 5.80500000000000E+0002	 1.15976040359965E-0001	
 5.82500000000000E+0002	 1.15883387640230E-0001	
 5.84500000000000E+0002	 1.15753734920496E-0001	
 5.86500000000000E+0002	 1.15643082200761E-0001	
 5.88500000000000E+0002	 1.15578429481026E-0001	
 5.90500000000000E+0002	 1.15524776761292E-0001	
 5.92500000000000E+0002	 1.15491124041557E-0001	
 5.94500000000000E+0002	 1.15508971321822E-0001	
 5.96500000000000E+0002	 1.15567818602088E-0001	
 5.98500000000000E+0002	 1.15604665882353E-0001	
 6.00500000000000E+0002	 1.15592513162618E-0001	
 6.02500000000000E+0002	 1.15551360442884E-0001	
 6.04500000000000E+0002	 1.15496207723149E-0001	
 6.06500000000000E+0002	 1.15438055003414E-0001	
 6.08500000000000E+0002	 1.15372402283680E-0001	
 6.10500000000000E+0002	 1.15316249563945E-0001	
 6.12500000000000E+0002	 1.15296096844210E-0001	
 6.14500000000000E+0002	 1.15316444124476E-0001	
 6.16500000000000E+0002	 1.15337291404741E-0001	
 6.18500000000000E+0002	 1.15303138685006E-0001	
 6.20500000000000E+0002	 1.15213485965272E-0001	
 6.22500000000000E+0002	 1.15134333245537E-0001	
 6.24500000000000E+0002	 1.14976180525802E-0001	
 6.26500000000000E+0002	 1.14820027806068E-0001	
 6.28500000000000E+0002	 1.14625875086333E-0001	
 6.30500000000000E+0002	 1.14428222366598E-0001	
 6.32500000000000E+0002	 1.14168569646864E-0001	
 6.34500000000000E+0002	 1.13916916927129E-0001	
 6.36500000000000E+0002	 1.13690264207394E-0001	
 6.38500000000000E+0002	 1.13545111487660E-0001	
 6.40500000000000E+0002	 1.13338458767925E-0001	
 6.42500000000000E+0002	 1.13151306048190E-0001	
 6.44500000000000E+0002	 1.12900153328456E-0001	
 6.46500000000000E+0002	 1.12690000608721E-0001	
 6.48500000000000E+0002	 1.12428847888986E-0001	
 6.50500000000000E+0002	 1.12170195169252E-0001	
 6.52500000000000E+0002	 1.11885042449517E-0001	
 6.54500000000000E+0002	 1.11667389729782E-0001	
 6.56500000000000E+0002	 1.11429737010048E-0001	
 6.58500000000000E+0002	 1.11241084290313E-0001	
 6.60500000000000E+0002	 1.11022931570578E-0001	
 6.62500000000000E+0002	 1.10824278850844E-0001	
 6.64500000000000E+0002	 1.10561626131109E-0001	
 6.66500000000000E+0002	 1.10242973411375E-0001	
 6.68500000000000E+0002	 1.09955320691640E-0001	
 6.70500000000000E+0002	 1.09790667971905E-0001	
 6.72500000000000E+0002	 1.09589515252171E-0001	
 6.74500000000000E+0002	 1.09322862532436E-0001	
 6.76500000000000E+0002	 1.09004709812701E-0001	
 6.78500000000000E+0002	 1.08688557092967E-0001	
 6.80500000000000E+0002	 1.08365404373232E-0001	
 6.82500000000000E+0002	 1.08055751653497E-0001	
 6.84500000000000E+0002	 1.07751598933763E-0001	
 6.86500000000000E+0002	 1.07477946214028E-0001	
 6.88500000000000E+0002	 1.07190293494293E-0001	
 6.90500000000000E+0002	 1.06961140774559E-0001	
 6.92500000000000E+0002	 1.06780988054824E-0001	
 6.94500000000000E+0002	 1.06638335335089E-0001	
 6.96500000000000E+0002	 1.06524682615355E-0001	
 6.98500000000000E+0002	 1.06425529895620E-0001	
 7.00500000000000E+0002	 1.06241377175885E-0001	
 7.02500000000000E+0002	 1.05930224456151E-0001	
 7.04500000000000E+0002	 1.05529071736416E-0001	
 7.06500000000000E+0002	 1.05093419016681E-0001	
 7.08500000000000E+0002	 1.04649266296947E-0001	
 7.10500000000000E+0002	 1.04276613577212E-0001	
 7.12500000000000E+0002	 1.03898460857477E-0001	
 7.14500000000000E+0002	 1.03444308137743E-0001	
 7.16500000000000E+0002	 1.02939155418008E-0001	
 7.18500000000000E+0002	 1.02490502698273E-0001	
 7.20500000000000E+0002	 1.02020849978539E-0001	
 7.22500000000000E+0002	 1.01474197258804E-0001	
 7.24500000000000E+0002	 1.00828544539069E-0001	
 7.26500000000000E+0002	 1.00092891819335E-0001	
 7.28500000000000E+0002	 9.92952390996000E-0002	
 7.30500000000000E+0002	 9.85485863798654E-0002	
 7.32500000000000E+0002	 9.78509336601307E-0002	
 7.34500000000000E+0002	 9.72427809403961E-0002	
 7.36500000000000E+0002	 9.67021282206614E-0002	
 7.38500000000000E+0002	 9.62254755009267E-0002	
 7.40500000000000E+0002	 9.57603227811921E-0002	
 7.42500000000000E+0002	 9.53261700614574E-0002	
 7.44500000000000E+0002	 9.48990173417228E-0002	
 7.46500000000000E+0002	 9.44983646219881E-0002	
 7.48500000000000E+0002	 9.40817119022534E-0002	
 7.50500000000000E+0002	 9.36695591825188E-0002	
 7.52500000000000E+0002	 9.32714064627841E-0002	
 7.54500000000000E+0002	 9.29107537430495E-0002	
 7.56500000000000E+0002	 9.25631010233148E-0002	
 7.58500000000000E+0002	 9.22314483035801E-0002	
 7.60500000000000E+0002	 9.19552955838455E-0002	
 7.62500000000000E+0002	 9.17356428641108E-0002	
 7.64500000000000E+0002	 9.15194901443762E-0002	
 7.66500000000000E+0002	 9.11458374246415E-0002	
 7.68500000000000E+0002	 9.06136847049068E-0002	
 7.70500000000000E+0002	 9.00140319851722E-0002	
 7.72500000000000E+0002	 8.95378792654375E-0002	
 7.74500000000000E+0002	 8.92437265457029E-0002	
 7.76500000000000E+0002	 8.92840738259682E-0002	
 7.78500000000000E+0002	 8.95044211062335E-0002	
 7.80500000000000E+0002	 8.95407683864989E-0002	
 7.82500000000000E+0002	 8.91206156667642E-0002	
 7.84500000000000E+0002	 8.85664629470296E-0002	
 7.86500000000000E+0002	 8.80043102272949E-0002	
 7.88500000000000E+0002	 8.75191575075602E-0002	
 7.90500000000000E+0002	 8.70545047878256E-0002	
 7.92500000000000E+0002	 8.67988520680909E-0002	
 7.94500000000000E+0002	 8.66806993483563E-0002	
 7.96500000000000E+0002	 8.65895466286216E-0002	
 7.98500000000000E+0002	 8.62608939088869E-0002	
 8.00500000000000E+0002	 8.58062411891523E-0002	
 8.02500000000000E+0002	 8.52985884694176E-0002	
 8.04500000000000E+0002	 8.49274357496830E-0002	
 8.06500000000000E+0002	 8.45987830299483E-0002	
 8.08500000000000E+0002	 8.43576303102136E-0002	
 8.10500000000000E+0002	 8.40849775904790E-0002	
 8.12500000000000E+0002	 8.37798248707443E-0002	
 8.14500000000000E+0002	 8.33741721510097E-0002	
 8.16500000000000E+0002	 8.29530194312750E-0002	
 8.18500000000000E+0002	 8.25148667115403E-0002	
 8.20500000000000E+0002	 8.21607139918057E-0002	
 8.22500000000000E+0002	 8.18605612720710E-0002	
 8.24500000000000E+0002	 8.16309085523364E-0002	
 8.26500000000000E+0002	 8.14127558326017E-0002	
 8.28500000000000E+0002	 8.11786031128670E-0002	
 8.30500000000000E+0002	 8.08919503931324E-0002	
 8.32500000000000E+0002	 8.05777976733977E-0002	
 8.34500000000000E+0002	 8.02381449536631E-0002	
 8.36500000000000E+0002	 7.98714922339284E-0002	
 8.38500000000000E+0002	 7.94713395141937E-0002	
 8.40500000000000E+0002	 7.90651867944591E-0002	
 8.42500000000000E+0002	 7.86895340747244E-0002	
 8.44500000000000E+0002	 7.83653813549898E-0002	
 8.46500000000000E+0002	 7.81257286352551E-0002	
 8.48500000000000E+0002	 7.79595759155204E-0002	
 8.50500000000000E+0002	 7.78774231957858E-0002	
 8.52500000000000E+0002	 7.78797704760511E-0002	
 8.54500000000000E+0002	 7.79821177563165E-0002	
 8.56500000000000E+0002	 7.80979650365818E-0002	
 8.58500000000000E+0002	 7.82003123168471E-0002	
 8.60500000000000E+0002	 7.82191595971125E-0002	
 8.62500000000000E+0002	 7.81130068773778E-0002	
 8.64500000000000E+0002	 7.78668541576432E-0002	
 8.66500000000000E+0002	 7.75512014379085E-0002	
 8.68500000000000E+0002	 7.73050487181738E-0002	
 8.70500000000000E+0002	 7.74208959984392E-0002	
 8.72500000000000E+0002	 7.76112432787045E-0002	
 8.74500000000000E+0002	 7.72700905589699E-0002	
 8.76500000000000E+0002	 7.66169378392352E-0002	
 8.78500000000000E+0002	 7.60987851195005E-0002	
 8.80500000000000E+0002	 7.57161323997659E-0002	
 8.82500000000000E+0002	 7.54254796800312E-0002	
 8.84500000000000E+0002	 7.51518269602966E-0002	
 8.86500000000000E+0002	 7.48746742405619E-0002	
 8.88500000000000E+0002	 7.45945215208272E-0002	
 8.90500000000000E+0002	 7.43258688010926E-0002	
 8.92500000000000E+0002	 7.40672160813579E-0002	
 8.94500000000000E+0002	 7.38270633616233E-0002	
 8.96500000000000E+0002	 7.35854106418886E-0002	
 8.98500000000000E+0002	 7.33622579221539E-0002	
 9.00500000000000E+0002	 7.31711052024193E-0002	
 9.02500000000000E+0002	 7.30944524826846E-0002	
 9.04500000000000E+0002	 7.31932997629500E-0002	
 9.06500000000000E+0002	 7.35006470432153E-0002	
 9.08500000000000E+0002	 7.39824943234806E-0002	
 9.10500000000000E+0002	 7.45668416037460E-0002	
 9.12500000000000E+0002	 7.51071888840113E-0002	
 9.14500000000000E+0002	 7.55010361642767E-0002	
 9.16500000000000E+0002	 7.56433834445420E-0002	
 9.18500000000000E+0002	 7.55297307248073E-0002	
 9.20500000000000E+0002	 7.51980780050727E-0002	
 9.22500000000000E+0002	 7.47629252853380E-0002	
 9.24500000000000E+0002	 7.43097725656034E-0002	
 9.26500000000000E+0002	 7.39171198458687E-0002	
 9.28500000000000E+0002	 7.36119671261340E-0002	
 9.30500000000000E+0002	 7.34183144063994E-0002	
 9.32500000000000E+0002	 7.33051616866647E-0002	
 9.34500000000000E+0002	 7.32440089669301E-0002	
 9.36500000000000E+0002	 7.32038562471954E-0002	
 9.38500000000000E+0002	 7.31787035274607E-0002	
 9.40500000000000E+0002	 7.31785508077261E-0002	
 9.42500000000000E+0002	 7.32188980879914E-0002	
 9.44500000000000E+0002	 7.33187453682568E-0002	
 9.46500000000000E+0002	 7.34765926485221E-0002	
 9.48500000000000E+0002	 7.37204399287874E-0002	
 9.50500000000000E+0002	 7.40472872090528E-0002	
 9.52500000000000E+0002	 7.45111344893181E-0002	
 9.54500000000000E+0002	 7.51254817695835E-0002	
 9.56500000000000E+0002	 7.58978290498488E-0002	
 9.58500000000000E+0002	 7.67416763301141E-0002	
 9.60500000000000E+0002	 7.76105236103795E-0002	
 9.62500000000000E+0002	 7.84193708906448E-0002	
 9.64500000000000E+0002	 7.91522181709102E-0002	
 9.66500000000000E+0002	 7.97595654511755E-0002	
 9.68500000000000E+0002	 8.02459127314408E-0002	
 9.70500000000000E+0002	 8.05502600117062E-0002	
 9.72500000000000E+0002	 8.07286072919715E-0002	
 9.74500000000000E+0002	 8.08359545722369E-0002	
 9.76500000000000E+0002	 8.10148018525022E-0002	
 9.78500000000000E+0002	 8.13656491327675E-0002	
 9.80500000000000E+0002	 8.20424964130329E-0002	
 9.82500000000000E+0002	 8.30638436932982E-0002	
 9.84500000000000E+0002	 8.43646909735636E-0002	
 9.86500000000000E+0002	 8.57585382538289E-0002	
 9.88500000000000E+0002	 8.70913855340942E-0002	
 9.90500000000000E+0002	 8.82092328143596E-0002	
 9.92500000000000E+0002	 8.91150800946249E-0002	
 9.94500000000000E+0002	 8.98634273748903E-0002	
 9.96500000000000E+0002	 9.05897746551556E-0002	
 9.98500000000000E+0002	 9.14116219354209E-0002	
 1.00050000000000E+0003	 9.24459692156863E-0002	
 1.00250000000000E+0003	 9.37398164959516E-0002	
 1.00450000000000E+0003	 9.53216637762170E-0002	
 1.00650000000000E+0003	 9.71605110564823E-0002	
 1.00850000000000E+0003	 9.91828583367476E-0002	
 1.01050000000000E+0003	 1.01305205617013E-0001	
 1.01250000000000E+0003	 1.03487052897278E-0001	
 1.01450000000000E+0003	 1.05652900177544E-0001	
 1.01650000000000E+0003	 1.07744747457809E-0001	
 1.01850000000000E+0003	 1.09700094738074E-0001	
 1.02050000000000E+0003	 1.11476942018340E-0001	
 1.02250000000000E+0003	 1.13059289298605E-0001	
 1.02450000000000E+0003	 1.14496136578870E-0001	
 1.02650000000000E+0003	 1.15868483859136E-0001	
 1.02850000000000E+0003	 1.17254831139401E-0001	
 1.03050000000000E+0003	 1.18640178419666E-0001	
 1.03250000000000E+0003	 1.20006525699932E-0001	
 1.03450000000000E+0003	 1.21351872980197E-0001	
 1.03650000000000E+0003	 1.22609220260462E-0001	
 1.03850000000000E+0003	 1.23659067540728E-0001	
 1.04050000000000E+0003	 1.24473914820993E-0001	
 1.04250000000000E+0003	 1.25102762101258E-0001	
 1.04450000000000E+0003	 1.25702109381524E-0001	
 1.04650000000000E+0003	 1.26429956661789E-0001	
 1.04850000000000E+0003	 1.27373803942054E-0001	
 1.05050000000000E+0003	 1.28474151222320E-0001	
 1.05250000000000E+0003	 1.29575498502585E-0001	
 1.05450000000000E+0003	 1.30487345782850E-0001	
 1.05650000000000E+0003	 1.31092693063116E-0001	
 1.05850000000000E+0003	 1.31390040343381E-0001	
 1.06050000000000E+0003	 1.31472887623646E-0001	
 1.06250000000000E+0003	 1.31513734903912E-0001	
 1.06450000000000E+0003	 1.31701082184177E-0001	
 1.06650000000000E+0003	 1.32136429464442E-0001	
 1.06850000000000E+0003	 1.32809776744708E-0001	
 1.07050000000000E+0003	 1.33638124024973E-0001	
 1.07250000000000E+0003	 1.34493471305239E-0001	
 1.07450000000000E+0003	 1.35270818585504E-0001	
 1.07650000000000E+0003	 1.35901665865769E-0001	
 1.07850000000000E+0003	 1.36348013146035E-0001	
 1.08050000000000E+0003	 1.36546860426300E-0001	
 1.08250000000000E+0003	 1.36439207706565E-0001	
 1.08450000000000E+0003	 1.35896554986831E-0001	
 1.08650000000000E+0003	 1.34789402267096E-0001	
 1.08850000000000E+0003	 1.33098749547361E-0001	
 1.09050000000000E+0003	 1.31023596827627E-0001	
 1.09250000000000E+0003	 1.28933444107892E-0001	
 1.09450000000000E+0003	 1.27163291388157E-0001	
 1.09650000000000E+0003	 1.25811638668423E-0001	
 1.09850000000000E+0003	 1.24754985948688E-0001	
 1.10050000000000E+0003	 1.23780333228953E-0001	
 1.10250000000000E+0003	 1.22748680509219E-0001	
 1.10450000000000E+0003	 1.21643527789484E-0001	
 1.10650000000000E+0003	 1.20529375069749E-0001	
 1.10850000000000E+0003	 1.19546222350015E-0001	
 1.11050000000000E+0003	 1.18814069630280E-0001	
 1.11250000000000E+0003	 1.18367916910545E-0001	
 1.11450000000000E+0003	 1.18070264190811E-0001	
 1.11650000000000E+0003	 1.17770611471076E-0001	
 1.11850000000000E+0003	 1.17320458751341E-0001	
 1.12050000000000E+0003	 1.16638306031607E-0001	
 1.12250000000000E+0003	 1.15668153311872E-0001	
 1.12450000000000E+0003	 1.14430000592137E-0001	
 1.12650000000000E+0003	 1.12966847872403E-0001	
 1.12850000000000E+0003	 1.11373695152668E-0001	
 1.13050000000000E+0003	 1.09662542432933E-0001	
 1.13250000000000E+0003	 1.07920389713199E-0001	
 1.13450000000000E+0003	 1.06240236993464E-0001	
 1.13650000000000E+0003	 1.04693584273729E-0001	
 1.13850000000000E+0003	 1.03319431553995E-0001	
 1.14050000000000E+0003	 1.02189778834260E-0001	
 1.14250000000000E+0003	 1.01321626114525E-0001	
 1.14450000000000E+0003	 1.00702473394791E-0001	
 1.14650000000000E+0003	 1.00254320675056E-0001	
 1.14850000000000E+0003	 9.98751679553214E-0002	
 1.15050000000000E+0003	 9.94205152355868E-0002	
 1.15250000000000E+0003	 9.88273625158521E-0002	
 1.15450000000000E+0003	 9.80997097961175E-0002	
 1.15650000000000E+0003	 9.72990570763828E-0002	
 1.15850000000000E+0003	 9.64794043566481E-0002	
 1.16050000000000E+0003	 9.56692516369135E-0002	
 1.16250000000000E+0003	 9.48325989171788E-0002	
 1.16450000000000E+0003	 9.39399461974442E-0002	
 1.16650000000000E+0003	 9.29747934777095E-0002	
 1.16850000000000E+0003	 9.19861407579748E-0002	
 1.17050000000000E+0003	 9.10024880382402E-0002	
 1.17250000000000E+0003	 9.00088353185055E-0002	
 1.17450000000000E+0003	 8.89641825987709E-0002	
 1.17650000000000E+0003	 8.79075298790362E-0002	
 1.17850000000000E+0003	 8.69073771593015E-0002	
 1.18050000000000E+0003	 8.60552244395669E-0002	
 1.18250000000000E+0003	 8.53945717198322E-0002	
 1.18450000000000E+0003	 8.49774190000976E-0002	
 1.18650000000000E+0003	 8.48082662803629E-0002	
 1.18850000000000E+0003	 8.49026135606282E-0002	
 1.19050000000000E+0003	 8.52249608408936E-0002	
 1.19250000000000E+0003	 8.57783081211589E-0002	
 1.19450000000000E+0003	 8.65431554014243E-0002	
 1.19650000000000E+0003	 8.75205026816896E-0002	
 1.19850000000000E+0003	 8.86668499619549E-0002	
 1.20050000000000E+0003	 8.99486972422203E-0002	
 1.20250000000000E+0003	 9.13015445224856E-0002	
 1.20450000000000E+0003	 9.26908918027510E-0002	
 1.20650000000000E+0003	 9.40562390830163E-0002	
 1.20850000000000E+0003	 9.53905863632816E-0002	
 1.21050000000000E+0003	 9.66939336435470E-0002	
 1.21250000000000E+0003	 9.80167809238123E-0002	
 1.21450000000000E+0003	 9.93681282040777E-0002	
 1.21650000000000E+0003	 1.00714975484343E-0001	
 1.21850000000000E+0003	 1.01998322764608E-0001	
 1.22050000000000E+0003	 1.03158170044874E-0001	
 1.22250000000000E+0003	 1.04154017325139E-0001	
 1.22450000000000E+0003	 1.05010864605404E-0001	
 1.22650000000000E+0003	 1.05814211885670E-0001	
 1.22850000000000E+0003	 1.06588559165935E-0001	
 1.23050000000000E+0003	 1.07329906446200E-0001	
 1.23250000000000E+0003	 1.07988253726466E-0001	
 1.23450000000000E+0003	 1.08546601006731E-0001	
 1.23650000000000E+0003	 1.08955948286996E-0001	
 1.23850000000000E+0003	 1.09215295567262E-0001	
 1.24050000000000E+0003	 1.09284142847527E-0001	
 1.24250000000000E+0003	 1.09173490127792E-0001	
 1.24450000000000E+0003	 1.08851837408058E-0001	
 1.24650000000000E+0003	 1.08355184688323E-0001	
 1.24850000000000E+0003	 1.07664531968588E-0001	
 1.25050000000000E+0003	 1.06825879248854E-0001	
 1.25250000000000E+0003	 1.05851726529119E-0001	
 1.25450000000000E+0003	 1.04812573809384E-0001	
 1.25650000000000E+0003	 1.03723421089650E-0001	
 1.25850000000000E+0003	 1.02642268369915E-0001	
 1.26050000000000E+0003	 1.01569115650180E-0001	
 1.26250000000000E+0003	 1.00526962930446E-0001	
 1.26450000000000E+0003	 9.94908102107112E-0002	
 1.26650000000000E+0003	 9.85116574909765E-0002	
 1.26850000000000E+0003	 9.76035047712418E-0002	
 1.27050000000000E+0003	 9.68023520515072E-0002	
 1.27250000000000E+0003	 9.60931993317725E-0002	
 1.27450000000000E+0003	 9.54890466120379E-0002	
 1.27650000000000E+0003	 9.49683938923032E-0002	
 1.27850000000000E+0003	 9.45442411725685E-0002	
 1.28050000000000E+0003	 9.41775884528339E-0002	
 1.28250000000000E+0003	 9.38354357330992E-0002	
 1.28450000000000E+0003	 9.34707830133645E-0002	
 1.28650000000000E+0003	 9.31061302936299E-0002	
 1.28850000000000E+0003	 9.27829775738952E-0002	
 1.29050000000000E+0003	 9.25458248541606E-0002	
 1.29250000000000E+0003	 9.23631721344259E-0002	
 1.29450000000000E+0003	 9.22165194146912E-0002	
 1.29650000000000E+0003	 9.21223666949566E-0002	
 1.29850000000000E+0003	 9.21262139752219E-0002	
 1.30050000000000E+0003	 9.21925612554873E-0002	
 1.30250000000000E+0003	 9.22874085357526E-0002	
 1.30450000000000E+0003	 9.23657558160179E-0002	
 1.30650000000000E+0003	 9.24371030962833E-0002	
 1.30850000000000E+0003	 9.25009503765486E-0002	
 1.31050000000000E+0003	 9.25452976568140E-0002	
 1.31250000000000E+0003	 9.25471449370793E-0002	
 1.31450000000000E+0003	 9.25134922173446E-0002	
 1.31650000000000E+0003	 9.24023394976100E-0002	
 1.31850000000000E+0003	 9.22396867778753E-0002	
 1.32050000000000E+0003	 9.20000340581407E-0002	
 1.32250000000000E+0003	 9.17258813384060E-0002	
 1.32450000000000E+0003	 9.14597286186713E-0002	
 1.32650000000000E+0003	 9.12445758989367E-0002	
 1.32850000000000E+0003	 9.11004231792020E-0002	
 1.33050000000000E+0003	 9.10432704594674E-0002	
 1.33250000000000E+0003	 9.10246177397327E-0002	
 1.33450000000000E+0003	 9.09454650199980E-0002	
 1.33650000000000E+0003	 9.07523123002634E-0002	
 1.33850000000000E+0003	 9.05991595805287E-0002	
 1.34050000000000E+0003	 9.06130068607941E-0002	
 1.34250000000000E+0003	 9.05833541410594E-0002	
 1.34450000000000E+0003	 9.03932014213247E-0002	
 1.34650000000000E+0003	 9.01200487015901E-0002	
 1.34850000000000E+0003	 8.98793959818554E-0002	
 1.35050000000000E+0003	 8.97182432621208E-0002	
 1.35250000000000E+0003	 8.96305905423861E-0002	
 1.35450000000000E+0003	 8.96374378226514E-0002	
 1.35650000000000E+0003	 8.97147851029168E-0002	
 1.35850000000000E+0003	 8.97771323831821E-0002	
 1.36050000000000E+0003	 8.98209796634475E-0002	
 1.36250000000000E+0003	 9.02278269437128E-0002	
 1.36450000000000E+0003	 9.10701742239781E-0002	
 1.36650000000000E+0003	 9.20765215042435E-0002	
 1.36850000000000E+0003	 9.30838687845088E-0002	
 1.37050000000000E+0003	 9.39007160647742E-0002	
 1.37250000000000E+0003	 9.45805633450395E-0002	
 1.37450000000000E+0003	 9.54874106253048E-0002	
 1.37650000000000E+0003	 9.63397579055702E-0002	
 1.37850000000000E+0003	 9.70781051858355E-0002	
 1.38050000000000E+0003	 9.77784524661009E-0002	
 1.38250000000000E+0003	 9.85147997463662E-0002	
 1.38450000000000E+0003	 9.89736470266315E-0002	
 1.38650000000000E+0003	 9.91229943068969E-0002	
 1.38850000000000E+0003	 9.94088415871622E-0002	
 1.39050000000000E+0003	 9.99356888674276E-0002	
 1.39250000000000E+0003	 1.00222036147693E-0001	
 1.39450000000000E+0003	 1.00581383427958E-0001	
 1.39650000000000E+0003	 1.01166730708224E-0001	
 1.39850000000000E+0003	 1.01820077988489E-0001	
 1.40050000000000E+0003	 1.02197925268754E-0001	
 1.40250000000000E+0003	 1.02209772549020E-0001	
 1.40450000000000E+0003	 1.02118619829285E-0001	
 1.40650000000000E+0003	 1.01818467109550E-0001	
 1.40850000000000E+0003	 1.01470814389816E-0001	
 1.41050000000000E+0003	 1.01102161670081E-0001	
 1.41250000000000E+0003	 1.00714008950346E-0001	
 1.41450000000000E+0003	 1.00226356230612E-0001	
 1.41650000000000E+0003	 9.94812035108770E-0002	
 1.41850000000000E+0003	 9.86600507911423E-0002	
 1.42050000000000E+0003	 9.80843980714077E-0002	
 1.42250000000000E+0003	 9.78587453516730E-0002	
 1.42450000000000E+0003	 9.74920926319383E-0002	
 1.42650000000000E+0003	 9.66899399122037E-0002	
 1.42850000000000E+0003	 9.61682871924690E-0002	
 1.43050000000000E+0003	 9.58751344727344E-0002	
 1.43250000000000E+0003	 9.57054817529997E-0002	
 1.43450000000000E+0003	 9.55678290332650E-0002	
 1.43650000000000E+0003	 9.60211763135304E-0002	
 1.43850000000000E+0003	 9.68095235937957E-0002	
 1.44050000000000E+0003	 9.77928708740611E-0002	
 1.44250000000000E+0003	 9.85637181543264E-0002	
 1.44450000000000E+0003	 9.91070654345917E-0002	
 1.44650000000000E+0003	 9.96444127148571E-0002	
 1.44850000000000E+0003	 1.00363259995122E-0001	
 1.45050000000000E+0003	 1.00885607275388E-0001	
 1.45250000000000E+0003	 1.01215954555653E-0001	
 1.45450000000000E+0003	 1.00773301835918E-0001	
 1.45650000000000E+0003	 1.00032649116184E-0001	
 1.45850000000000E+0003	 9.95429963964491E-0002	
 1.46050000000000E+0003	 9.93418436767145E-0002	
 1.46250000000000E+0003	 9.86401909569798E-0002	
 1.46450000000000E+0003	 9.77990382372451E-0002	
 1.46650000000000E+0003	 9.68263855175105E-0002	
 1.46850000000000E+0003	 9.58257327977758E-0002	
 1.47050000000000E+0003	 9.43705800780412E-0002	
 1.47250000000000E+0003	 9.25219273583065E-0002	
 1.47450000000000E+0003	 9.08257746385718E-0002	
 1.47650000000000E+0003	 9.00146219188372E-0002	
 1.47850000000000E+0003	 8.92784691991025E-0002	
 1.48050000000000E+0003	 8.87983164793679E-0002	
 1.48250000000000E+0003	 8.85616637596332E-0002	
 1.48450000000000E+0003	 8.84470110398985E-0002	
 1.48650000000000E+0003	 8.85923583201639E-0002	
 1.48850000000000E+0003	 8.90622056004292E-0002	
 1.49050000000000E+0003	 9.02080528806946E-0002	
 1.49250000000000E+0003	 9.11824001609599E-0002	
 1.49450000000000E+0003	 9.19067474412252E-0002	
 1.49650000000000E+0003	 9.31855947214906E-0002	
 1.49850000000000E+0003	 9.49099420017559E-0002	
 1.50050000000000E+0003	 9.67067892820213E-0002	
 1.50250000000000E+0003	 9.80676365622866E-0002	
 1.50450000000000E+0003	 9.91329838425519E-0002	
 1.50650000000000E+0003	 1.01408831122817E-0001	
 1.50850000000000E+0003	 1.04703678403083E-0001	
 1.51050000000000E+0003	 1.07897525683348E-0001	
 1.51250000000000E+0003	 1.11218372963613E-0001	
 1.51450000000000E+0003	 1.14184220243879E-0001	
 1.51650000000000E+0003	 1.17071067524144E-0001	
 1.51850000000000E+0003	 1.18777914804409E-0001	
 1.52050000000000E+0003	 1.20156762084675E-0001	
 1.52250000000000E+0003	 1.22710109364940E-0001	
 1.52450000000000E+0003	 1.25402456645205E-0001	
 1.52650000000000E+0003	 1.28238803925471E-0001	
 1.52850000000000E+0003	 1.31068651205736E-0001	
 1.53050000000000E+0003	 1.33296498486001E-0001	
 1.53250000000000E+0003	 1.35632845766267E-0001	
 1.53450000000000E+0003	 1.38066693046532E-0001	
 1.53650000000000E+0003	 1.39338540326797E-0001	
 1.53850000000000E+0003	 1.40502387607063E-0001	
 1.54050000000000E+0003	 1.42241234887328E-0001	
 1.54250000000000E+0003	 1.43986582167593E-0001	
 1.54450000000000E+0003	 1.45555929447859E-0001	
 1.54650000000000E+0003	 1.46362776728124E-0001	
 1.54850000000000E+0003	 1.46202624008389E-0001	
 1.55050000000000E+0003	 1.45119471288655E-0001	
 1.55250000000000E+0003	 1.43060318568920E-0001	
 1.55450000000000E+0003	 1.40317165849185E-0001	
 1.55650000000000E+0003	 1.37290013129451E-0001	
 1.55850000000000E+0003	 1.34585360409716E-0001	
 1.56050000000000E+0003	 1.30863207689981E-0001	
 1.56250000000000E+0003	 1.28977054970247E-0001	
 1.56450000000000E+0003	 1.27760902250512E-0001	
 1.56650000000000E+0003	 1.25496749530777E-0001	
 1.56850000000000E+0003	 1.23407596811043E-0001	
 1.57050000000000E+0003	 1.21362444091308E-0001	
 1.57250000000000E+0003	 1.19214791371574E-0001	
 1.57450000000000E+0003	 1.17373638651839E-0001	
 1.57650000000000E+0003	 1.15539985932104E-0001	
 1.57850000000000E+0003	 1.14264333212370E-0001	
 1.58050000000000E+0003	 1.13593180492635E-0001	
 1.58250000000000E+0003	 1.12754027772900E-0001	
 1.58450000000000E+0003	 1.11995875053166E-0001	
 1.58650000000000E+0003	 1.11611722333431E-0001	
 1.58850000000000E+0003	 1.11642569613696E-0001	
 1.59050000000000E+0003	 1.12125416893962E-0001	
 1.59250000000000E+0003	 1.13006264174227E-0001	
 1.59450000000000E+0003	 1.14292111454492E-0001	
 1.59650000000000E+0003	 1.15837458734758E-0001	
 1.59850000000000E+0003	 1.17628806015023E-0001	
 1.60050000000000E+0003	 1.19700653295288E-0001	
 1.60250000000000E+0003	 1.22136500575554E-0001	
 1.60450000000000E+0003	 1.24835347855819E-0001	
 1.60650000000000E+0003	 1.27860695136084E-0001	
 1.60850000000000E+0003	 1.31367042416350E-0001	
 1.61050000000000E+0003	 1.35321889696615E-0001	
 1.61250000000000E+0003	 1.39331236976880E-0001	
 1.61450000000000E+0003	 1.43243084257146E-0001	
 1.61650000000000E+0003	 1.48276931537411E-0001	
 1.61850000000000E+0003	 1.54118278817676E-0001	
 1.62050000000000E+0003	 1.59413626097942E-0001	
 1.62250000000000E+0003	 1.65250973378207E-0001	
 1.62450000000000E+0003	 1.71257820658472E-0001	
 1.62650000000000E+0003	 1.76827167938738E-0001	
 1.62850000000000E+0003	 1.82498515219003E-0001	
 1.63050000000000E+0003	 1.87526862499268E-0001	
 1.63250000000000E+0003	 1.91540209779534E-0001	
 1.63450000000000E+0003	 1.95607557059799E-0001	
 1.63650000000000E+0003	 1.99904904340064E-0001	
 1.63850000000000E+0003	 2.03075751620330E-0001	
 1.64050000000000E+0003	 2.05529098900595E-0001	
 1.64250000000000E+0003	 2.07236446180860E-0001	
 1.64450000000000E+0003	 2.08343793461126E-0001	
 1.64650000000000E+0003	 2.10139140741391E-0001	
 1.64850000000000E+0003	 2.11689988021656E-0001	
 1.65050000000000E+0003	 2.11865335301922E-0001	
 1.65250000000000E+0003	 2.12372182582187E-0001	
 1.65450000000000E+0003	 2.13332529862452E-0001	
 1.65650000000000E+0003	 2.13729377142718E-0001	
 1.65850000000000E+0003	 2.13260224422983E-0001	
 1.66050000000000E+0003	 2.11142571703248E-0001	
 1.66250000000000E+0003	 2.08284918983514E-0001	
 1.66450000000000E+0003	 2.04532766263779E-0001	
 1.66650000000000E+0003	 2.01022613544044E-0001	
 1.66850000000000E+0003	 1.97536960824310E-0001	
 1.67050000000000E+0003	 1.93587808104575E-0001	
 1.67250000000000E+0003	 1.89697655384841E-0001	
 1.67450000000000E+0003	 1.86415002665106E-0001	
 1.67650000000000E+0003	 1.82502849945371E-0001	
 1.67850000000000E+0003	 1.79024697225637E-0001	
 1.68050000000000E+0003	 1.75595044505902E-0001	
 1.68250000000000E+0003	 1.71898391786167E-0001	
 1.68450000000000E+0003	 1.67726239066433E-0001	
 1.68650000000000E+0003	 1.63609086346698E-0001	
 1.68850000000000E+0003	 1.61066933626963E-0001	
 1.69050000000000E+0003	 1.57765780907229E-0001	
 1.69250000000000E+0003	 1.53765628187494E-0001	
 1.69450000000000E+0003	 1.49637475467759E-0001	
 1.69650000000000E+0003	 1.44875822748025E-0001	
 1.69850000000000E+0003	 1.41069670028290E-0001	
 1.70050000000000E+0003	 1.37910017308555E-0001	
 1.70250000000000E+0003	 1.33811864588821E-0001	
 1.70450000000000E+0003	 1.31707711869086E-0001	
 1.70650000000000E+0003	 1.29451059149351E-0001	
 1.70850000000000E+0003	 1.26973406429617E-0001	
 1.71050000000000E+0003	 1.24746253709882E-0001	
 1.71250000000000E+0003	 1.22448100990147E-0001	
 1.71450000000000E+0003	 1.19802448270413E-0001	
 1.71650000000000E+0003	 1.16940795550678E-0001	
 1.71850000000000E+0003	 1.14511642830943E-0001	
 1.72050000000000E+0003	 1.12288990111209E-0001	
 1.72250000000000E+0003	 1.10335337391474E-0001	
 1.72450000000000E+0003	 1.08055684671739E-0001	
 1.72650000000000E+0003	 1.05808031952005E-0001	
 1.72850000000000E+0003	 1.03834879232270E-0001	
 1.73050000000000E+0003	 1.01770726512535E-0001	
 1.73250000000000E+0003	 9.96900737928007E-0002	
 1.73450000000000E+0003	 9.82549210730660E-0002	
 1.73650000000000E+0003	 9.69742683533314E-0002	
 1.73850000000000E+0003	 9.66086156335967E-0002	
 1.74050000000000E+0003	 9.57869629138621E-0002	
 1.74250000000000E+0003	 9.46963101941274E-0002	
 1.74450000000000E+0003	 9.37976574743927E-0002	
 1.74650000000000E+0003	 9.28115047546581E-0002	
 1.74850000000000E+0003	 9.16513520349234E-0002	
 1.75050000000000E+0003	 9.02931993151888E-0002	
 1.75250000000000E+0003	 8.88490465954541E-0002	
 1.75450000000000E+0003	 8.75978938757194E-0002	
 1.75650000000000E+0003	 8.64402411559848E-0002	
 1.75850000000000E+0003	 8.48985884362501E-0002	
 1.76050000000000E+0003	 8.36394357165155E-0002	
 1.76250000000000E+0003	 8.25597829967808E-0002	
 1.76450000000000E+0003	 8.14671302770461E-0002	
 1.76650000000000E+0003	 8.05289775573115E-0002	
 1.76850000000000E+0003	 7.94618248375768E-0002	
 1.77050000000000E+0003	 7.85706721178422E-0002	
 1.77250000000000E+0003	 7.79505193981075E-0002	
 1.77450000000000E+0003	 7.72238666783728E-0002	
 1.77650000000000E+0003	 7.69337139586382E-0002	
 1.77850000000000E+0003	 7.65085612389035E-0002	
 1.78050000000000E+0003	 7.60549085191689E-0002	
 1.78250000000000E+0003	 7.54232557994342E-0002	
 1.78450000000000E+0003	 7.49456030796995E-0002	
 1.78650000000000E+0003	 7.45249503599649E-0002	
 1.78850000000000E+0003	 7.40142976402302E-0002	
 1.79050000000000E+0003	 7.35221449204956E-0002	
 1.79250000000000E+0003	 7.32149922007609E-0002	
 1.79450000000000E+0003	 7.27668394810262E-0002	
 1.79650000000000E+0003	 7.25406867612916E-0002	
 1.79850000000000E+0003	 7.23080340415569E-0002	
 1.80050000000000E+0003	 7.19248813218223E-0002	
 1.80250000000000E+0003	 7.14557286020876E-0002	
 1.80450000000000E+0003	 7.12145758823529E-0002	
 1.80650000000000E+0003	 7.09584231626183E-0002	
 1.80850000000000E+0003	 7.06882704428836E-0002	
 1.81050000000000E+0003	 7.04656177231490E-0002	
 1.81250000000000E+0003	 7.01944650034143E-0002	
 1.81450000000000E+0003	 6.98733122836796E-0002	
 1.81650000000000E+0003	 6.96666595639450E-0002	
 1.81850000000000E+0003	 6.94235068442103E-0002	
 1.82050000000000E+0003	 6.91898541244757E-0002	
 1.82250000000000E+0003	 6.88592014047410E-0002	
 1.82450000000000E+0003	 6.86825486850063E-0002	
 1.82650000000000E+0003	 6.83508959652717E-0002	
 1.82850000000000E+0003	 6.81627432455370E-0002	
 1.83050000000000E+0003	 6.81395905258024E-0002	
 1.83250000000000E+0003	 6.78564378060677E-0002	
 1.83450000000000E+0003	 6.77547850863330E-0002	
 1.83650000000000E+0003	 6.76516323665984E-0002	
 1.83850000000000E+0003	 6.75004796468637E-0002	
 1.84050000000000E+0003	 6.71458269271291E-0002	
 1.84250000000000E+0003	 6.68401742073944E-0002	
 1.84450000000000E+0003	 6.67565214876597E-0002	
 1.84650000000000E+0003	 6.65583687679251E-0002	
 1.84850000000000E+0003	 6.66092160481904E-0002	
 1.85050000000000E+0003	 6.65900633284558E-0002	
 1.85250000000000E+0003	 6.64859106087211E-0002	
 1.85450000000000E+0003	 6.63587578889864E-0002	
 1.85650000000000E+0003	 6.62311051692518E-0002	
 1.85850000000000E+0003	 6.61029524495171E-0002	
 1.86050000000000E+0003	 6.59982997297825E-0002	
 1.86250000000000E+0003	 6.58901470100478E-0002	
 1.86450000000000E+0003	 6.57209942903131E-0002	
 1.86650000000000E+0003	 6.55313415705785E-0002	
 1.86850000000000E+0003	 6.55081888508438E-0002	
 1.87050000000000E+0003	 6.54270361311092E-0002	
 1.87250000000000E+0003	 6.53703834113745E-0002	
 1.87450000000000E+0003	 6.53877306916398E-0002	
 1.87650000000000E+0003	 6.53120779719052E-0002	
 1.87850000000000E+0003	 6.52269252521705E-0002	
 1.88050000000000E+0003	 6.51512725324359E-0002	
 1.88250000000000E+0003	 6.50871198127012E-0002	
 1.88450000000000E+0003	 6.50114670929665E-0002	
 1.88650000000000E+0003	 6.48673143732319E-0002	
 1.88850000000000E+0003	 6.47976616534972E-0002	
 1.89050000000000E+0003	 6.47825089337626E-0002	
 1.89250000000000E+0003	 6.46778562140279E-0002	
 1.89450000000000E+0003	 6.46872034942932E-0002	
 1.89650000000000E+0003	 6.46495507745586E-0002	
 1.89850000000000E+0003	 6.45988980548239E-0002	
 1.90050000000000E+0003	 6.45507453350893E-0002	
 1.90250000000000E+0003	 6.45120926153546E-0002	
 1.90450000000000E+0003	 6.44519398956199E-0002	
 1.90650000000000E+0003	 6.43787871758853E-0002	
 1.90850000000000E+0003	 6.43226344561506E-0002	
 1.91050000000000E+0003	 6.43259817364160E-0002	
 1.91250000000000E+0003	 6.42938290166813E-0002	
 1.91450000000000E+0003	 6.42091762969466E-0002	
 1.91650000000000E+0003	 6.41410235772120E-0002	
 1.91850000000000E+0003	 6.41493708574773E-0002	
 1.92050000000000E+0003	 6.39997181377427E-0002	
 1.92250000000000E+0003	 6.40470654180080E-0002	
 1.92450000000000E+0003	 6.40719126982733E-0002	
 1.92650000000000E+0003	 6.40877599785387E-0002	
 1.92850000000000E+0003	 6.40846072588040E-0002	
 1.93050000000000E+0003	 6.40679545390694E-0002	
 1.93250000000000E+0003	 6.40373018193347E-0002	
 1.93450000000000E+0003	 6.40381490996000E-0002	
 1.93650000000000E+0003	 6.40239963798654E-0002	
 1.93850000000000E+0003	 6.39793436601307E-0002	
 1.94050000000000E+0003	 6.38986909403961E-0002	
 1.94250000000000E+0003	 6.39345382206614E-0002	
 1.94450000000000E+0003	 6.39308855009267E-0002	
 1.94650000000000E+0003	 6.39692327811921E-0002	
 1.94850000000000E+0003	 6.39850800614574E-0002	
 1.95050000000000E+0003	 6.39864273417228E-0002	
 1.95250000000000E+0003	 6.39757746219881E-0002	
 1.95450000000000E+0003	 6.39861219022534E-0002	
 1.95650000000000E+0003	 6.39899691825188E-0002	
 1.95850000000000E+0003	 6.39963164627841E-0002	
 1.96050000000000E+0003	 6.39976637430495E-0002	
 1.96250000000000E+0003	 6.39920110233148E-0002	
 1.96450000000000E+0003	 6.39488583035801E-0002	
 1.96650000000000E+0003	 6.39492055838455E-0002	
 1.96850000000000E+0003	 6.39720528641108E-0002	
 1.97050000000000E+0003	 6.39964001443762E-0002	
 1.97250000000000E+0003	 6.40217474246415E-0002	
 1.97450000000000E+0003	 6.40280947049068E-0002	
 1.97650000000000E+0003	 6.40319419851722E-0002	
 1.97850000000000E+0003	 6.40397892654375E-0002	
 1.98050000000000E+0003	 6.40486365457029E-0002	
 1.98250000000000E+0003	 6.40539838259682E-0002	
 1.98450000000000E+0003	 6.40533311062335E-0002	
 1.98650000000000E+0003	 6.40421783864989E-0002	
 1.98850000000000E+0003	 6.40130256667642E-0002	
 1.99050000000000E+0003	 6.39933729470296E-0002	
 1.99250000000000E+0003	 6.40422202272949E-0002	
 1.99450000000000E+0003	 6.40725675075602E-0002	
 1.99650000000000E+0003	 6.41189147878256E-0002	
 1.99850000000000E+0003	 6.41442620680909E-0002	
 2.00050000000000E+0003	 6.41621093483563E-0002	
 2.00250000000000E+0003	 6.41744566286216E-0002	
 2.00450000000000E+0003	 6.41908039088869E-0002	
 2.00650000000000E+0003	 6.42006511891523E-0002	
 2.00850000000000E+0003	 6.42209984694176E-0002	
 2.01050000000000E+0003	 6.42413457496830E-0002	
 2.01250000000000E+0003	 6.42536930299483E-0002	
 2.01450000000000E+0003	 6.42390403102136E-0002	
 2.01650000000000E+0003	 6.42518875904790E-0002	
 2.01850000000000E+0003	 6.42857348707443E-0002	
 2.02050000000000E+0003	 6.43295821510097E-0002	
 2.02250000000000E+0003	 6.43699294312750E-0002	
 2.02450000000000E+0003	 6.43992767115403E-0002	
 2.02650000000000E+0003	 6.44231239918057E-0002	
 2.02850000000000E+0003	 6.44509712720710E-0002	
 2.03050000000000E+0003	 6.44748185523364E-0002	
 2.03250000000000E+0003	 6.44976658326017E-0002	
 2.03450000000000E+0003	 6.45195131128670E-0002	
 2.03650000000000E+0003	 6.45358603931324E-0002	
 2.03850000000000E+0003	 6.45382076733977E-0002	
 2.04050000000000E+0003	 6.45475549536631E-0002	
 2.04250000000000E+0003	 6.45674022339284E-0002	
 2.04450000000000E+0003	 6.45937495141937E-0002	
 2.04650000000000E+0003	 6.46160967944591E-0002	
 2.04850000000000E+0003	 6.46334440747244E-0002	
 2.05050000000000E+0003	 6.46442913549898E-0002	
 2.05250000000000E+0003	 6.46546386352551E-0002	
 2.05450000000000E+0003	 6.46614859155204E-0002	
 2.05650000000000E+0003	 6.46688331957858E-0002	
 2.05850000000000E+0003	 6.46736804760511E-0002	
 2.06050000000000E+0003	 6.46760277563165E-0002	
 2.06250000000000E+0003	 6.46588750365818E-0002	
 2.06450000000000E+0003	 6.46562223168471E-0002	
 2.06650000000000E+0003	 6.46730695971125E-0002	
 2.06850000000000E+0003	 6.46929168773778E-0002	
 2.07050000000000E+0003	 6.47017641576432E-0002	
 2.07250000000000E+0003	 6.47031114379085E-0002	
 2.07450000000000E+0003	 6.47009587181738E-0002	
 2.07650000000000E+0003	 6.47018059984392E-0002	
 2.07850000000000E+0003	 6.47021532787045E-0002	
 2.08050000000000E+0003	 6.47015005589699E-0002	
 2.08250000000000E+0003	 6.46968478392352E-0002	
 2.08450000000000E+0003	 6.46926951195005E-0002	
 2.08650000000000E+0003	 6.46810423997659E-0002	
 2.08850000000000E+0003	 6.46648896800312E-0002	
 2.09050000000000E+0003	 6.46572369602966E-0002	
 2.09250000000000E+0003	 6.46565842405619E-0002	
 2.09450000000000E+0003	 6.46519315208272E-0002	
 2.09650000000000E+0003	 6.46402788010926E-0002	
 2.09850000000000E+0003	 6.46296260813579E-0002	
 2.10050000000000E+0003	 6.46194733616233E-0002	
 2.10250000000000E+0003	 6.46078206418886E-0002	
 2.10450000000000E+0003	 6.45901679221539E-0002	
 2.10650000000000E+0003	 6.45740152024193E-0002	
 2.10850000000000E+0003	 6.45558624826846E-0002	
 2.11050000000000E+0003	 6.45387097629500E-0002	
 2.11250000000000E+0003	 6.45190570432153E-0002	
 2.11450000000000E+0003	 6.45004043234806E-0002	
 2.11650000000000E+0003	 6.44807516037460E-0002	
 2.11850000000000E+0003	 6.44640988840113E-0002	
 2.12050000000000E+0003	 6.44434461642767E-0002	
 2.12250000000000E+0003	 6.44187934445420E-0002	
 2.12450000000000E+0003	 6.43926407248073E-0002	
 2.12650000000000E+0003	 6.43709880050727E-0002	
 2.12850000000000E+0003	 6.43483352853380E-0002	
 2.13050000000000E+0003	 6.43276825656034E-0002	
 2.13250000000000E+0003	 6.43015298458687E-0002	
 2.13450000000000E+0003	 6.42733771261340E-0002	
 2.13650000000000E+0003	 6.42422244063994E-0002	
 2.13850000000000E+0003	 6.42175716866647E-0002	
 2.14050000000000E+0003	 6.41924189669301E-0002	
 2.14250000000000E+0003	 6.41662662471954E-0002	
 2.14450000000000E+0003	 6.41371135274607E-0002	
 2.14650000000000E+0003	 6.41119608077261E-0002	
 2.14850000000000E+0003	 6.40863080879914E-0002	
 2.15050000000000E+0003	 6.40576553682568E-0002	
 2.15250000000000E+0003	 6.40245026485221E-0002	
 2.15450000000000E+0003	 6.39933499287874E-0002	
 2.15650000000000E+0003	 6.39606972090528E-0002	
 2.15850000000000E+0003	 6.39260444893181E-0002	
 2.16050000000000E+0003	 6.38878917695835E-0002	
 2.16250000000000E+0003	 6.38512390498488E-0002	
 2.16450000000000E+0003	 6.38165863301141E-0002	
 2.16650000000000E+0003	 6.37899336103795E-0002	
 2.16850000000000E+0003	 6.37657808906448E-0002	
 2.17050000000000E+0003	 6.37326281709102E-0002	
 2.17250000000000E+0003	 6.36859754511755E-0002	
 2.17450000000000E+0003	 6.36408227314408E-0002	
 2.17650000000000E+0003	 6.36006700117062E-0002	
 2.17850000000000E+0003	 6.35615172919715E-0002	
 2.18050000000000E+0003	 6.35228645722369E-0002	
 2.18250000000000E+0003	 6.34857118525022E-0002	
 2.18450000000000E+0003	 6.34515591327675E-0002	
 2.18650000000000E+0003	 6.34184064130329E-0002	
 2.18850000000000E+0003	 6.33822536932982E-0002	
 2.19050000000000E+0003	 6.33451009735636E-0002	
 2.19250000000000E+0003	 6.33119482538289E-0002	
 2.19450000000000E+0003	 6.32767955340942E-0002	
 2.19650000000000E+0003	 6.32421428143596E-0002	
 2.19850000000000E+0003	 6.32044900946249E-0002	
 2.20050000000000E+0003	 6.31703373748903E-0002	
 2.20250000000000E+0003	 6.31341846551556E-0002	
 2.20450000000000E+0003	 6.30985319354209E-0002	
 2.20650000000000E+0003	 6.30653792156863E-0002	
 2.20850000000000E+0003	 6.30342264959516E-0002	
 2.21050000000000E+0003	 6.29985737762170E-0002	
 2.21250000000000E+0003	 6.29639210564823E-0002	
 2.21450000000000E+0003	 6.29297683367476E-0002	
 2.21650000000000E+0003	 6.28986156170130E-0002	
 2.21850000000000E+0003	 6.28704628972783E-0002	
 2.22050000000000E+0003	 6.28403101775437E-0002	
 2.22250000000000E+0003	 6.28036574578090E-0002	
 2.22450000000000E+0003	 6.27670047380743E-0002	
 2.22650000000000E+0003	 6.27343520183397E-0002	
 2.22850000000000E+0003	 6.27011992986050E-0002	
 2.23050000000000E+0003	 6.26700465788704E-0002	
 2.23250000000000E+0003	 6.26398938591357E-0002	
 2.23450000000000E+0003	 6.26107411394010E-0002	
 2.23650000000000E+0003	 6.25785884196664E-0002	
 2.23850000000000E+0003	 6.25474356999317E-0002	
 2.24050000000000E+0003	 6.25157829801971E-0002	
 2.24250000000000E+0003	 6.24916302604624E-0002	
 2.24450000000000E+0003	 6.24679775407277E-0002	
 2.24650000000000E+0003	 6.24403248209931E-0002	
 2.24850000000000E+0003	 6.24106721012584E-0002	
 2.25050000000000E+0003	 6.23870193815238E-0002	
 2.25250000000000E+0003	 6.23608666617891E-0002	
 2.25450000000000E+0003	 6.23367139420544E-0002	
 2.25650000000000E+0003	 6.23105612223198E-0002	
 2.25850000000000E+0003	 6.22854085025851E-0002	
 2.26050000000000E+0003	 6.22582557828505E-0002	
 2.26250000000000E+0003	 6.22381030631158E-0002	
 2.26450000000000E+0003	 6.22164503433811E-0002	
 2.26650000000000E+0003	 6.21922976236465E-0002	
 2.26850000000000E+0003	 6.21646449039118E-0002	
 2.27050000000000E+0003	 6.21434921841772E-0002	
 2.27250000000000E+0003	 6.21243394644425E-0002	
 2.27450000000000E+0003	 6.21066867447078E-0002	
 2.27650000000000E+0003	 6.20835340249732E-0002	
 2.27850000000000E+0003	 6.20618813052385E-0002	
 2.28050000000000E+0003	 6.20422285855039E-0002	
 2.28250000000000E+0003	 6.20265758657692E-0002	
 2.28450000000000E+0003	 6.20134231460345E-0002	
 2.28650000000000E+0003	 6.20017704262999E-0002	
 2.28850000000000E+0003	 6.19896177065652E-0002	
 2.29050000000000E+0003	 6.19799649868306E-0002	
 2.29250000000000E+0003	 6.19653122670959E-0002	
 2.29450000000000E+0003	 6.19486595473612E-0002	
 2.29650000000000E+0003	 6.19345068276266E-0002	
 2.29850000000000E+0003	 6.19248541078919E-0002	
 2.30050000000000E+0003	 6.19187013881573E-0002	
 2.30250000000000E+0003	 6.19170486684226E-0002	
 2.30450000000000E+0003	 6.19158959486879E-0002	
 2.30650000000000E+0003	 6.19082432289533E-0002	
 2.30850000000000E+0003	 6.18960905092186E-0002	
 2.31050000000000E+0003	 6.18819377894840E-0002	
 2.31250000000000E+0003	 6.18672850697493E-0002	
 2.31450000000000E+0003	 6.18681323500146E-0002	
 2.31650000000000E+0003	 6.18824796302800E-0002	
 2.31850000000000E+0003	 6.18778269105453E-0002	
 2.32050000000000E+0003	 6.18456741908107E-0002	
 2.32250000000000E+0003	 6.18065214710760E-0002	
 2.32450000000000E+0003	 6.17923687513413E-0002	
 2.32650000000000E+0003	 6.18062160316067E-0002	
 2.32850000000000E+0003	 6.17945633118720E-0002	
 2.33050000000000E+0003	 6.17549105921374E-0002	
 2.33250000000000E+0003	 6.17362578724027E-0002	
 2.33450000000000E+0003	 6.17761051526680E-0002	
 2.33650000000000E+0003	 6.18389524329334E-0002	
 2.33850000000000E+0003	 6.18647997131987E-0002	
 2.34050000000000E+0003	 6.18506469934641E-0002	
 2.34250000000000E+0003	 6.18014942737294E-0002	
 2.34450000000000E+0003	 6.17083415539947E-0002	
 2.34650000000000E+0003	 6.16666888342601E-0002	
 2.34850000000000E+0003	 6.17580361145254E-0002	
 2.35050000000000E+0003	 6.17813833947908E-0002	
 2.35250000000000E+0003	 6.17302306750561E-0002	
 2.35450000000000E+0003	 6.17085779553214E-0002	
 2.35650000000000E+0003	 6.17169252355868E-0002	
 2.35850000000000E+0003	 6.17277725158521E-0002	
 2.36050000000000E+0003	 6.17161197961175E-0002	
 2.36250000000000E+0003	 6.17219670763828E-0002	
 2.36450000000000E+0003	 6.17313143566481E-0002	
 2.36650000000000E+0003	 6.17316616369135E-0002	
 2.36850000000000E+0003	 6.17310089171788E-0002	
 2.37050000000000E+0003	 6.17453561974442E-0002	
 2.37250000000000E+0003	 6.17647034777095E-0002	
 2.37450000000000E+0003	 6.17835507579748E-0002	
 2.37650000000000E+0003	 6.17813980382402E-0002	
 2.37850000000000E+0003	 6.17657453185055E-0002	
 2.38050000000000E+0003	 6.17505925987709E-0002	
 2.38250000000000E+0003	 6.17614398790362E-0002	
 2.38450000000000E+0003	 6.17987871593015E-0002	
 2.38650000000000E+0003	 6.18511344395669E-0002	
 2.38850000000000E+0003	 6.18939817198322E-0002	
 2.39050000000000E+0003	 6.19263290000976E-0002	
 2.39250000000000E+0003	 6.19531762803629E-0002	
 2.39450000000000E+0003	 6.19750235606282E-0002	
 2.39650000000000E+0003	 6.19948708408936E-0002	
 2.39850000000000E+0003	 6.20152181211589E-0002	
 2.40050000000000E+0003	 6.20350654014243E-0002	
 2.40250000000000E+0003	 6.20604126816896E-0002	
 2.40450000000000E+0003	 6.20877599619549E-0002	
 2.40650000000000E+0003	 6.21146072422203E-0002	
 2.40850000000000E+0003	 6.21429545224856E-0002	
 2.41050000000000E+0003	 6.21718018027510E-0002	
 2.41250000000000E+0003	 6.22016490830163E-0002	
 2.41450000000000E+0003	 6.22344963632816E-0002	
 2.41650000000000E+0003	 6.22673436435470E-0002	
 2.41850000000000E+0003	 6.22976909238123E-0002	
 2.42050000000000E+0003	 6.23330382040777E-0002	
 2.42250000000000E+0003	 6.23713854843430E-0002	
 2.42450000000000E+0003	 6.24107327646083E-0002	
 2.42650000000000E+0003	 6.24500800448737E-0002	
 2.42850000000000E+0003	 6.24889273251390E-0002	
 2.43050000000000E+0003	 6.25277746054044E-0002	
 2.43250000000000E+0003	 6.25686218856697E-0002	
 2.43450000000000E+0003	 6.26114691659350E-0002	
 2.43650000000000E+0003	 6.26558164462004E-0002	
 2.43850000000000E+0003	 6.26991637264657E-0002	
 2.44050000000000E+0003	 6.27425110067311E-0002	
 2.44250000000000E+0003	 6.27838582869964E-0002	
 2.44450000000000E+0003	 6.28242055672617E-0002	
 2.44650000000000E+0003	 6.28675528475271E-0002	
 2.44850000000000E+0003	 6.29124001277924E-0002	
 2.45050000000000E+0003	 6.29577474080578E-0002	
 2.45250000000000E+0003	 6.30045946883231E-0002	
 2.45450000000000E+0003	 6.30514419685884E-0002	
 2.45650000000000E+0003	 6.30987892488538E-0002	
 2.45850000000000E+0003	 6.31496365291191E-0002	
 2.46050000000000E+0003	 6.31994838093845E-0002	
 2.46250000000000E+0003	 6.32478310896498E-0002	
 2.46450000000000E+0003	 6.32996783699151E-0002	
 2.46650000000000E+0003	 6.33535256501805E-0002	
 2.46850000000000E+0003	 6.34088729304458E-0002	
 2.47050000000000E+0003	 6.34672202107112E-0002	
 2.47250000000000E+0003	 6.35270674909765E-0002	
 2.47450000000000E+0003	 6.35849147712418E-0002	
 2.47650000000000E+0003	 6.36427620515072E-0002	
 2.47850000000000E+0003	 6.37011093317725E-0002	
 2.48050000000000E+0003	 6.37609566120379E-0002	
 2.48250000000000E+0003	 6.38188038923032E-0002	
 2.48450000000000E+0003	 6.38761511725685E-0002	
 2.48650000000000E+0003	 6.39359984528339E-0002	
 2.48850000000000E+0003	 6.39978457330992E-0002	
 2.49050000000000E+0003	 6.40586930133645E-0002	
 2.49250000000000E+0003	 6.41170402936299E-0002	
 2.49450000000000E+0003	 6.41783875738952E-0002	
 2.49650000000000E+0003	 6.42397348541606E-0002	
 2.49850000000000E+0003	 6.42975821344259E-0002	
 2.50050000000000E+0003	 6.43579294146912E-0002	
 2.50250000000000E+0003	 6.44202766949566E-0002	
 2.50450000000000E+0003	 6.44806239752219E-0002	
 2.50650000000000E+0003	 6.45409712554873E-0002	
 2.50850000000000E+0003	 6.45988185357526E-0002	
 2.51050000000000E+0003	 6.46536658160179E-0002	
 2.51250000000000E+0003	 6.47080130962833E-0002	
 2.51450000000000E+0003	 6.47638603765486E-0002	
 2.51650000000000E+0003	 6.48172076568140E-0002	
 2.51850000000000E+0003	 6.48685549370793E-0002	
 2.52050000000000E+0003	 6.49194022173446E-0002	
 2.52250000000000E+0003	 6.49717494976100E-0002	
 2.52450000000000E+0003	 6.50185967778753E-0002	
 2.52650000000000E+0003	 6.50659440581407E-0002	
 2.52850000000000E+0003	 6.51112913384060E-0002	
 2.53050000000000E+0003	 6.51576386186713E-0002	
 2.53250000000000E+0003	 6.52044858989367E-0002	
 2.53450000000000E+0003	 6.52518331792020E-0002	
 2.53650000000000E+0003	 6.53006804594674E-0002	
 2.53850000000000E+0003	 6.53495277397327E-0002	
 2.54050000000000E+0003	 6.53948750199980E-0002	
 2.54250000000000E+0003	 6.54427223002634E-0002	
 2.54450000000000E+0003	 6.54925695805287E-0002	
 2.54650000000000E+0003	 6.55444168607941E-0002	
 2.54850000000000E+0003	 6.55927641410594E-0002	
 2.55050000000000E+0003	 6.56436114213247E-0002	
 2.55250000000000E+0003	 6.56964587015901E-0002	
 2.55450000000000E+0003	 6.57473059818554E-0002	
 2.55650000000000E+0003	 6.57966532621208E-0002	
 2.55850000000000E+0003	 6.58495005423861E-0002	
 2.56050000000000E+0003	 6.59043478226514E-0002	
 2.56250000000000E+0003	 6.59586951029168E-0002	
 2.56450000000000E+0003	 6.60090423831821E-0002	
 2.56650000000000E+0003	 6.60578896634475E-0002	
 2.56850000000000E+0003	 6.61077369437128E-0002	
 2.57050000000000E+0003	 6.61585842239781E-0002	
 2.57250000000000E+0003	 6.62169315042435E-0002	
 2.57450000000000E+0003	 6.62767787845088E-0002	
 2.57650000000000E+0003	 6.63386260647742E-0002	
 2.57850000000000E+0003	 6.63999733450395E-0002	
 2.58050000000000E+0003	 6.64653206253048E-0002	
 2.58250000000000E+0003	 6.65346679055702E-0002	
 2.58450000000000E+0003	 6.66055151858355E-0002	
 2.58650000000000E+0003	 6.66758624661009E-0002	
 2.58850000000000E+0003	 6.67492097463662E-0002	
 2.59050000000000E+0003	 6.68225570266315E-0002	
 2.59250000000000E+0003	 6.68979043068969E-0002	
 2.59450000000000E+0003	 6.69742515871622E-0002	
 2.59650000000000E+0003	 6.70535988674276E-0002	
 2.59850000000000E+0003	 6.71354461476929E-0002	
 2.60050000000000E+0003	 6.72192934279582E-0002	
 2.60250000000000E+0003	 6.73041407082236E-0002	
 2.60450000000000E+0003	 6.73859879884889E-0002	
 2.60650000000000E+0003	 6.74673352687543E-0002	
 2.60850000000000E+0003	 6.75526825490196E-0002	
 2.61050000000000E+0003	 6.76395298292849E-0002	
 2.61250000000000E+0003	 6.77228771095503E-0002	
 2.61450000000000E+0003	 6.78062243898156E-0002	
 2.61650000000000E+0003	 6.78910716700810E-0002	
 2.61850000000000E+0003	 6.79739189503463E-0002	
 2.62050000000000E+0003	 6.80522662306116E-0002	
 2.62250000000000E+0003	 6.81326135108770E-0002	
 2.62450000000000E+0003	 6.82179607911423E-0002	
 2.62650000000000E+0003	 6.83048080714077E-0002	
 2.62850000000000E+0003	 6.83866553516730E-0002	
 2.63050000000000E+0003	 6.84660026319383E-0002	
 2.63250000000000E+0003	 6.85463499122037E-0002	
 2.63450000000000E+0003	 6.86306971924690E-0002	
 2.63650000000000E+0003	 6.87135444727344E-0002	
 2.63850000000000E+0003	 6.87958917529997E-0002	
 2.64050000000000E+0003	 6.88757390332650E-0002	
 2.64250000000000E+0003	 6.89550863135304E-0002	
 2.64450000000000E+0003	 6.90344335937957E-0002	
 2.64650000000000E+0003	 6.91162808740611E-0002	
 2.64850000000000E+0003	 6.91981281543264E-0002	
 2.65050000000000E+0003	 6.92779754345917E-0002	
 2.65250000000000E+0003	 6.93618227148571E-0002	
 2.65450000000000E+0003	 6.94471699951224E-0002	
 2.65650000000000E+0003	 6.95325172753878E-0002	
 2.65850000000000E+0003	 6.96173645556531E-0002	
 2.66050000000000E+0003	 6.97022118359184E-0002	
 2.66250000000000E+0003	 6.97860591161838E-0002	
 2.66450000000000E+0003	 6.98719063964491E-0002	
 2.66650000000000E+0003	 6.99582536767145E-0002	
 2.66850000000000E+0003	 7.00446009569798E-0002	
 2.67050000000000E+0003	 7.01329482372451E-0002	
 2.67250000000000E+0003	 7.02312955175105E-0002	
 2.67450000000000E+0003	 7.03286427977758E-0002	
 2.67650000000000E+0003	 7.04269900780412E-0002	
 2.67850000000000E+0003	 7.05263373583065E-0002	
 2.68050000000000E+0003	 7.06201846385718E-0002	
 2.68250000000000E+0003	 7.06965319188372E-0002	
 2.68450000000000E+0003	 7.07693791991025E-0002	
 2.68650000000000E+0003	 7.08547264793679E-0002	
 2.68850000000000E+0003	 7.09475737596332E-0002	
 2.69050000000000E+0003	 7.10399210398985E-0002	
 2.69250000000000E+0003	 7.11367683201639E-0002	
 2.69450000000000E+0003	 7.12316156004292E-0002	
 2.69650000000000E+0003	 7.13274628806946E-0002	
 2.69850000000000E+0003	 7.14298101609599E-0002	
 2.70050000000000E+0003	 7.15361574412252E-0002	
 2.70250000000000E+0003	 7.16420047214906E-0002	
 2.70450000000000E+0003	 7.17523520017559E-0002	
 2.70650000000000E+0003	 7.18691992820213E-0002	
 2.70850000000000E+0003	 7.19950465622866E-0002	
 2.71050000000000E+0003	 7.21223938425519E-0002	
 2.71250000000000E+0003	 7.22532411228173E-0002	
 2.71450000000000E+0003	 7.23950884030826E-0002	
 2.71650000000000E+0003	 7.25424356833480E-0002	
 2.71850000000000E+0003	 7.26907829636133E-0002	
 2.72050000000000E+0003	 7.28511302438786E-0002	
 2.72250000000000E+0003	 7.30179775241440E-0002	
 2.72450000000000E+0003	 7.31823248044093E-0002	
 2.72650000000000E+0003	 7.33456720846747E-0002	
 2.72850000000000E+0003	 7.34775193649400E-0002	
 2.73050000000000E+0003	 7.36048666452053E-0002	
 2.73250000000000E+0003	 7.37472139254707E-0002	
 2.73450000000000E+0003	 7.38990612057360E-0002	
 2.73650000000000E+0003	 7.40524084860014E-0002	
 2.73850000000000E+0003	 7.41947557662667E-0002	
 2.74050000000000E+0003	 7.43246030465320E-0002	
 2.74250000000000E+0003	 7.44624503267974E-0002	
 2.74450000000000E+0003	 7.46052976070627E-0002	
 2.74650000000000E+0003	 7.47621448873281E-0002	
 2.74850000000000E+0003	 7.49139921675934E-0002	
 2.75050000000000E+0003	 7.50378394478587E-0002	
 2.75250000000000E+0003	 7.51441867281241E-0002	
 2.75450000000000E+0003	 7.52710340083894E-0002	
 2.75650000000000E+0003	 7.54128812886548E-0002	
 2.75850000000000E+0003	 7.55532285689201E-0002	
 2.76050000000000E+0003	 7.56925758491854E-0002	
 2.76250000000000E+0003	 7.58399231294508E-0002	
 2.76450000000000E+0003	 7.59907704097161E-0002	
 2.76650000000000E+0003	 7.61466176899815E-0002	
 2.76850000000000E+0003	 7.63019649702468E-0002	
 2.77050000000000E+0003	 7.64568122505121E-0002	
 2.77250000000000E+0003	 7.66241595307775E-0002	
 2.77450000000000E+0003	 7.68085068110428E-0002	
 2.77650000000000E+0003	 7.69603540913082E-0002	
 2.77850000000000E+0003	 7.70857013715735E-0002	
 2.78050000000000E+0003	 7.72340486518388E-0002	
 2.78250000000000E+0003	 7.74048959321042E-0002	
 2.78450000000000E+0003	 7.75807432123695E-0002	
 2.78650000000000E+0003	 7.77750904926349E-0002	
 2.78850000000000E+0003	 7.79989377729002E-0002	
 2.79050000000000E+0003	 7.82002850531655E-0002	
 2.79250000000000E+0003	 7.83631323334309E-0002	
 2.79450000000000E+0003	 7.85404796136962E-0002	
 2.79650000000000E+0003	 7.87533268939616E-0002	
 2.79850000000000E+0003	 7.89686741742269E-0002	
 2.80050000000000E+0003	 7.91480214544922E-0002	
 2.80250000000000E+0003	 7.93208687347576E-0002	
 2.80450000000000E+0003	 7.95182160150229E-0002	
 2.80650000000000E+0003	 7.97310632952883E-0002	
 2.80850000000000E+0003	 7.99639105755536E-0002	
 2.81050000000000E+0003	 8.01962578558189E-0002	
 2.81250000000000E+0003	 8.03971051360843E-0002	
 2.81450000000000E+0003	 8.05994524163496E-0002	
 2.81650000000000E+0003	 8.08217996966150E-0002	
 2.81850000000000E+0003	 8.10546469768803E-0002	
 2.82050000000000E+0003	 8.12939942571456E-0002	
 2.82250000000000E+0003	 8.15448415374110E-0002	
 2.82450000000000E+0003	 8.18076888176763E-0002	
 2.82650000000000E+0003	 8.20770360979417E-0002	
 2.82850000000000E+0003	 8.23603833782070E-0002	
 2.83050000000000E+0003	 8.26742306584723E-0002	
 2.83250000000000E+0003	 8.30250779387377E-0002	
 2.83450000000000E+0003	 8.34119252190030E-0002	
 2.83650000000000E+0003	 8.38582724992684E-0002	
 2.83850000000000E+0003	 8.43881197795337E-0002	
 2.84050000000000E+0003	 8.49369670597990E-0002	
 2.84250000000000E+0003	 8.55883143400644E-0002	
 2.84450000000000E+0003	 8.64976616203297E-0002	
 2.84650000000000E+0003	 8.76800089005951E-0002	
 2.84850000000000E+0003	 8.90258561808604E-0002	
 2.85050000000000E+0003	 9.03527034611257E-0002	
 2.85250000000000E+0003	 9.14860507413911E-0002	
 2.85450000000000E+0003	 9.22603980216564E-0002	
 2.85650000000000E+0003	 9.26442453019218E-0002	
 2.85850000000000E+0003	 9.27975925821871E-0002	
 2.86050000000000E+0003	 9.28799398624524E-0002	
 2.86250000000000E+0003	 9.30042871427178E-0002	
 2.86450000000000E+0003	 9.33146344229831E-0002	
 2.86650000000000E+0003	 9.38389817032485E-0002	
 2.86850000000000E+0003	 9.45053289835138E-0002	
 2.87050000000000E+0003	 9.52581762637791E-0002	
 2.87250000000000E+0003	 9.59990235440445E-0002	
 2.87450000000000E+0003	 9.64933708243098E-0002	
 2.87650000000000E+0003	 9.66617181045752E-0002	
 2.87850000000000E+0003	 9.66915653848405E-0002	
 2.88050000000000E+0003	 9.66814126651058E-0002	
 2.88250000000000E+0003	 9.66757599453712E-0002	
 2.88450000000000E+0003	 9.67226072256365E-0002	
 2.88650000000000E+0003	 9.68609545059019E-0002	
 2.88850000000000E+0003	 9.71043017861672E-0002	
 2.89050000000000E+0003	 9.74481490664325E-0002	
 2.89250000000000E+0003	 9.78799963466979E-0002	
 2.89450000000000E+0003	 9.84048436269632E-0002	
 2.89650000000000E+0003	 9.89631909072286E-0002	
 2.89850000000000E+0003	 9.95100381874939E-0002	
 2.90050000000000E+0003	 1.00105885467759E-0001	
 2.90250000000000E+0003	 1.00792232748025E-0001	
 2.90450000000000E+0003	 1.01551580028290E-0001	
 2.90650000000000E+0003	 1.02390427308555E-0001	
 2.90850000000000E+0003	 1.03365774588821E-0001	
 2.91050000000000E+0003	 1.04530621869086E-0001	
 2.91250000000000E+0003	 1.05895969149351E-0001	
 2.91450000000000E+0003	 1.07383316429617E-0001	
 2.91650000000000E+0003	 1.08892163709882E-0001	
 2.91850000000000E+0003	 1.10406010990147E-0001	
 2.92050000000000E+0003	 1.11838358270413E-0001	
 2.92250000000000E+0003	 1.13101705550678E-0001	
 2.92450000000000E+0003	 1.14109052830943E-0001	
 2.92650000000000E+0003	 1.14832900111209E-0001	
 2.92850000000000E+0003	 1.15327247391474E-0001	
 2.93050000000000E+0003	 1.15557094671739E-0001	
 2.93250000000000E+0003	 1.15484941952005E-0001	
 2.93450000000000E+0003	 1.15239289232270E-0001	
 2.93650000000000E+0003	 1.14847136512535E-0001	
 2.93850000000000E+0003	 1.14288983792801E-0001	
 2.94050000000000E+0003	 1.13624831073066E-0001	
 2.94250000000000E+0003	 1.12977678353331E-0001	
 2.94450000000000E+0003	 1.12388025633597E-0001	
 2.94650000000000E+0003	 1.11869372913862E-0001	
 2.94850000000000E+0003	 1.11504220194127E-0001	
 2.95050000000000E+0003	 1.11438567474393E-0001	
 2.95250000000000E+0003	 1.11700914754658E-0001	
 2.95450000000000E+0003	 1.12086262034923E-0001	
 2.95650000000000E+0003	 1.12507609315189E-0001	
 2.95850000000000E+0003	 1.12917456595454E-0001	
 2.96050000000000E+0003	 1.13192303875719E-0001	
 2.96250000000000E+0003	 1.13239151155985E-0001	
 2.96450000000000E+0003	 1.12998998436250E-0001	
 2.96650000000000E+0003	 1.12515845716515E-0001	
 2.96850000000000E+0003	 1.11865692996781E-0001	
 2.97050000000000E+0003	 1.11122040277046E-0001	
 2.97250000000000E+0003	 1.10368387557311E-0001	
 2.97450000000000E+0003	 1.09622734837577E-0001	
 2.97650000000000E+0003	 1.08859082117842E-0001	
 2.97850000000000E+0003	 1.08143929398108E-0001	
 2.98050000000000E+0003	 1.07465776678373E-0001	
 2.98250000000000E+0003	 1.06748123958638E-0001	
 2.98450000000000E+0003	 1.06036471238904E-0001	
 2.98650000000000E+0003	 1.05417818519169E-0001	
 2.98850000000000E+0003	 1.04892165799434E-0001	
 2.99050000000000E+0003	 1.04467513079700E-0001	
 2.99250000000000E+0003	 1.04108860359965E-0001	
 2.99450000000000E+0003	 1.03740207640230E-0001	
 2.99650000000000E+0003	 1.03452554920496E-0001	
 2.99850000000000E+0003	 1.03267902200761E-0001	
 3.00050000000000E+0003	 1.03117749481026E-0001	
 3.00250000000000E+0003	 1.03073596761292E-0001	
 3.00450000000000E+0003	 1.03126944041557E-0001	
 3.00650000000000E+0003	 1.03243791321822E-0001	
 3.00850000000000E+0003	 1.03471138602088E-0001	
 3.01050000000000E+0003	 1.03846485882353E-0001	
 3.01250000000000E+0003	 1.04262833162618E-0001	
 3.01450000000000E+0003	 1.04611680442884E-0001	
 3.01650000000000E+0003	 1.04899527723149E-0001	
 3.01850000000000E+0003	 1.05220375003414E-0001	
 3.02050000000000E+0003	 1.05606222283680E-0001	
 3.02250000000000E+0003	 1.06073069563945E-0001	
 3.02450000000000E+0003	 1.06622416844210E-0001	
 3.02650000000000E+0003	 1.07159264124476E-0001	
 3.02850000000000E+0003	 1.07704611404741E-0001	
 3.03050000000000E+0003	 1.08306458685006E-0001	
 3.03250000000000E+0003	 1.08926305965272E-0001	
 3.03450000000000E+0003	 1.09522653245537E-0001	
 3.03650000000000E+0003	 1.10032000525802E-0001	
 3.03850000000000E+0003	 1.10567347806068E-0001	
 3.04050000000000E+0003	 1.11239195086333E-0001	
 3.04250000000000E+0003	 1.11933542366598E-0001	
 3.04450000000000E+0003	 1.12545889646864E-0001	
 3.04650000000000E+0003	 1.13109736927129E-0001	
 3.04850000000000E+0003	 1.13716584207394E-0001	
 3.05050000000000E+0003	 1.14404931487660E-0001	
 3.05250000000000E+0003	 1.15072278767925E-0001	
 3.05450000000000E+0003	 1.15721626048190E-0001	
 3.05650000000000E+0003	 1.16374973328456E-0001	
 3.05850000000000E+0003	 1.16978320608721E-0001	
 3.06050000000000E+0003	 1.17557167888986E-0001	
 3.06250000000000E+0003	 1.18166515169252E-0001	
 3.06450000000000E+0003	 1.18780362449517E-0001	
 3.06650000000000E+0003	 1.19376709729782E-0001	
 3.06850000000000E+0003	 1.19877057010048E-0001	
 3.07050000000000E+0003	 1.20276904290313E-0001	
 3.07250000000000E+0003	 1.20689251570578E-0001	
 3.07450000000000E+0003	 1.21160598850844E-0001	
 3.07650000000000E+0003	 1.21705946131109E-0001	
 3.07850000000000E+0003	 1.22263293411375E-0001	
 3.08050000000000E+0003	 1.22711140691640E-0001	
 3.08250000000000E+0003	 1.23080487971905E-0001	
 3.08450000000000E+0003	 1.23458835252171E-0001	
 3.08650000000000E+0003	 1.23806182532436E-0001	
 3.08850000000000E+0003	 1.24157529812701E-0001	
 3.09050000000000E+0003	 1.24529877092967E-0001	
 3.09250000000000E+0003	 1.24839224373232E-0001	
 3.09450000000000E+0003	 1.25132571653497E-0001	
 3.09650000000000E+0003	 1.25481918933763E-0001	
 3.09850000000000E+0003	 1.25883766214028E-0001	
 3.10050000000000E+0003	 1.26280613494293E-0001	
 3.10250000000000E+0003	 1.26612460774559E-0001	
 3.10450000000000E+0003	 1.26953808054824E-0001	
 3.10650000000000E+0003	 1.27388155335089E-0001	
 3.10850000000000E+0003	 1.27881002615355E-0001	
 3.11050000000000E+0003	 1.28304349895620E-0001	
 3.11250000000000E+0003	 1.28732197175885E-0001	
 3.11450000000000E+0003	 1.29313044456151E-0001	
 3.11650000000000E+0003	 1.29955391736416E-0001	
 3.11850000000000E+0003	 1.30531239016681E-0001	
 3.12050000000000E+0003	 1.31045086296947E-0001	
 3.12250000000000E+0003	 1.31484433577212E-0001	
 3.12450000000000E+0003	 1.31958780857477E-0001	
 3.12650000000000E+0003	 1.32559628137743E-0001	
 3.12850000000000E+0003	 1.33252475418008E-0001	
 3.13050000000000E+0003	 1.33955322698273E-0001	
 3.13250000000000E+0003	 1.34630669978539E-0001	
 3.13450000000000E+0003	 1.35338517258804E-0001	
 3.13650000000000E+0003	 1.36140364539069E-0001	
 3.13850000000000E+0003	 1.37019211819335E-0001	
 3.14050000000000E+0003	 1.37821559099600E-0001	
 3.14250000000000E+0003	 1.38531406379865E-0001	
 3.14450000000000E+0003	 1.39303753660131E-0001	
 3.14650000000000E+0003	 1.40158600940396E-0001	
 3.14850000000000E+0003	 1.41079448220661E-0001	
 3.15050000000000E+0003	 1.42117295500927E-0001	
 3.15250000000000E+0003	 1.43171142781192E-0001	
 3.15450000000000E+0003	 1.44055990061457E-0001	
 3.15650000000000E+0003	 1.44893337341723E-0001	
 3.15850000000000E+0003	 1.45831684621988E-0001	
 3.16050000000000E+0003	 1.46836031902253E-0001	
 3.16250000000000E+0003	 1.47875879182519E-0001	
 3.16450000000000E+0003	 1.48935226462784E-0001	
 3.16650000000000E+0003	 1.50005073743049E-0001	
 3.16850000000000E+0003	 1.51083921023315E-0001	
 3.17050000000000E+0003	 1.52176268303580E-0001	
 3.17250000000000E+0003	 1.53276615583845E-0001	
 3.17450000000000E+0003	 1.54390962864111E-0001	
 3.17650000000000E+0003	 1.55512810144376E-0001	
 3.17850000000000E+0003	 1.56638657424641E-0001	
 3.18050000000000E+0003	 1.57756004704907E-0001	
 3.18250000000000E+0003	 1.58866851985172E-0001	
 3.18450000000000E+0003	 1.59976199265438E-0001	
 3.18650000000000E+0003	 1.61090546545703E-0001	
 3.18850000000000E+0003	 1.62205393825968E-0001	
 3.19050000000000E+0003	 1.63299241106234E-0001	
 3.19250000000000E+0003	 1.64370588386499E-0001	
 3.19450000000000E+0003	 1.65437435666764E-0001	
 3.19650000000000E+0003	 1.66504282947030E-0001	
 3.19850000000000E+0003	 1.67563630227295E-0001	
 3.20050000000000E+0003	 1.68605477507560E-0001	
 3.20250000000000E+0003	 1.69640324787826E-0001	
 3.20450000000000E+0003	 1.70671672068091E-0001	
 3.20650000000000E+0003	 1.71696019348356E-0001	
 3.20850000000000E+0003	 1.72704366628622E-0001	
 3.21050000000000E+0003	 1.73708213908887E-0001	
 3.21250000000000E+0003	 1.74723061189152E-0001	
 3.21450000000000E+0003	 1.75739908469418E-0001	
 3.21650000000000E+0003	 1.76745255749683E-0001	
 3.21850000000000E+0003	 1.77754603029948E-0001	
 3.22050000000000E+0003	 1.78750450310214E-0001	
 3.22250000000000E+0003	 1.79731797590479E-0001	
 3.22450000000000E+0003	 1.80728644870744E-0001	
 3.22650000000000E+0003	 1.81748992151010E-0001	
 3.22850000000000E+0003	 1.82795339431275E-0001	
 3.23050000000000E+0003	 1.83906686711540E-0001	
 3.23250000000000E+0003	 1.85100033991806E-0001	
 3.23450000000000E+0003	 1.86203881272071E-0001	
 3.23650000000000E+0003	 1.87170228552336E-0001	
 3.23850000000000E+0003	 1.88188075832602E-0001	
 3.24050000000000E+0003	 1.89300923112867E-0001	
 3.24250000000000E+0003	 1.90468270393132E-0001	
 3.24450000000000E+0003	 1.91704117673398E-0001	
 3.24650000000000E+0003	 1.92980464953663E-0001	
 3.24850000000000E+0003	 1.94175312233928E-0001	
 3.25050000000000E+0003	 1.95322659514194E-0001	
 3.25250000000000E+0003	 1.96552006794459E-0001	
 3.25450000000000E+0003	 1.97872854074724E-0001	
 3.25650000000000E+0003	 1.99181201354990E-0001	
 3.25850000000000E+0003	 2.00433048635255E-0001	
 3.26050000000000E+0003	 2.01697895915520E-0001	
 3.26250000000000E+0003	 2.02996743195786E-0001	
 3.26450000000000E+0003	 2.04301090476051E-0001	
 3.26650000000000E+0003	 2.05609437756316E-0001	
 3.26850000000000E+0003	 2.06961285036582E-0001	
 3.27050000000000E+0003	 2.08321632316847E-0001	
 3.27250000000000E+0003	 2.09525479597112E-0001	
 3.27450000000000E+0003	 2.10598826877378E-0001	
 3.27650000000000E+0003	 2.11637674157643E-0001	
 3.27850000000000E+0003	 2.12641521437908E-0001	
 3.28050000000000E+0003	 2.13626368718174E-0001	
 3.28250000000000E+0003	 2.14580715998439E-0001	
 3.28450000000000E+0003	 2.15493063278705E-0001	
 3.28650000000000E+0003	 2.16355410558970E-0001	
 3.28850000000000E+0003	 2.17192257839235E-0001	
 3.29050000000000E+0003	 2.18051605119501E-0001	
 3.29250000000000E+0003	 2.18869452399766E-0001	
 3.29450000000000E+0003	 2.19561299680031E-0001	
 3.29650000000000E+0003	 2.20159146960297E-0001	
 3.29850000000000E+0003	 2.20692994240562E-0001	
 3.30050000000000E+0003	 2.21227341520827E-0001	
 3.30250000000000E+0003	 2.21838688801093E-0001	
 3.30450000000000E+0003	 2.22528036081358E-0001	
 3.30650000000000E+0003	 2.23146383361623E-0001	
 3.30850000000000E+0003	 2.23588730641889E-0001	
 3.31050000000000E+0003	 2.23933577922154E-0001	
 3.31250000000000E+0003	 2.24297425202419E-0001	
 3.31450000000000E+0003	 2.24725272482685E-0001	
 3.31650000000000E+0003	 2.25183619762950E-0001	
 3.31850000000000E+0003	 2.25658467043215E-0001	
 3.32050000000000E+0003	 2.26155814323481E-0001	
 3.32250000000000E+0003	 2.26688661603746E-0001	
 3.32450000000000E+0003	 2.27266008884011E-0001	
 3.32650000000000E+0003	 2.27812856164277E-0001	
 3.32850000000000E+0003	 2.28289703444542E-0001	
 3.33050000000000E+0003	 2.28796050724807E-0001	
 3.33250000000000E+0003	 2.29364398005073E-0001	
 3.33450000000000E+0003	 2.29986245285338E-0001	
 3.33650000000000E+0003	 2.30690592565603E-0001	
 3.33850000000000E+0003	 2.31409939845869E-0001	
 3.34050000000000E+0003	 2.32034287126134E-0001	
 3.34250000000000E+0003	 2.32637634406399E-0001	
 3.34450000000000E+0003	 2.33258481686665E-0001	
 3.34650000000000E+0003	 2.33894828966930E-0001	
 3.34850000000000E+0003	 2.34650676247195E-0001	
 3.35050000000000E+0003	 2.35461523527461E-0001	
 3.35250000000000E+0003	 2.36124370807726E-0001	
 3.35450000000000E+0003	 2.36716218087991E-0001	
 3.35650000000000E+0003	 2.37398565368257E-0001	
 3.35850000000000E+0003	 2.38162412648522E-0001	
 3.36050000000000E+0003	 2.38936759928787E-0001	
 3.36250000000000E+0003	 2.39661107209053E-0001	
 3.36450000000000E+0003	 2.40439954489318E-0001	
 3.36650000000000E+0003	 2.41343801769583E-0001	
 3.36850000000000E+0003	 2.42216149049849E-0001	
 3.37050000000000E+0003	 2.42867496330114E-0001	
 3.37250000000000E+0003	 2.43362343610379E-0001	
 3.37450000000000E+0003	 2.43948690890645E-0001	
 3.37650000000000E+0003	 2.44653538170910E-0001	
 3.37850000000000E+0003	 2.45354385451175E-0001	
 3.38050000000000E+0003	 2.46017732731441E-0001	
 3.38250000000000E+0003	 2.46641080011706E-0001	
 3.38450000000000E+0003	 2.47259927291972E-0001	
 3.38650000000000E+0003	 2.47912774572237E-0001	
 3.38850000000000E+0003	 2.48657621852502E-0001	
 3.39050000000000E+0003	 2.49515969132768E-0001	
 3.39250000000000E+0003	 2.50217816413033E-0001	
 3.39450000000000E+0003	 2.50658163693298E-0001	
 3.39650000000000E+0003	 2.51148010973564E-0001	
 3.39850000000000E+0003	 2.51913358253829E-0001	
 3.40050000000000E+0003	 2.52706705534094E-0001	
 3.40250000000000E+0003	 2.53114552814360E-0001	
 3.40450000000000E+0003	 2.53314400094625E-0001	
 3.40650000000000E+0003	 2.53705747374890E-0001	
 3.40850000000000E+0003	 2.54252594655156E-0001	
 3.41050000000000E+0003	 2.54756941935421E-0001	
 3.41250000000000E+0003	 2.55190789215686E-0001	
 3.41450000000000E+0003	 2.55512136495952E-0001	
 3.41650000000000E+0003	 2.55772483776217E-0001	
 3.41850000000000E+0003	 2.56100331056482E-0001	
 3.42050000000000E+0003	 2.56437178336748E-0001	
 3.42250000000000E+0003	 2.56703025617013E-0001	
 3.42450000000000E+0003	 2.56948372897278E-0001	
 3.42650000000000E+0003	 2.57248720177544E-0001	
 3.42850000000000E+0003	 2.57582067457809E-0001	
 3.43050000000000E+0003	 2.57813414738074E-0001	
 3.43250000000000E+0003	 2.57963762018340E-0001	
 3.43450000000000E+0003	 2.58186109298605E-0001	
 3.43650000000000E+0003	 2.58287456578870E-0001	
 3.43850000000000E+0003	 2.58097803859136E-0001	
 3.44050000000000E+0003	 2.57827151139401E-0001	
 3.44250000000000E+0003	 2.57677998419666E-0001	
 3.44450000000000E+0003	 2.57610345699932E-0001	
 3.44650000000000E+0003	 2.57506692980197E-0001	
 3.44850000000000E+0003	 2.57318040260462E-0001	
 3.45050000000000E+0003	 2.57076387540728E-0001	
 3.45250000000000E+0003	 2.56826734820993E-0001	
 3.45450000000000E+0003	 2.56565582101258E-0001	
 3.45650000000000E+0003	 2.56303929381524E-0001	
 3.45850000000000E+0003	 2.56082776661789E-0001	
 3.46050000000000E+0003	 2.55791623942054E-0001	
 3.46250000000000E+0003	 2.55363971222320E-0001	
 3.46450000000000E+0003	 2.55038818502585E-0001	
 3.46650000000000E+0003	 2.54884165782850E-0001	
 3.46850000000000E+0003	 2.54572513063116E-0001	
 3.47050000000000E+0003	 2.53852860343381E-0001	
 3.47250000000000E+0003	 2.52992707623646E-0001	
 3.47450000000000E+0003	 2.52299054903912E-0001	
 3.47650000000000E+0003	 2.51772902184177E-0001	
 3.47850000000000E+0003	 2.51344749464442E-0001	
 3.48050000000000E+0003	 2.50753096744708E-0001	
 3.48250000000000E+0003	 2.49931444024973E-0001	
 3.48450000000000E+0003	 2.49206291305239E-0001	
 3.48650000000000E+0003	 2.48577138585504E-0001	
 3.48850000000000E+0003	 2.47830485865769E-0001	
 3.49050000000000E+0003	 2.47025333146035E-0001	
 3.49250000000000E+0003	 2.46296180426300E-0001	
 3.49450000000000E+0003	 2.45623027706565E-0001	
 3.49650000000000E+0003	 2.44923874986831E-0001	
 3.49850000000000E+0003	 2.44148722267096E-0001	
 3.50050000000000E+0003	 2.43403069547361E-0001	
 3.50250000000000E+0003	 2.42651416827627E-0001	
 3.50450000000000E+0003	 2.41660764107892E-0001	
 3.50650000000000E+0003	 2.40600111388157E-0001	
 3.50850000000000E+0003	 2.39651958668423E-0001	
 3.51050000000000E+0003	 2.38801305948688E-0001	
 3.51250000000000E+0003	 2.38029153228953E-0001	
 3.51450000000000E+0003	 2.37167000509219E-0001	
 3.51650000000000E+0003	 2.36154847789484E-0001	
 3.51850000000000E+0003	 2.35159195069749E-0001	
 3.52050000000000E+0003	 2.34305542350015E-0001	
 3.52250000000000E+0003	 2.33567389630280E-0001	
 3.52450000000000E+0003	 2.32673236910545E-0001	
 3.52650000000000E+0003	 2.31519584190811E-0001	
 3.52850000000000E+0003	 2.30357431471076E-0001	
 3.53050000000000E+0003	 2.29296278751341E-0001	
 3.53250000000000E+0003	 2.28305626031607E-0001	
 3.53450000000000E+0003	 2.27405973311872E-0001	
 3.53650000000000E+0003	 2.26440320592137E-0001	
 3.53850000000000E+0003	 2.25289667872403E-0001	
 3.54050000000000E+0003	 2.24225015152668E-0001	
 3.54250000000000E+0003	 2.23365862432933E-0001	
 3.54450000000000E+0003	 2.22450709713199E-0001	
 3.54650000000000E+0003	 2.21188056993464E-0001	
 3.54850000000000E+0003	 2.19738904273729E-0001	
 3.55050000000000E+0003	 2.18431751553995E-0001	
 3.55250000000000E+0003	 2.17152598834260E-0001	
 3.55450000000000E+0003	 2.15832446114525E-0001	
 3.55650000000000E+0003	 2.14574293394791E-0001	
 3.55850000000000E+0003	 2.13367140675056E-0001	
 3.56050000000000E+0003	 2.12166487955321E-0001	
 3.56250000000000E+0003	 2.10924835235587E-0001	
 3.56450000000000E+0003	 2.09651682515852E-0001	
 3.56650000000000E+0003	 2.08318029796117E-0001	
 3.56850000000000E+0003	 2.06902377076383E-0001	
 3.57050000000000E+0003	 2.05438224356648E-0001	
 3.57250000000000E+0003	 2.03937571636913E-0001	
 3.57450000000000E+0003	 2.02442918917179E-0001	
 3.57650000000000E+0003	 2.00988266197444E-0001	
 3.57850000000000E+0003	 1.99583613477709E-0001	
 3.58050000000000E+0003	 1.98255960757975E-0001	
 3.58250000000000E+0003	 1.96998808038240E-0001	
 3.58450000000000E+0003	 1.95732155318506E-0001	
 3.58650000000000E+0003	 1.94169502598771E-0001	
 3.58850000000000E+0003	 1.92343349879036E-0001	
 3.59050000000000E+0003	 1.90715197159302E-0001	
 3.59250000000000E+0003	 1.89214044439567E-0001	
 3.59450000000000E+0003	 1.87584891719832E-0001	
 3.59650000000000E+0003	 1.85976739000098E-0001	
 3.59850000000000E+0003	 1.84503586280363E-0001	
 3.60050000000000E+0003	 1.82954933560628E-0001	
 3.60250000000000E+0003	 1.81339280840894E-0001	
 3.60450000000000E+0003	 1.79826628121159E-0001	
 3.60650000000000E+0003	 1.78306475401424E-0001	
 3.60850000000000E+0003	 1.76650322681690E-0001	
 3.61050000000000E+0003	 1.74979669961955E-0001	
 3.61250000000000E+0003	 1.73371017242220E-0001	
 3.61450000000000E+0003	 1.71788364522486E-0001	
 3.61650000000000E+0003	 1.70147211802751E-0001	
 3.61850000000000E+0003	 1.68348559083016E-0001	
 3.62050000000000E+0003	 1.66675906363282E-0001	
 3.62250000000000E+0003	 1.65228253643547E-0001	
 3.62450000000000E+0003	 1.63783100923812E-0001	
 3.62650000000000E+0003	 1.62241948204078E-0001	
 3.62850000000000E+0003	 1.60411295484343E-0001	
 3.63050000000000E+0003	 1.58567142764608E-0001	
 3.63250000000000E+0003	 1.57073990044874E-0001	
 3.63450000000000E+0003	 1.55593337325139E-0001	
 3.63650000000000E+0003	 1.53977684605404E-0001	
 3.63850000000000E+0003	 1.52384531885670E-0001	
 3.64050000000000E+0003	 1.50856379165935E-0001	
 3.64250000000000E+0003	 1.49423226446200E-0001	
 3.64450000000000E+0003	 1.48112073726466E-0001	
 3.64650000000000E+0003	 1.46831921006731E-0001	
 3.64850000000000E+0003	 1.45381768286996E-0001	
 3.65050000000000E+0003	 1.43813615567262E-0001	
 3.65250000000000E+0003	 1.42274962847527E-0001	
 3.65450000000000E+0003	 1.40804810127792E-0001	
 3.65650000000000E+0003	 1.39402157408058E-0001	
 3.65850000000000E+0003	 1.38118504688323E-0001	
 3.66050000000000E+0003	 1.36872351968588E-0001	
 3.66250000000000E+0003	 1.35530699248854E-0001	
 3.66450000000000E+0003	 1.34249046529119E-0001	
 3.66650000000000E+0003	 1.33127893809384E-0001	
 3.66850000000000E+0003	 1.31994741089650E-0001	
 3.67050000000000E+0003	 1.30826088369915E-0001	
 3.67250000000000E+0003	 1.29853435650180E-0001	
 3.67450000000000E+0003	 1.28967282930446E-0001	
 3.67650000000000E+0003	 1.27945130210711E-0001	
 3.67850000000000E+0003	 1.26911977490976E-0001	
 3.68050000000000E+0003	 1.26019824771242E-0001	
 3.68250000000000E+0003	 1.25171672051507E-0001	
 3.68450000000000E+0003	 1.24388019331773E-0001	
 3.68650000000000E+0003	 1.23748866612038E-0001	
 3.68850000000000E+0003	 1.23079713892303E-0001	
 3.69050000000000E+0003	 1.22237561172569E-0001	
 3.69250000000000E+0003	 1.21500408452834E-0001	
 3.69450000000000E+0003	 1.20835255733099E-0001	
 3.69650000000000E+0003	 1.20194603013365E-0001	
 3.69850000000000E+0003	 1.19566950293630E-0001	
 3.70050000000000E+0003	 1.18980797573895E-0001	
 3.70250000000000E+0003	 1.18477644854161E-0001	
 3.70450000000000E+0003	 1.18037492134426E-0001	
 3.70650000000000E+0003	 1.17641339414691E-0001	
 3.70850000000000E+0003	 1.17302686694957E-0001	
 3.71050000000000E+0003	 1.16927033975222E-0001	
 3.71250000000000E+0003	 1.16517381255487E-0001	
 3.71450000000000E+0003	 1.16083228535753E-0001	
 3.71650000000000E+0003	 1.15663075816018E-0001	
 3.71850000000000E+0003	 1.15309423096283E-0001	
 3.72050000000000E+0003	 1.15004770376549E-0001	
 3.72250000000000E+0003	 1.14742617656814E-0001	
 3.72450000000000E+0003	 1.14465964937079E-0001	
 3.72650000000000E+0003	 1.14168812217345E-0001	
 3.72850000000000E+0003	 1.13837659497610E-0001	
 3.73050000000000E+0003	 1.13564006777875E-0001	
 3.73250000000000E+0003	 1.13408354058141E-0001	
 3.73450000000000E+0003	 1.13308201338406E-0001	
 3.73650000000000E+0003	 1.13281548618671E-0001	
 3.73850000000000E+0003	 1.13085895898937E-0001	
 3.74050000000000E+0003	 1.12696243179202E-0001	
 3.74250000000000E+0003	 1.12301590459467E-0001	
 3.74450000000000E+0003	 1.12056937739733E-0001	
 3.74650000000000E+0003	 1.11833785019998E-0001	
 3.74850000000000E+0003	 1.11644132300263E-0001	
 3.75050000000000E+0003	 1.11436979580529E-0001	
 3.75250000000000E+0003	 1.11216326860794E-0001	
 3.75450000000000E+0003	 1.10967174141059E-0001	
 3.75650000000000E+0003	 1.10717021421325E-0001	
 3.75850000000000E+0003	 1.10522368701590E-0001	
 3.76050000000000E+0003	 1.10344215981855E-0001	
 3.76250000000000E+0003	 1.10139063262121E-0001	
 3.76450000000000E+0003	 1.09944910542386E-0001	
 3.76650000000000E+0003	 1.09803257822651E-0001	
 3.76850000000000E+0003	 1.09667105102917E-0001	
 3.77050000000000E+0003	 1.09506952383182E-0001	
 3.77250000000000E+0003	 1.09285299663447E-0001	
 3.77450000000000E+0003	 1.09088146943713E-0001	
 3.77650000000000E+0003	 1.08995994223978E-0001	
 3.77850000000000E+0003	 1.08965841504243E-0001	
 3.78050000000000E+0003	 1.08854188784509E-0001	
 3.78250000000000E+0003	 1.08628536064774E-0001	
 3.78450000000000E+0003	 1.08424883345040E-0001	
 3.78650000000000E+0003	 1.08285230625305E-0001	
 3.78850000000000E+0003	 1.08170577905570E-0001	
 3.79050000000000E+0003	 1.08071925185836E-0001	
 3.79250000000000E+0003	 1.07988272466101E-0001	
 3.79450000000000E+0003	 1.07920119746366E-0001	
 3.79650000000000E+0003	 1.07848967026632E-0001	
 3.79850000000000E+0003	 1.07702814306897E-0001	
 3.80050000000000E+0003	 1.07569661587162E-0001	
 3.80250000000000E+0003	 1.07561508867428E-0001	
 3.80450000000000E+0003	 1.07487356147693E-0001	
 3.80650000000000E+0003	 1.07370203427958E-0001	
 3.80850000000000E+0003	 1.07259550708224E-0001	
 3.81050000000000E+0003	 1.07122897988489E-0001	
 3.81250000000000E+0003	 1.07021745268754E-0001	
 3.81450000000000E+0003	 1.06969592549020E-0001	
 3.81650000000000E+0003	 1.06976439829285E-0001	
 3.81850000000000E+0003	 1.06910287109550E-0001	
 3.82050000000000E+0003	 1.06841634389816E-0001	
 3.82250000000000E+0003	 1.06830981670081E-0001	
 3.82450000000000E+0003	 1.06705328950346E-0001	
 3.82650000000000E+0003	 1.06588176230612E-0001	
 3.82850000000000E+0003	 1.06527023510877E-0001	
 3.83050000000000E+0003	 1.06458870791142E-0001	
 3.83250000000000E+0003	 1.06383718071408E-0001	
 3.83450000000000E+0003	 1.06326065351673E-0001	
 3.83650000000000E+0003	 1.06279412631938E-0001	
 3.83850000000000E+0003	 1.06231259912204E-0001	
 3.84050000000000E+0003	 1.06206607192469E-0001	
 3.84250000000000E+0003	 1.06209954472734E-0001	
 3.84450000000000E+0003	 1.06191301753000E-0001	
 3.84650000000000E+0003	 1.06140149033265E-0001	
 3.84850000000000E+0003	 1.06019996313530E-0001	
 3.85050000000000E+0003	 1.05836343593796E-0001	
 3.85250000000000E+0003	 1.05514190874061E-0001	
 3.85450000000000E+0003	 1.05378038154326E-0001	
 3.85650000000000E+0003	 1.05550385434592E-0001	
 3.85850000000000E+0003	 1.05722232714857E-0001	
 3.86050000000000E+0003	 1.05743579995122E-0001	
 3.86250000000000E+0003	 1.05629927275388E-0001	
 3.86450000000000E+0003	 1.05560274555653E-0001	
 3.86650000000000E+0003	 1.05567121835918E-0001	
 3.86850000000000E+0003	 1.05526469116184E-0001	
 3.87050000000000E+0003	 1.05501816396449E-0001	
 3.87250000000000E+0003	 1.05444663676714E-0001	
 3.87450000000000E+0003	 1.05424010956980E-0001	
 3.87650000000000E+0003	 1.05440858237245E-0001	
 3.87850000000000E+0003	 1.05406205517510E-0001	
 3.88050000000000E+0003	 1.05386052797776E-0001	
 3.88250000000000E+0003	 1.05421400078041E-0001	
 3.88450000000000E+0003	 1.05468747358307E-0001	
 3.88650000000000E+0003	 1.05476094638572E-0001	
 3.88850000000000E+0003	 1.05311941918837E-0001	
 3.89050000000000E+0003	 1.05119789199103E-0001	
 3.89250000000000E+0003	 1.05073636479368E-0001	
 3.89450000000000E+0003	 1.05135983759633E-0001	
 3.89650000000000E+0003	 1.05163831039899E-0001	
 3.89850000000000E+0003	 1.05196178320164E-0001	
 3.90050000000000E+0003	 1.05305525600429E-0001	
 3.90250000000000E+0003	 1.05271372880695E-0001	
 3.90450000000000E+0003	 1.05069720160960E-0001	
 3.90650000000000E+0003	 1.04986567441225E-0001	
 3.90850000000000E+0003	 1.05001414721491E-0001	
 3.91050000000000E+0003	 1.04993262001756E-0001	
 3.91250000000000E+0003	 1.04994109282021E-0001	
 3.91450000000000E+0003	 1.05040456562287E-0001	
 3.91650000000000E+0003	 1.05112803842552E-0001	
 3.91850000000000E+0003	 1.05123651122817E-0001	
 3.92050000000000E+0003	 1.05065498403083E-0001	
 3.92250000000000E+0003	 1.04988345683348E-0001	
 3.92450000000000E+0003	 1.04915192963613E-0001	
 3.92650000000000E+0003	 1.04909040243879E-0001	
 3.92850000000000E+0003	 1.04953387524144E-0001	
 3.93050000000000E+0003	 1.05015734804409E-0001	
 3.93250000000000E+0003	 1.05086082084675E-0001	
 3.93450000000000E+0003	 1.05076929364940E-0001	
 3.93650000000000E+0003	 1.04998276645205E-0001	
 3.93850000000000E+0003	 1.04941123925471E-0001	
 3.94050000000000E+0003	 1.04914471205736E-0001	
 3.94250000000000E+0003	 1.04903318486001E-0001	
 3.94450000000000E+0003	 1.04946165766267E-0001	
 3.94650000000000E+0003	 1.04993513046532E-0001	
 3.94850000000000E+0003	 1.04968360326797E-0001	
 3.95050000000000E+0003	 1.04908707607063E-0001	
 3.95250000000000E+0003	 1.04883554887328E-0001	
 3.95450000000000E+0003	 1.04880402167593E-0001	
 3.95650000000000E+0003	 1.04876749447859E-0001	
 3.95850000000000E+0003	 1.04881596728124E-0001	
 3.96050000000000E+0003	 1.04891444008389E-0001	
 3.96250000000000E+0003	 1.04890291288655E-0001	
 3.96450000000000E+0003	 1.04880138568920E-0001	
 3.96650000000000E+0003	 1.04871485849185E-0001	
 3.96850000000000E+0003	 1.04867833129451E-0001	
 3.97050000000000E+0003	 1.04866180409716E-0001	
 3.97250000000000E+0003	 1.04870527689981E-0001	
 3.97450000000000E+0003	 1.04886874970247E-0001	
 3.97650000000000E+0003	 1.04903722250512E-0001	
 3.97850000000000E+0003	 1.04898069530777E-0001	
 3.98050000000000E+0003	 1.04891416811043E-0001	
 3.98250000000000E+0003	 1.04916264091308E-0001	
 3.98450000000000E+0003	 1.04938111371574E-0001	
 3.98650000000000E+0003	 1.04919458651839E-0001	
 3.98850000000000E+0003	 1.04890305932104E-0001	
 3.99050000000000E+0003	 1.04876153212370E-0001	
 3.99250000000000E+0003	 1.04873000492635E-0001	
 3.99450000000000E+0003	 1.04871347772900E-0001	
 3.99650000000000E+0003	 1.04874695053166E-0001	
 3.99850000000000E+0003	 1.04880542333431E-0001	

>1	DATALINE
