*CPCWIN*

>1	DATALINE
DATALINE
1
Operator:

Description:

Remarks:





15.9.2008
10:52


_x	_y
	
	
UNIT	UNIT
 4.50500000000000E+0002	 7.75921624613482E-0002	
 4.52500000000000E+0002	 7.67820405071119E-0002	
 4.54500000000000E+0002	 8.00399185528757E-0002	
 4.56500000000000E+0002	 8.01767965986395E-0002	
 4.58500000000000E+0002	 8.06246746444032E-0002	
 4.60500000000000E+0002	 8.18860526901670E-0002	
 4.62500000000000E+0002	 8.27949307359307E-0002	
 4.64500000000000E+0002	 8.36493087816945E-0002	
 4.66500000000000E+0002	 8.40176868274583E-0002	
 4.68500000000000E+0002	 8.46555648732220E-0002	
 4.70500000000000E+0002	 8.50049429189858E-0002	
 4.72500000000000E+0002	 8.57813209647495E-0002	
 4.74500000000000E+0002	 8.65201990105133E-0002	
 4.76500000000000E+0002	 8.73930770562771E-0002	
 4.78500000000000E+0002	 8.80089551020408E-0002	
 4.80500000000000E+0002	 8.87983331478046E-0002	
 4.82500000000000E+0002	 8.94147111935683E-0002	
 4.84500000000000E+0002	 9.02335892393321E-0002	
 4.86500000000000E+0002	 9.10044672850959E-0002	
 4.88500000000000E+0002	 9.19598453308596E-0002	
 4.90500000000000E+0002	 9.27037233766234E-0002	
 4.92500000000000E+0002	 9.37266014223871E-0002	
 4.94500000000000E+0002	 9.45494794681509E-0002	
 4.96500000000000E+0002	 9.54108575139147E-0002	
 4.98500000000000E+0002	 9.61217355596784E-0002	
 5.00500000000000E+0002	 9.67171136054422E-0002	
 5.02500000000000E+0002	 9.73499916512059E-0002	
 5.04500000000000E+0002	 9.85433696969697E-0002	
 5.06500000000000E+0002	 9.95417477427335E-0002	
 5.08500000000000E+0002	 1.00509625788497E-0001	
 5.10500000000000E+0002	 1.01357503834261E-0001	
 5.12500000000000E+0002	 1.02352881880025E-0001	
 5.14500000000000E+0002	 1.03153259925788E-0001	
 5.16500000000000E+0002	 1.04088137971552E-0001	
 5.18500000000000E+0002	 1.05089516017316E-0001	
 5.20500000000000E+0002	 1.06343894063080E-0001	
 5.22500000000000E+0002	 1.07389772108844E-0001	
 5.24500000000000E+0002	 1.08171650154607E-0001	
 5.26500000000000E+0002	 1.09140028200371E-0001	
 5.28500000000000E+0002	 1.10648906246135E-0001	
 5.30500000000000E+0002	 1.11832284291899E-0001	
 5.32500000000000E+0002	 1.12698662337662E-0001	
 5.34500000000000E+0002	 1.13152040383426E-0001	
 5.36500000000000E+0002	 1.13512918429190E-0001	
 5.38500000000000E+0002	 1.13612796474954E-0001	
 5.40500000000000E+0002	 1.13702674520717E-0001	
 5.42500000000000E+0002	 1.13692552566481E-0001	
 5.44500000000000E+0002	 1.13800430612245E-0001	
 5.46500000000000E+0002	 1.13859808658009E-0001	
 5.48500000000000E+0002	 1.14044186703772E-0001	
 5.50500000000000E+0002	 1.14227064749536E-0001	
 5.52500000000000E+0002	 1.14549942795300E-0001	
 5.54500000000000E+0002	 1.14685320841064E-0001	
 5.56500000000000E+0002	 1.14787198886827E-0001	
 5.58500000000000E+0002	 1.14717576932591E-0001	
 5.60500000000000E+0002	 1.14618954978355E-0001	
 5.62500000000000E+0002	 1.14349333024119E-0001	
 5.64500000000000E+0002	 1.14146711069882E-0001	
 5.66500000000000E+0002	 1.13879589115646E-0001	
 5.68500000000000E+0002	 1.13762467161410E-0001	
 5.70500000000000E+0002	 1.13598345207174E-0001	
 5.72500000000000E+0002	 1.13568223252938E-0001	
 5.74500000000000E+0002	 1.13438101298701E-0001	
 5.76500000000000E+0002	 1.13505979344465E-0001	
 5.78500000000000E+0002	 1.13634357390229E-0001	
 5.80500000000000E+0002	 1.13788735435993E-0001	
 5.82500000000000E+0002	 1.13816113481756E-0001	
 5.84500000000000E+0002	 1.13889491527520E-0001	
 5.86500000000000E+0002	 1.13876869573284E-0001	
 5.88500000000000E+0002	 1.13987247619048E-0001	
 5.90500000000000E+0002	 1.14046125664811E-0001	
 5.92500000000000E+0002	 1.14258503710575E-0001	
 5.94500000000000E+0002	 1.14527881756339E-0001	
 5.96500000000000E+0002	 1.14921259802103E-0001	
 5.98500000000000E+0002	 1.15235137847866E-0001	
 6.00500000000000E+0002	 1.15630515893630E-0001	
 6.02500000000000E+0002	 1.15991393939394E-0001	
 6.04500000000000E+0002	 1.16283771985158E-0001	
 6.06500000000000E+0002	 1.16367650030921E-0001	
 6.08500000000000E+0002	 1.16376028076685E-0001	
 6.10500000000000E+0002	 1.16238906122449E-0001	
 6.12500000000000E+0002	 1.16124284168213E-0001	
 6.14500000000000E+0002	 1.15986662213977E-0001	
 6.16500000000000E+0002	 1.15897540259740E-0001	
 6.18500000000000E+0002	 1.15782918305504E-0001	
 6.20500000000000E+0002	 1.15667296351268E-0001	
 6.22500000000000E+0002	 1.15472174397032E-0001	
 6.24500000000000E+0002	 1.15273552442795E-0001	
 6.26500000000000E+0002	 1.15072930488559E-0001	
 6.28500000000000E+0002	 1.14954808534323E-0001	
 6.30500000000000E+0002	 1.14785186580087E-0001	
 6.32500000000000E+0002	 1.14562064625850E-0001	
 6.34500000000000E+0002	 1.14234942671614E-0001	
 6.36500000000000E+0002	 1.13952320717378E-0001	
 6.38500000000000E+0002	 1.13676198763142E-0001	
 6.40500000000000E+0002	 1.13442576808905E-0001	
 6.42500000000000E+0002	 1.13203954854669E-0001	
 6.44500000000000E+0002	 1.12995832900433E-0001	
 6.46500000000000E+0002	 1.12761210946197E-0001	
 6.48500000000000E+0002	 1.12610588991960E-0001	
 6.50500000000000E+0002	 1.12387467037724E-0001	
 6.52500000000000E+0002	 1.12162345083488E-0001	
 6.54500000000000E+0002	 1.11962723129252E-0001	
 6.56500000000000E+0002	 1.11849601175015E-0001	
 6.58500000000000E+0002	 1.11688479220779E-0001	
 6.60500000000000E+0002	 1.11550357266543E-0001	
 6.62500000000000E+0002	 1.11378735312307E-0001	
 6.64500000000000E+0002	 1.11282613358071E-0001	
 6.66500000000000E+0002	 1.11458991403834E-0001	
 6.68500000000000E+0002	 1.11198369449598E-0001	
 6.70500000000000E+0002	 1.10354247495362E-0001	
 6.72500000000000E+0002	 1.10105625541126E-0001	
 6.74500000000000E+0002	 1.09773003586889E-0001	
 6.76500000000000E+0002	 1.09412381632653E-0001	
 6.78500000000000E+0002	 1.09033259678417E-0001	
 6.80500000000000E+0002	 1.08685637724181E-0001	
 6.82500000000000E+0002	 1.08361515769944E-0001	
 6.84500000000000E+0002	 1.08122393815708E-0001	
 6.86500000000000E+0002	 1.07868771861472E-0001	
 6.88500000000000E+0002	 1.07646649907236E-0001	
 6.90500000000000E+0002	 1.07464527952999E-0001	
 6.92500000000000E+0002	 1.07344405998763E-0001	
 6.94500000000000E+0002	 1.07217284044527E-0001	
 6.96500000000000E+0002	 1.07144162090291E-0001	
 6.98500000000000E+0002	 1.07068540136054E-0001	
 7.00500000000000E+0002	 1.06989918181818E-0001	
 7.02500000000000E+0002	 1.06772796227582E-0001	
 7.04500000000000E+0002	 1.06493174273346E-0001	
 7.06500000000000E+0002	 1.06187052319109E-0001	
 7.08500000000000E+0002	 1.05913930364873E-0001	
 7.10500000000000E+0002	 1.05637808410637E-0001	
 7.12500000000000E+0002	 1.05354686456401E-0001	
 7.14500000000000E+0002	 1.04876064502165E-0001	
 7.16500000000000E+0002	 1.04304442547928E-0001	
 7.18500000000000E+0002	 1.03716820593692E-0001	
 7.20500000000000E+0002	 1.03141698639456E-0001	
 7.22500000000000E+0002	 1.02465576685220E-0001	
 7.24500000000000E+0002	 1.01674454730983E-0001	
 7.26500000000000E+0002	 1.00712332776747E-0001	
 7.28500000000000E+0002	 9.96952108225108E-0002	
 7.30500000000000E+0002	 9.86440888682746E-0002	
 7.32500000000000E+0002	 9.77029669140383E-0002	
 7.34500000000000E+0002	 9.68698449598021E-0002	
 7.36500000000000E+0002	 9.61872230055659E-0002	
 7.38500000000000E+0002	 9.55901010513296E-0002	
 7.40500000000000E+0002	 9.50804790970934E-0002	
 7.42500000000000E+0002	 9.45908571428571E-0002	
 7.44500000000000E+0002	 9.41482351886209E-0002	
 7.46500000000000E+0002	 9.37166132343847E-0002	
 7.48500000000000E+0002	 9.33389912801484E-0002	
 7.50500000000000E+0002	 9.29728693259122E-0002	
 7.52500000000000E+0002	 9.27157473716759E-0002	
 7.54500000000000E+0002	 9.25721254174397E-0002	
 7.56500000000000E+0002	 9.25700034632035E-0002	
 7.58500000000000E+0002	 9.26923815089672E-0002	
 7.60500000000000E+0002	 9.29672595547310E-0002	
 7.62500000000000E+0002	 9.33091376004947E-0002	
 7.64500000000000E+0002	 9.35255156462585E-0002	
 7.66500000000000E+0002	 9.32813936920223E-0002	
 7.68500000000000E+0002	 9.25107717377860E-0002	
 7.70500000000000E+0002	 9.14626497835498E-0002	
 7.72500000000000E+0002	 9.05110278293135E-0002	
 7.74500000000000E+0002	 8.99139058750773E-0002	
 7.76500000000000E+0002	 8.98707839208411E-0002	
 7.78500000000000E+0002	 9.01976619666048E-0002	
 7.80500000000000E+0002	 9.02415400123686E-0002	
 7.82500000000000E+0002	 8.97084180581323E-0002	
 7.84500000000000E+0002	 8.89567961038961E-0002	
 7.86500000000000E+0002	 8.82486741496599E-0002	
 7.88500000000000E+0002	 8.75040521954236E-0002	
 7.90500000000000E+0002	 8.67774302411874E-0002	
 7.92500000000000E+0002	 8.62718082869511E-0002	
 7.94500000000000E+0002	 8.60406863327149E-0002	
 7.96500000000000E+0002	 8.57960643784787E-0002	
 7.98500000000000E+0002	 8.53164424242424E-0002	
 8.00500000000000E+0002	 8.46983204700062E-0002	
 8.02500000000000E+0002	 8.41296985157699E-0002	
 8.04500000000000E+0002	 8.36985765615337E-0002	
 8.06500000000000E+0002	 8.34299546072975E-0002	
 8.08500000000000E+0002	 8.32248326530612E-0002	
 8.10500000000000E+0002	 8.29847106988250E-0002	
 8.12500000000000E+0002	 8.26140887445887E-0002	
 8.14500000000000E+0002	 8.21419667903525E-0002	
 8.16500000000000E+0002	 8.15953448361163E-0002	
 8.18500000000000E+0002	 8.10812228818800E-0002	
 8.20500000000000E+0002	 8.06426009276438E-0002	
 8.22500000000000E+0002	 8.03504789734075E-0002	
 8.24500000000000E+0002	 8.01343570191713E-0002	
 8.26500000000000E+0002	 8.00127350649351E-0002	
 8.28500000000000E+0002	 7.99361131106988E-0002	
 8.30500000000000E+0002	 7.99334911564626E-0002	
 8.32500000000000E+0002	 7.99803692022263E-0002	
 8.34500000000000E+0002	 8.00917472479901E-0002	
 8.36500000000000E+0002	 8.01961252937539E-0002	
 8.38500000000000E+0002	 8.03355033395176E-0002	
 8.40500000000000E+0002	 8.03558813852814E-0002	
 8.42500000000000E+0002	 8.03037594310451E-0002	
 8.44500000000000E+0002	 8.01826374768089E-0002	
 8.46500000000000E+0002	 8.01210155225727E-0002	
 8.48500000000000E+0002	 8.00843935683364E-0002	
 8.50500000000000E+0002	 8.01402716141002E-0002	
 8.52500000000000E+0002	 8.02706496598639E-0002	
 8.54500000000000E+0002	 8.05570277056277E-0002	
 8.56500000000000E+0002	 8.08679057513915E-0002	
 8.58500000000000E+0002	 8.11482837971552E-0002	
 8.60500000000000E+0002	 8.12476618429190E-0002	
 8.62500000000000E+0002	 8.11590398886827E-0002	
 8.64500000000000E+0002	 8.08324179344465E-0002	
 8.66500000000000E+0002	 8.03862959802103E-0002	
 8.68500000000000E+0002	 7.99936740259740E-0002	
 8.70500000000000E+0002	 8.00905520717378E-0002	
 8.72500000000000E+0002	 8.03259301175015E-0002	
 8.74500000000000E+0002	 7.99793081632653E-0002	
 8.76500000000000E+0002	 7.92671862090291E-0002	
 8.78500000000000E+0002	 7.87740642547928E-0002	
 8.80500000000000E+0002	 7.84654423005566E-0002	
 8.82500000000000E+0002	 7.83543203463203E-0002	
 8.84500000000000E+0002	 7.82921983920841E-0002	
 8.86500000000000E+0002	 7.82710764378479E-0002	
 8.88500000000000E+0002	 7.81974544836116E-0002	
 8.90500000000000E+0002	 7.81638325293754E-0002	
 8.92500000000000E+0002	 7.80577105751391E-0002	
 8.94500000000000E+0002	 7.79530886209029E-0002	
 8.96500000000000E+0002	 7.77599666666667E-0002	
 8.98500000000000E+0002	 7.76108447124304E-0002	
 9.00500000000000E+0002	 7.74867227581942E-0002	
 9.02500000000000E+0002	 7.76051008039579E-0002	
 9.04500000000000E+0002	 7.79479788497217E-0002	
 9.06500000000000E+0002	 7.86738568954855E-0002	
 9.08500000000000E+0002	 7.96647349412492E-0002	
 9.10500000000000E+0002	 8.09026129870130E-0002	
 9.12500000000000E+0002	 8.20449910327767E-0002	
 9.14500000000000E+0002	 8.29828690785405E-0002	
 9.16500000000000E+0002	 8.34582471243043E-0002	
 9.18500000000000E+0002	 8.35176251700680E-0002	
 9.20500000000000E+0002	 8.30890032158318E-0002	
 9.22500000000000E+0002	 8.24053812615955E-0002	
 9.24500000000000E+0002	 8.15212593073593E-0002	
 9.26500000000000E+0002	 8.06531373531231E-0002	
 9.28500000000000E+0002	 7.97755153988868E-0002	
 9.30500000000000E+0002	 7.90603934446506E-0002	
 9.32500000000000E+0002	 7.84602714904143E-0002	
 9.34500000000000E+0002	 7.80811495361781E-0002	
 9.36500000000000E+0002	 7.77795275819419E-0002	
 9.38500000000000E+0002	 7.76414056277056E-0002	
 9.40500000000000E+0002	 7.75212836734694E-0002	
 9.42500000000000E+0002	 7.75286617192331E-0002	
 9.44500000000000E+0002	 7.75735397649969E-0002	
 9.46500000000000E+0002	 7.77989178107607E-0002	
 9.48500000000000E+0002	 7.81162958565244E-0002	
 9.50500000000000E+0002	 7.86366739022882E-0002	
 9.52500000000000E+0002	 7.92570519480519E-0002	
 9.54500000000000E+0002	 8.01029299938157E-0002	
 9.56500000000000E+0002	 8.10873080395795E-0002	
 9.58500000000000E+0002	 8.22756860853432E-0002	
 9.60500000000000E+0002	 8.35025641311070E-0002	
 9.62500000000000E+0002	 8.48259421768707E-0002	
 9.64500000000000E+0002	 8.60823202226345E-0002	
 9.66500000000000E+0002	 8.73391982683983E-0002	
 9.68500000000000E+0002	 8.84925763141620E-0002	
 9.70500000000000E+0002	 8.96499543599258E-0002	
 9.72500000000000E+0002	 9.07873324056895E-0002	
 9.74500000000000E+0002	 9.21677104514533E-0002	
 9.76500000000000E+0002	 9.38790884972171E-0002	
 9.78500000000000E+0002	 9.62654665429808E-0002	
 9.80500000000000E+0002	 9.93843445887446E-0002	
 9.82500000000000E+0002	 1.03347722634508E-0001	
 9.84500000000000E+0002	 1.07788100680272E-0001	
 9.86500000000000E+0002	 1.12397978726036E-0001	
 9.88500000000000E+0002	 1.16583856771800E-0001	
 9.90500000000000E+0002	 1.20140234817563E-0001	
 9.92500000000000E+0002	 1.22925612863327E-0001	
 9.94500000000000E+0002	 1.25386990909091E-0001	
 9.96500000000000E+0002	 1.27837368954855E-0001	
 9.98500000000000E+0002	 1.30824247000618E-0001	
 1.00050000000000E+0003	 1.34445125046382E-0001	
 1.00250000000000E+0003	 1.38807503092146E-0001	
 1.00450000000000E+0003	 1.43574381137910E-0001	
 1.00650000000000E+0003	 1.48643759183673E-0001	
 1.00850000000000E+0003	 1.53686637229437E-0001	
 1.01050000000000E+0003	 1.58721515275201E-0001	
 1.01250000000000E+0003	 1.63583393320965E-0001	
 1.01450000000000E+0003	 1.68312771366729E-0001	
 1.01650000000000E+0003	 1.72591149412492E-0001	
 1.01850000000000E+0003	 1.76235027458256E-0001	
 1.02050000000000E+0003	 1.78897905504020E-0001	
 1.02250000000000E+0003	 1.80682783549784E-0001	
 1.02450000000000E+0003	 1.81747161595547E-0001	
 1.02650000000000E+0003	 1.82608039641311E-0001	
 1.02850000000000E+0003	 1.83486917687075E-0001	
 1.03050000000000E+0003	 1.84599295732839E-0001	
 1.03250000000000E+0003	 1.85775673778602E-0001	
 1.03450000000000E+0003	 1.86991551824366E-0001	
 1.03650000000000E+0003	 1.88000929870130E-0001	
 1.03850000000000E+0003	 1.88803307915894E-0001	
 1.04050000000000E+0003	 1.89374185961657E-0001	
 1.04250000000000E+0003	 1.90027564007421E-0001	
 1.04450000000000E+0003	 1.90910442053185E-0001	
 1.04650000000000E+0003	 1.92305320098949E-0001	
 1.04850000000000E+0003	 1.94127698144712E-0001	
 1.05050000000000E+0003	 1.96195576190476E-0001	
 1.05250000000000E+0003	 1.97947454236240E-0001	
 1.05450000000000E+0003	 1.99071332282004E-0001	
 1.05650000000000E+0003	 1.99305710327767E-0001	
 1.05850000000000E+0003	 1.98814088373531E-0001	
 1.06050000000000E+0003	 1.97775466419295E-0001	
 1.06250000000000E+0003	 1.96728344465059E-0001	
 1.06450000000000E+0003	 1.96152722510823E-0001	
 1.06650000000000E+0003	 1.96648600556586E-0001	
 1.06850000000000E+0003	 1.98341478602350E-0001	
 1.07050000000000E+0003	 2.01095356648114E-0001	
 1.07250000000000E+0003	 2.04391734693878E-0001	
 1.07450000000000E+0003	 2.07742112739641E-0001	
 1.07650000000000E+0003	 2.10598990785405E-0001	
 1.07850000000000E+0003	 2.12626368831169E-0001	
 1.08050000000000E+0003	 2.13528746876933E-0001	
 1.08250000000000E+0003	 2.13179124922696E-0001	
 1.08450000000000E+0003	 2.11356002968460E-0001	
 1.08650000000000E+0003	 2.07981881014224E-0001	
 1.08850000000000E+0003	 2.03186259059988E-0001	
 1.09050000000000E+0003	 1.97648637105751E-0001	
 1.09250000000000E+0003	 1.92337015151515E-0001	
 1.09450000000000E+0003	 1.88007393197279E-0001	
 1.09650000000000E+0003	 1.84770271243043E-0001	
 1.09850000000000E+0003	 1.82283649288806E-0001	
 1.10050000000000E+0003	 1.80048527334570E-0001	
 1.10250000000000E+0003	 1.77749905380334E-0001	
 1.10450000000000E+0003	 1.75259283426098E-0001	
 1.10650000000000E+0003	 1.72655661471861E-0001	
 1.10850000000000E+0003	 1.70123539517625E-0001	
 1.11050000000000E+0003	 1.67845917563389E-0001	
 1.11250000000000E+0003	 1.65841295609153E-0001	
 1.11450000000000E+0003	 1.63986673654917E-0001	
 1.11650000000000E+0003	 1.62144051700680E-0001	
 1.11850000000000E+0003	 1.60224429746444E-0001	
 1.12050000000000E+0003	 1.58182307792208E-0001	
 1.12250000000000E+0003	 1.55950185837972E-0001	
 1.12450000000000E+0003	 1.53540063883735E-0001	
 1.12650000000000E+0003	 1.51006941929499E-0001	
 1.12850000000000E+0003	 1.48440819975263E-0001	
 1.13050000000000E+0003	 1.45852698021027E-0001	
 1.13250000000000E+0003	 1.43389076066790E-0001	
 1.13450000000000E+0003	 1.41151454112554E-0001	
 1.13650000000000E+0003	 1.39258832158318E-0001	
 1.13850000000000E+0003	 1.37765210204082E-0001	
 1.14050000000000E+0003	 1.36801088249845E-0001	
 1.14250000000000E+0003	 1.36324966295609E-0001	
 1.14450000000000E+0003	 1.36237844341373E-0001	
 1.14650000000000E+0003	 1.36214722387137E-0001	
 1.14850000000000E+0003	 1.35975100432900E-0001	
 1.15050000000000E+0003	 1.35162478478664E-0001	
 1.15250000000000E+0003	 1.33716856524428E-0001	
 1.15450000000000E+0003	 1.31652734570192E-0001	
 1.15650000000000E+0003	 1.29287612615955E-0001	
 1.15850000000000E+0003	 1.26794990661719E-0001	
 1.16050000000000E+0003	 1.24350868707483E-0001	
 1.16250000000000E+0003	 1.21808746753247E-0001	
 1.16450000000000E+0003	 1.19182624799011E-0001	
 1.16650000000000E+0003	 1.16408502844774E-0001	
 1.16850000000000E+0003	 1.13708880890538E-0001	
 1.17050000000000E+0003	 1.11119758936302E-0001	
 1.17250000000000E+0003	 1.08778636982066E-0001	
 1.17450000000000E+0003	 1.06582015027829E-0001	
 1.17650000000000E+0003	 1.04623893073593E-0001	
 1.17850000000000E+0003	 1.02850771119357E-0001	
 1.18050000000000E+0003	 1.01429649165121E-0001	
 1.18250000000000E+0003	 1.00301527210884E-0001	
 1.18450000000000E+0003	 9.96124052566481E-0002	
 1.18650000000000E+0003	 9.92812833024119E-0002	
 1.18850000000000E+0003	 9.94191613481756E-0002	
 1.19050000000000E+0003	 9.98960393939394E-0002	
 1.19250000000000E+0003	 1.00793417439703E-0001	
 1.19450000000000E+0003	 1.01963295485467E-0001	
 1.19650000000000E+0003	 1.03449173531231E-0001	
 1.19850000000000E+0003	 1.05042051576994E-0001	
 1.20050000000000E+0003	 1.06779929622758E-0001	
 1.20250000000000E+0003	 1.08441807668522E-0001	
 1.20450000000000E+0003	 1.10093685714286E-0001	
 1.20650000000000E+0003	 1.11583563760049E-0001	
 1.20850000000000E+0003	 1.13041941805813E-0001	
 1.21050000000000E+0003	 1.14370319851577E-0001	
 1.21250000000000E+0003	 1.15774197897341E-0001	
 1.21450000000000E+0003	 1.17136575943105E-0001	
 1.21650000000000E+0003	 1.18663453988868E-0001	
 1.21850000000000E+0003	 1.20350332034632E-0001	
 1.22050000000000E+0003	 1.22142710080396E-0001	
 1.22250000000000E+0003	 1.23459088126160E-0001	
 1.22450000000000E+0003	 1.24488966171923E-0001	
 1.22650000000000E+0003	 1.25367344217687E-0001	
 1.22850000000000E+0003	 1.26349222263451E-0001	
 1.23050000000000E+0003	 1.27218600309215E-0001	
 1.23250000000000E+0003	 1.28031478354978E-0001	
 1.23450000000000E+0003	 1.28532856400742E-0001	
 1.23650000000000E+0003	 1.28827234446506E-0001	
 1.23850000000000E+0003	 1.28753112492270E-0001	
 1.24050000000000E+0003	 1.28504490538033E-0001	
 1.24250000000000E+0003	 1.27963868583797E-0001	
 1.24450000000000E+0003	 1.27330746629561E-0001	
 1.24650000000000E+0003	 1.26483624675325E-0001	
 1.24850000000000E+0003	 1.25628502721088E-0001	
 1.25050000000000E+0003	 1.24610880766852E-0001	
 1.25250000000000E+0003	 1.23585258812616E-0001	
 1.25450000000000E+0003	 1.22423136858380E-0001	
 1.25650000000000E+0003	 1.21331014904143E-0001	
 1.25850000000000E+0003	 1.20158892949907E-0001	
 1.26050000000000E+0003	 1.19068770995671E-0001	
 1.26250000000000E+0003	 1.17914149041435E-0001	
 1.26450000000000E+0003	 1.16853027087199E-0001	
 1.26650000000000E+0003	 1.15745905132962E-0001	
 1.26850000000000E+0003	 1.14798283178726E-0001	
 1.27050000000000E+0003	 1.13890661224490E-0001	
 1.27250000000000E+0003	 1.13178039270254E-0001	
 1.27450000000000E+0003	 1.12473417316017E-0001	
 1.27650000000000E+0003	 1.11926795361781E-0001	
 1.27850000000000E+0003	 1.11397673407545E-0001	
 1.28050000000000E+0003	 1.11019051453309E-0001	
 1.28250000000000E+0003	 1.10564429499072E-0001	
 1.28450000000000E+0003	 1.10145307544836E-0001	
 1.28650000000000E+0003	 1.09664185590600E-0001	
 1.28850000000000E+0003	 1.09331563636364E-0001	
 1.29050000000000E+0003	 1.09047441682127E-0001	
 1.29250000000000E+0003	 1.08932319727891E-0001	
 1.29450000000000E+0003	 1.08839197773655E-0001	
 1.29650000000000E+0003	 1.08941575819419E-0001	
 1.29850000000000E+0003	 1.09132953865182E-0001	
 1.30050000000000E+0003	 1.09514331910946E-0001	
 1.30250000000000E+0003	 1.09907709956710E-0001	
 1.30450000000000E+0003	 1.10397088002474E-0001	
 1.30650000000000E+0003	 1.10805466048237E-0001	
 1.30850000000000E+0003	 1.11268844094001E-0001	
 1.31050000000000E+0003	 1.11628222139765E-0001	
 1.31250000000000E+0003	 1.11973100185529E-0001	
 1.31450000000000E+0003	 1.12139978231293E-0001	
 1.31650000000000E+0003	 1.12200856277056E-0001	
 1.31850000000000E+0003	 1.12038234322820E-0001	
 1.32050000000000E+0003	 1.11876112368584E-0001	
 1.32250000000000E+0003	 1.11639490414348E-0001	
 1.32450000000000E+0003	 1.11505868460111E-0001	
 1.32650000000000E+0003	 1.11423246505875E-0001	
 1.32850000000000E+0003	 1.11575124551639E-0001	
 1.33050000000000E+0003	 1.11815502597403E-0001	
 1.33250000000000E+0003	 1.12202380643166E-0001	
 1.33450000000000E+0003	 1.12531758688930E-0001	
 1.33650000000000E+0003	 1.12830136734694E-0001	
 1.33850000000000E+0003	 1.12999514780458E-0001	
 1.34050000000000E+0003	 1.13159892826221E-0001	
 1.34250000000000E+0003	 1.13241770871985E-0001	
 1.34450000000000E+0003	 1.13269148917749E-0001	
 1.34650000000000E+0003	 1.13186026963513E-0001	
 1.34850000000000E+0003	 1.13249405009276E-0001	
 1.35050000000000E+0003	 1.13450283055040E-0001	
 1.35250000000000E+0003	 1.13884661100804E-0001	
 1.35450000000000E+0003	 1.14446039146568E-0001	
 1.35650000000000E+0003	 1.15123917192331E-0001	
 1.35850000000000E+0003	 1.15764795238095E-0001	
 1.36050000000000E+0003	 1.16400173283859E-0001	
 1.36250000000000E+0003	 1.17119551329623E-0001	
 1.36450000000000E+0003	 1.18087929375387E-0001	
 1.36650000000000E+0003	 1.19280807421150E-0001	
 1.36850000000000E+0003	 1.20510685466914E-0001	
 1.37050000000000E+0003	 1.21304063512678E-0001	
 1.37250000000000E+0003	 1.21920441558442E-0001	
 1.37450000000000E+0003	 1.22511319604205E-0001	
 1.37650000000000E+0003	 1.23216697649969E-0001	
 1.37850000000000E+0003	 1.24101075695733E-0001	
 1.38050000000000E+0003	 1.25782953741497E-0001	
 1.38250000000000E+0003	 1.28507831787260E-0001	
 1.38450000000000E+0003	 1.30025709833024E-0001	
 1.38650000000000E+0003	 1.28598087878788E-0001	
 1.38850000000000E+0003	 1.26630465924552E-0001	
 1.39050000000000E+0003	 1.25971843970315E-0001	
 1.39250000000000E+0003	 1.26193222016079E-0001	
 1.39450000000000E+0003	 1.26795100061843E-0001	
 1.39650000000000E+0003	 1.27413978107607E-0001	
 1.39850000000000E+0003	 1.28248356153370E-0001	
 1.40050000000000E+0003	 1.29223234199134E-0001	
 1.40250000000000E+0003	 1.29964112244898E-0001	
 1.40450000000000E+0003	 1.30158490290662E-0001	
 1.40650000000000E+0003	 1.30279368336425E-0001	
 1.40850000000000E+0003	 1.30149246382189E-0001	
 1.41050000000000E+0003	 1.29891624427953E-0001	
 1.41250000000000E+0003	 1.29440002473717E-0001	
 1.41450000000000E+0003	 1.28898880519481E-0001	
 1.41650000000000E+0003	 1.27806758565244E-0001	
 1.41850000000000E+0003	 1.26856636611008E-0001	
 1.42050000000000E+0003	 1.26029514656772E-0001	
 1.42250000000000E+0003	 1.25654892702536E-0001	
 1.42450000000000E+0003	 1.24849770748299E-0001	
 1.42650000000000E+0003	 1.23978648794063E-0001	
 1.42850000000000E+0003	 1.22926026839827E-0001	
 1.43050000000000E+0003	 1.22167904885591E-0001	
 1.43250000000000E+0003	 1.21587282931354E-0001	
 1.43450000000000E+0003	 1.21083160977118E-0001	
 1.43650000000000E+0003	 1.20582539022882E-0001	
 1.43850000000000E+0003	 1.21527417068646E-0001	
 1.44050000000000E+0003	 1.22702295114409E-0001	
 1.44250000000000E+0003	 1.23498673160173E-0001	
 1.44450000000000E+0003	 1.23844051205937E-0001	
 1.44650000000000E+0003	 1.24208929251701E-0001	
 1.44850000000000E+0003	 1.24374307297464E-0001	
 1.45050000000000E+0003	 1.24933685343228E-0001	
 1.45250000000000E+0003	 1.25082063388992E-0001	
 1.45450000000000E+0003	 1.24256941434756E-0001	
 1.45650000000000E+0003	 1.22917319480519E-0001	
 1.45850000000000E+0003	 1.22450197526283E-0001	
 1.46050000000000E+0003	 1.21892575572047E-0001	
 1.46250000000000E+0003	 1.21073953617811E-0001	
 1.46450000000000E+0003	 1.19483831663575E-0001	
 1.46650000000000E+0003	 1.18205209709338E-0001	
 1.46850000000000E+0003	 1.16686087755102E-0001	
 1.47050000000000E+0003	 1.14330465800866E-0001	
 1.47250000000000E+0003	 1.11291343846630E-0001	
 1.47450000000000E+0003	 1.08969221892393E-0001	
 1.47650000000000E+0003	 1.07516599938157E-0001	
 1.47850000000000E+0003	 1.06729977983921E-0001	
 1.48050000000000E+0003	 1.06127356029685E-0001	
 1.48250000000000E+0003	 1.05645734075448E-0001	
 1.48450000000000E+0003	 1.05215612121212E-0001	
 1.48650000000000E+0003	 1.04911990166976E-0001	
 1.48850000000000E+0003	 1.04599368212740E-0001	
 1.49050000000000E+0003	 1.04682246258503E-0001	
 1.49250000000000E+0003	 1.05611624304267E-0001	
 1.49450000000000E+0003	 1.06933502350031E-0001	
 1.49650000000000E+0003	 1.07735380395795E-0001	
 1.49850000000000E+0003	 1.09219758441558E-0001	
 1.50050000000000E+0003	 1.10647136487322E-0001	
 1.50250000000000E+0003	 1.12016014533086E-0001	
 1.50450000000000E+0003	 1.12086892578850E-0001	
 1.50650000000000E+0003	 1.13570270624613E-0001	
 1.50850000000000E+0003	 1.16648148670377E-0001	
 1.51050000000000E+0003	 1.20589026716141E-0001	
 1.51250000000000E+0003	 1.24029904761905E-0001	
 1.51450000000000E+0003	 1.27194282807669E-0001	
 1.51650000000000E+0003	 1.30099160853432E-0001	
 1.51850000000000E+0003	 1.32666038899196E-0001	
 1.52050000000000E+0003	 1.34817916944960E-0001	
 1.52250000000000E+0003	 1.37467294990724E-0001	
 1.52450000000000E+0003	 1.40243673036487E-0001	
 1.52650000000000E+0003	 1.43700051082251E-0001	
 1.52850000000000E+0003	 1.47017929128015E-0001	
 1.53050000000000E+0003	 1.50083807173779E-0001	
 1.53250000000000E+0003	 1.52893685219542E-0001	
 1.53450000000000E+0003	 1.56205063265306E-0001	
 1.53650000000000E+0003	 1.58806441311070E-0001	
 1.53850000000000E+0003	 1.60565819356834E-0001	
 1.54050000000000E+0003	 1.63976697402597E-0001	
 1.54250000000000E+0003	 1.66676575448361E-0001	
 1.54450000000000E+0003	 1.68850953494125E-0001	
 1.54650000000000E+0003	 1.70135831539889E-0001	
 1.54850000000000E+0003	 1.70588709585652E-0001	
 1.55050000000000E+0003	 1.69783587631416E-0001	
 1.55250000000000E+0003	 1.67941965677180E-0001	
 1.55450000000000E+0003	 1.65158843722944E-0001	
 1.55650000000000E+0003	 1.61072721768707E-0001	
 1.55850000000000E+0003	 1.56328599814471E-0001	
 1.56050000000000E+0003	 1.52901977860235E-0001	
 1.56250000000000E+0003	 1.52174855905999E-0001	
 1.56450000000000E+0003	 1.50910233951763E-0001	
 1.56650000000000E+0003	 1.48452611997526E-0001	
 1.56850000000000E+0003	 1.46456990043290E-0001	
 1.57050000000000E+0003	 1.44605368089054E-0001	
 1.57250000000000E+0003	 1.43270746134818E-0001	
 1.57450000000000E+0003	 1.41615124180581E-0001	
 1.57650000000000E+0003	 1.40043002226345E-0001	
 1.57850000000000E+0003	 1.38897380272109E-0001	
 1.58050000000000E+0003	 1.38561758317873E-0001	
 1.58250000000000E+0003	 1.37711136363636E-0001	
 1.58450000000000E+0003	 1.37394514409400E-0001	
 1.58650000000000E+0003	 1.37325392455164E-0001	
 1.58850000000000E+0003	 1.37891270500928E-0001	
 1.59050000000000E+0003	 1.38706648546691E-0001	
 1.59250000000000E+0003	 1.40178526592455E-0001	
 1.59450000000000E+0003	 1.41879404638219E-0001	
 1.59650000000000E+0003	 1.44120782683983E-0001	
 1.59850000000000E+0003	 1.46444660729746E-0001	
 1.60050000000000E+0003	 1.49358538775510E-0001	
 1.60250000000000E+0003	 1.52478916821274E-0001	
 1.60450000000000E+0003	 1.56179294867038E-0001	
 1.60650000000000E+0003	 1.60075172912801E-0001	
 1.60850000000000E+0003	 1.64696550958565E-0001	
 1.61050000000000E+0003	 1.69687429004329E-0001	
 1.61250000000000E+0003	 1.75377807050093E-0001	
 1.61450000000000E+0003	 1.80593685095857E-0001	
 1.61650000000000E+0003	 1.87152563141620E-0001	
 1.61850000000000E+0003	 1.94589441187384E-0001	
 1.62050000000000E+0003	 2.01770819233148E-0001	
 1.62250000000000E+0003	 2.08993197278912E-0001	
 1.62450000000000E+0003	 2.17253575324675E-0001	
 1.62650000000000E+0003	 2.25228953370439E-0001	
 1.62850000000000E+0003	 2.33480831416203E-0001	
 1.63050000000000E+0003	 2.41487709461967E-0001	
 1.63250000000000E+0003	 2.48197087507730E-0001	
 1.63450000000000E+0003	 2.53610965553494E-0001	
 1.63650000000000E+0003	 2.59960343599258E-0001	
 1.63850000000000E+0003	 2.65365221645022E-0001	
 1.64050000000000E+0003	 2.69387099690785E-0001	
 1.64250000000000E+0003	 2.72024977736549E-0001	
 1.64450000000000E+0003	 2.73511855782313E-0001	
 1.64650000000000E+0003	 2.75311233828077E-0001	
 1.64850000000000E+0003	 2.77468611873840E-0001	
 1.65050000000000E+0003	 2.78669489919604E-0001	
 1.65250000000000E+0003	 2.78704367965368E-0001	
 1.65450000000000E+0003	 2.78792746011132E-0001	
 1.65650000000000E+0003	 2.79026624056895E-0001	
 1.65850000000000E+0003	 2.77164002102659E-0001	
 1.66050000000000E+0003	 2.72747380148423E-0001	
 1.66250000000000E+0003	 2.66732258194187E-0001	
 1.66450000000000E+0003	 2.59976636239951E-0001	
 1.66650000000000E+0003	 2.53545514285714E-0001	
 1.66850000000000E+0003	 2.46484892331478E-0001	
 1.67050000000000E+0003	 2.38924770377242E-0001	
 1.67250000000000E+0003	 2.32560648423006E-0001	
 1.67450000000000E+0003	 2.26288526468769E-0001	
 1.67650000000000E+0003	 2.19735404514533E-0001	
 1.67850000000000E+0003	 2.14679282560297E-0001	
 1.68050000000000E+0003	 2.09445660606061E-0001	
 1.68250000000000E+0003	 2.03294038651824E-0001	
 1.68450000000000E+0003	 1.96615916697588E-0001	
 1.68650000000000E+0003	 1.90864794743352E-0001	
 1.68850000000000E+0003	 1.87220672789116E-0001	
 1.69050000000000E+0003	 1.82548550834879E-0001	
 1.69250000000000E+0003	 1.77311428880643E-0001	
 1.69450000000000E+0003	 1.71835306926407E-0001	
 1.69650000000000E+0003	 1.65867684972171E-0001	
 1.69850000000000E+0003	 1.61108063017934E-0001	
 1.70050000000000E+0003	 1.56240941063698E-0001	
 1.70250000000000E+0003	 1.53733819109462E-0001	
 1.70450000000000E+0003	 1.52541197155226E-0001	
 1.70650000000000E+0003	 1.49406575200989E-0001	
 1.70850000000000E+0003	 1.46084453246753E-0001	
 1.71050000000000E+0003	 1.43043331292517E-0001	
 1.71250000000000E+0003	 1.39345709338281E-0001	
 1.71450000000000E+0003	 1.35314587384045E-0001	
 1.71650000000000E+0003	 1.30912465429808E-0001	
 1.71850000000000E+0003	 1.26311343475572E-0001	
 1.72050000000000E+0003	 1.22920721521336E-0001	
 1.72250000000000E+0003	 1.20303599567100E-0001	
 1.72450000000000E+0003	 1.17204977612863E-0001	
 1.72650000000000E+0003	 1.14216855658627E-0001	
 1.72850000000000E+0003	 1.11505233704391E-0001	
 1.73050000000000E+0003	 1.08839611750155E-0001	
 1.73250000000000E+0003	 1.06056489795918E-0001	
 1.73450000000000E+0003	 1.03837867841682E-0001	
 1.73650000000000E+0003	 1.03055745887446E-0001	
 1.73850000000000E+0003	 1.02956123933210E-0001	
 1.74050000000000E+0003	 1.02041501978973E-0001	
 1.74250000000000E+0003	 1.01124880024737E-0001	
 1.74450000000000E+0003	 1.00077758070501E-0001	
 1.74650000000000E+0003	 9.86946361162647E-0002	
 1.74850000000000E+0003	 9.69595141620284E-0002	
 1.75050000000000E+0003	 9.49018922077922E-0002	
 1.75250000000000E+0003	 9.35007702535560E-0002	
 1.75450000000000E+0003	 9.30531482993197E-0002	
 1.75650000000000E+0003	 9.22355263450835E-0002	
 1.75850000000000E+0003	 9.11514043908472E-0002	
 1.76050000000000E+0003	 9.01397824366110E-0002	
 1.76250000000000E+0003	 8.93051604823748E-0002	
 1.76450000000000E+0003	 8.82370385281385E-0002	
 1.76650000000000E+0003	 8.74074165739023E-0002	
 1.76850000000000E+0003	 8.63587946196660E-0002	
 1.77050000000000E+0003	 8.57346726654298E-0002	
 1.77250000000000E+0003	 8.53255507111936E-0002	
 1.77450000000000E+0003	 8.49164287569573E-0002	
 1.77650000000000E+0003	 8.48353068027211E-0002	
 1.77850000000000E+0003	 8.46201848484848E-0002	
 1.78050000000000E+0003	 8.42425628942486E-0002	
 1.78250000000000E+0003	 8.38569409400124E-0002	
 1.78450000000000E+0003	 8.33758189857761E-0002	
 1.78650000000000E+0003	 8.30996970315399E-0002	
 1.78850000000000E+0003	 8.27105750773036E-0002	
 1.79050000000000E+0003	 8.22329531230674E-0002	
 1.79250000000000E+0003	 8.17318311688312E-0002	
 1.79450000000000E+0003	 8.16392092145949E-0002	
 1.79650000000000E+0003	 8.16815872603587E-0002	
 1.79850000000000E+0003	 8.14729653061224E-0002	
 1.80050000000000E+0003	 8.11393433518862E-0002	
 1.80250000000000E+0003	 8.11217213976500E-0002	
 1.80450000000000E+0003	 8.10150994434137E-0002	
 1.80650000000000E+0003	 8.09154774891775E-0002	
 1.80850000000000E+0003	 8.05988555349412E-0002	
 1.81050000000000E+0003	 8.04472335807050E-0002	
 1.81250000000000E+0003	 8.02416116264688E-0002	
 1.81450000000000E+0003	 8.01964896722325E-0002	
 1.81650000000000E+0003	 7.99693677179963E-0002	
 1.81850000000000E+0003	 7.98582457637600E-0002	
 1.82050000000000E+0003	 7.96601238095238E-0002	
 1.82250000000000E+0003	 7.94310018552876E-0002	
 1.82450000000000E+0003	 7.91023799010513E-0002	
 1.82650000000000E+0003	 7.88897579468151E-0002	
 1.82850000000000E+0003	 7.88901359925788E-0002	
 1.83050000000000E+0003	 7.89180140383426E-0002	
 1.83250000000000E+0003	 7.86503920841064E-0002	
 1.83450000000000E+0003	 7.87322701298701E-0002	
 1.83650000000000E+0003	 7.87221481756339E-0002	
 1.83850000000000E+0003	 7.86000262213977E-0002	
 1.84050000000000E+0003	 7.82524042671614E-0002	
 1.84250000000000E+0003	 7.77502823129252E-0002	
 1.84450000000000E+0003	 7.74236603586889E-0002	
 1.84650000000000E+0003	 7.75905384044527E-0002	
 1.84850000000000E+0003	 7.80489164502165E-0002	
 1.85050000000000E+0003	 7.81917944959802E-0002	
 1.85250000000000E+0003	 7.82076725417440E-0002	
 1.85450000000000E+0003	 7.82080505875077E-0002	
 1.85650000000000E+0003	 7.81494286332715E-0002	
 1.85850000000000E+0003	 7.81203066790353E-0002	
 1.86050000000000E+0003	 7.80311847247990E-0002	
 1.86250000000000E+0003	 7.79700627705628E-0002	
 1.86450000000000E+0003	 7.78529408163265E-0002	
 1.86650000000000E+0003	 7.77363188620903E-0002	
 1.86850000000000E+0003	 7.76316969078541E-0002	
 1.87050000000000E+0003	 7.74745749536178E-0002	
 1.87250000000000E+0003	 7.75894529993816E-0002	
 1.87450000000000E+0003	 7.78248310451453E-0002	
 1.87650000000000E+0003	 7.78537090909091E-0002	
 1.87850000000000E+0003	 7.78590871366729E-0002	
 1.88050000000000E+0003	 7.78304651824366E-0002	
 1.88250000000000E+0003	 7.78118432282004E-0002	
 1.88450000000000E+0003	 7.78007212739641E-0002	
 1.88650000000000E+0003	 7.77110993197279E-0002	
 1.88850000000000E+0003	 7.77164773654917E-0002	
 1.89050000000000E+0003	 7.76958554112554E-0002	
 1.89250000000000E+0003	 7.76277334570192E-0002	
 1.89450000000000E+0003	 7.77406115027829E-0002	
 1.89650000000000E+0003	 7.77684895485467E-0002	
 1.89850000000000E+0003	 7.77548675943105E-0002	
 1.90050000000000E+0003	 7.77837456400742E-0002	
 1.90250000000000E+0003	 7.77891236858380E-0002	
 1.90450000000000E+0003	 7.78090017316017E-0002	
 1.90650000000000E+0003	 7.78093797773655E-0002	
 1.90850000000000E+0003	 7.78682578231293E-0002	
 1.91050000000000E+0003	 7.78531358688930E-0002	
 1.91250000000000E+0003	 7.78130139146568E-0002	
 1.91450000000000E+0003	 7.77068919604205E-0002	
 1.91650000000000E+0003	 7.75552700061843E-0002	
 1.91850000000000E+0003	 7.74806480519481E-0002	
 1.92050000000000E+0003	 7.75820260977118E-0002	
 1.92250000000000E+0003	 7.78749041434756E-0002	
 1.92450000000000E+0003	 7.79217821892393E-0002	
 1.92650000000000E+0003	 7.78776602350031E-0002	
 1.92850000000000E+0003	 7.79360382807669E-0002	
 1.93050000000000E+0003	 7.79414163265306E-0002	
 1.93250000000000E+0003	 7.79707943722944E-0002	
 1.93450000000000E+0003	 7.79571724180581E-0002	
 1.93650000000000E+0003	 7.79555504638219E-0002	
 1.93850000000000E+0003	 7.79039285095857E-0002	
 1.94050000000000E+0003	 7.78433065553494E-0002	
 1.94250000000000E+0003	 7.78731846011132E-0002	
 1.94450000000000E+0003	 7.78935626468769E-0002	
 1.94650000000000E+0003	 7.79709406926407E-0002	
 1.94850000000000E+0003	 7.80428187384045E-0002	
 1.95050000000000E+0003	 7.80621967841682E-0002	
 1.95250000000000E+0003	 7.81045748299320E-0002	
 1.95450000000000E+0003	 7.81319528756957E-0002	
 1.95650000000000E+0003	 7.81653309214595E-0002	
 1.95850000000000E+0003	 7.81837089672233E-0002	
 1.96050000000000E+0003	 7.82135870129870E-0002	
 1.96250000000000E+0003	 7.82224650587508E-0002	
 1.96450000000000E+0003	 7.82218431045145E-0002	
 1.96650000000000E+0003	 7.82812211502783E-0002	
 1.96850000000000E+0003	 7.82995991960421E-0002	
 1.97050000000000E+0003	 7.82999772418058E-0002	
 1.97250000000000E+0003	 7.83633552875696E-0002	
 1.97450000000000E+0003	 7.84057333333333E-0002	
 1.97650000000000E+0003	 7.84426113790971E-0002	
 1.97850000000000E+0003	 7.84674894248609E-0002	
 1.98050000000000E+0003	 7.84928674706246E-0002	
 1.98250000000000E+0003	 7.85262455163884E-0002	
 1.98450000000000E+0003	 7.85421235621521E-0002	
 1.98650000000000E+0003	 7.85715016079159E-0002	
 1.98850000000000E+0003	 7.85713796536797E-0002	
 1.99050000000000E+0003	 7.85827576994434E-0002	
 1.99250000000000E+0003	 7.86416357452072E-0002	
 1.99450000000000E+0003	 7.86650137909709E-0002	
 1.99650000000000E+0003	 7.87478918367347E-0002	
 1.99850000000000E+0003	 7.88332698824985E-0002	
 2.00050000000000E+0003	 7.88776479282622E-0002	
 2.00250000000000E+0003	 7.89195259740260E-0002	
 2.00450000000000E+0003	 7.89604040197897E-0002	
 2.00650000000000E+0003	 7.90137820655535E-0002	
 2.00850000000000E+0003	 7.90681601113173E-0002	
 2.01050000000000E+0003	 7.91175381570810E-0002	
 2.01250000000000E+0003	 7.91564162028448E-0002	
 2.01450000000000E+0003	 7.91892942486085E-0002	
 2.01650000000000E+0003	 7.92636722943723E-0002	
 2.01850000000000E+0003	 7.93195503401361E-0002	
 2.02050000000000E+0003	 7.93684283858998E-0002	
 2.02250000000000E+0003	 7.94408064316636E-0002	
 2.02450000000000E+0003	 7.95086844774273E-0002	
 2.02650000000000E+0003	 7.95715625231911E-0002	
 2.02850000000000E+0003	 7.96284405689549E-0002	
 2.03050000000000E+0003	 7.96748186147186E-0002	
 2.03250000000000E+0003	 7.97331966604824E-0002	
 2.03450000000000E+0003	 7.97770747062461E-0002	
 2.03650000000000E+0003	 7.98259527520099E-0002	
 2.03850000000000E+0003	 7.98563307977737E-0002	
 2.04050000000000E+0003	 7.99107088435374E-0002	
 2.04250000000000E+0003	 7.99515868893012E-0002	
 2.04450000000000E+0003	 7.99899649350649E-0002	
 2.04650000000000E+0003	 8.00213429808287E-0002	
 2.04850000000000E+0003	 8.00662210265925E-0002	
 2.05050000000000E+0003	 8.00970990723562E-0002	
 2.05250000000000E+0003	 8.01324771181200E-0002	
 2.05450000000000E+0003	 8.01488551638837E-0002	
 2.05650000000000E+0003	 8.01782332096475E-0002	
 2.05850000000000E+0003	 8.01911112554113E-0002	
 2.06050000000000E+0003	 8.02154893011750E-0002	
 2.06250000000000E+0003	 8.02153673469388E-0002	
 2.06450000000000E+0003	 8.02557453927025E-0002	
 2.06650000000000E+0003	 8.02621234384663E-0002	
 2.06850000000000E+0003	 8.02785014842301E-0002	
 2.07050000000000E+0003	 8.02943795299938E-0002	
 2.07250000000000E+0003	 8.03212575757576E-0002	
 2.07450000000000E+0003	 8.03271356215213E-0002	
 2.07650000000000E+0003	 8.03440136672851E-0002	
 2.07850000000000E+0003	 8.03403917130489E-0002	
 2.08050000000000E+0003	 8.03547697588126E-0002	
 2.08250000000000E+0003	 8.03461478045764E-0002	
 2.08450000000000E+0003	 8.03545258503401E-0002	
 2.08650000000000E+0003	 8.03414038961039E-0002	
 2.08850000000000E+0003	 8.03512819418677E-0002	
 2.09050000000000E+0003	 8.03456599876314E-0002	
 2.09250000000000E+0003	 8.03535380333952E-0002	
 2.09450000000000E+0003	 8.03449160791589E-0002	
 2.09650000000000E+0003	 8.03497941249227E-0002	
 2.09850000000000E+0003	 8.03366721706865E-0002	
 2.10050000000000E+0003	 8.03375502164502E-0002	
 2.10250000000000E+0003	 8.03154282622140E-0002	
 2.10450000000000E+0003	 8.03083063079777E-0002	
 2.10650000000000E+0003	 8.02901843537415E-0002	
 2.10850000000000E+0003	 8.02865623995053E-0002	
 2.11050000000000E+0003	 8.02644404452690E-0002	
 2.11250000000000E+0003	 8.02478184910328E-0002	
 2.11450000000000E+0003	 8.02226965367965E-0002	
 2.11650000000000E+0003	 8.02095745825603E-0002	
 2.11850000000000E+0003	 8.01869526283241E-0002	
 2.12050000000000E+0003	 8.01743306740878E-0002	
 2.12250000000000E+0003	 8.01462087198516E-0002	
 2.12450000000000E+0003	 8.01265867656153E-0002	
 2.12650000000000E+0003	 8.00994648113791E-0002	
 2.12850000000000E+0003	 8.00768428571429E-0002	
 2.13050000000000E+0003	 8.00477209029066E-0002	
 2.13250000000000E+0003	 8.00225989486704E-0002	
 2.13450000000000E+0003	 7.99934769944341E-0002	
 2.13650000000000E+0003	 7.99718550401979E-0002	
 2.13850000000000E+0003	 7.99397330859617E-0002	
 2.14050000000000E+0003	 7.99091111317254E-0002	
 2.14250000000000E+0003	 7.98724891774892E-0002	
 2.14450000000000E+0003	 7.98393672232529E-0002	
 2.14650000000000E+0003	 7.98047452690167E-0002	
 2.14850000000000E+0003	 7.97766233147805E-0002	
 2.15050000000000E+0003	 7.97420013605442E-0002	
 2.15250000000000E+0003	 7.97028794063080E-0002	
 2.15450000000000E+0003	 7.96597574520717E-0002	
 2.15650000000000E+0003	 7.96191354978355E-0002	
 2.15850000000000E+0003	 7.95745135435993E-0002	
 2.16050000000000E+0003	 7.95288915893630E-0002	
 2.16250000000000E+0003	 7.94792696351268E-0002	
 2.16450000000000E+0003	 7.94271476808905E-0002	
 2.16650000000000E+0003	 7.93785257266543E-0002	
 2.16850000000000E+0003	 7.93334037724181E-0002	
 2.17050000000000E+0003	 7.92822818181818E-0002	
 2.17250000000000E+0003	 7.92146598639456E-0002	
 2.17450000000000E+0003	 7.91550379097093E-0002	
 2.17650000000000E+0003	 7.90949159554731E-0002	
 2.17850000000000E+0003	 7.90397940012369E-0002	
 2.18050000000000E+0003	 7.89831720470006E-0002	
 2.18250000000000E+0003	 7.89285500927644E-0002	
 2.18450000000000E+0003	 7.88664281385281E-0002	
 2.18650000000000E+0003	 7.88163061842919E-0002	
 2.18850000000000E+0003	 7.87641842300557E-0002	
 2.19050000000000E+0003	 7.87200622758194E-0002	
 2.19250000000000E+0003	 7.86669403215832E-0002	
 2.19450000000000E+0003	 7.86188183673469E-0002	
 2.19650000000000E+0003	 7.85621964131107E-0002	
 2.19850000000000E+0003	 7.85115744588745E-0002	
 2.20050000000000E+0003	 7.84544525046382E-0002	
 2.20250000000000E+0003	 7.84078305504020E-0002	
 2.20450000000000E+0003	 7.83577085961657E-0002	
 2.20650000000000E+0003	 7.83150866419295E-0002	
 2.20850000000000E+0003	 7.82619646876933E-0002	
 2.21050000000000E+0003	 7.82233427334570E-0002	
 2.21250000000000E+0003	 7.81782207792208E-0002	
 2.21450000000000E+0003	 7.81405988249845E-0002	
 2.21650000000000E+0003	 7.80929768707483E-0002	
 2.21850000000000E+0003	 7.80528549165121E-0002	
 2.22050000000000E+0003	 7.80037329622758E-0002	
 2.22250000000000E+0003	 7.79656110080396E-0002	
 2.22450000000000E+0003	 7.79154890538033E-0002	
 2.22650000000000E+0003	 7.78788670995671E-0002	
 2.22850000000000E+0003	 7.78342451453309E-0002	
 2.23050000000000E+0003	 7.78006231910946E-0002	
 2.23250000000000E+0003	 7.77525012368584E-0002	
 2.23450000000000E+0003	 7.77153792826221E-0002	
 2.23650000000000E+0003	 7.76672573283859E-0002	
 2.23850000000000E+0003	 7.76336353741497E-0002	
 2.24050000000000E+0003	 7.75905134199134E-0002	
 2.24250000000000E+0003	 7.75603914656772E-0002	
 2.24450000000000E+0003	 7.75162695114409E-0002	
 2.24650000000000E+0003	 7.74861475572047E-0002	
 2.24850000000000E+0003	 7.74435256029685E-0002	
 2.25050000000000E+0003	 7.74109036487322E-0002	
 2.25250000000000E+0003	 7.73727816944960E-0002	
 2.25450000000000E+0003	 7.73451597402597E-0002	
 2.25650000000000E+0003	 7.73105377860235E-0002	
 2.25850000000000E+0003	 7.72929158317873E-0002	
 2.26050000000000E+0003	 7.72612938775510E-0002	
 2.26250000000000E+0003	 7.72376719233148E-0002	
 2.26450000000000E+0003	 7.72030499690785E-0002	
 2.26650000000000E+0003	 7.71779280148423E-0002	
 2.26850000000000E+0003	 7.71488060606061E-0002	
 2.27050000000000E+0003	 7.71266841063698E-0002	
 2.27250000000000E+0003	 7.70915621521336E-0002	
 2.27450000000000E+0003	 7.70679401978973E-0002	
 2.27650000000000E+0003	 7.70353182436611E-0002	
 2.27850000000000E+0003	 7.70081962894249E-0002	
 2.28050000000000E+0003	 7.69680743351886E-0002	
 2.28250000000000E+0003	 7.69374523809524E-0002	
 2.28450000000000E+0003	 7.69043304267161E-0002	
 2.28650000000000E+0003	 7.68797084724799E-0002	
 2.28850000000000E+0003	 7.68375865182437E-0002	
 2.29050000000000E+0003	 7.67959645640074E-0002	
 2.29250000000000E+0003	 7.67443426097712E-0002	
 2.29450000000000E+0003	 7.67007206555349E-0002	
 2.29650000000000E+0003	 7.66535987012987E-0002	
 2.29850000000000E+0003	 7.66234767470625E-0002	
 2.30050000000000E+0003	 7.66048547928262E-0002	
 2.30250000000000E+0003	 7.66202328385900E-0002	
 2.30450000000000E+0003	 7.66221108843537E-0002	
 2.30650000000000E+0003	 7.66114889301175E-0002	
 2.30850000000000E+0003	 7.66153669758813E-0002	
 2.31050000000000E+0003	 7.66577450216450E-0002	
 2.31250000000000E+0003	 7.67381230674088E-0002	
 2.31450000000000E+0003	 7.68105011131725E-0002	
 2.31650000000000E+0003	 7.67903791589363E-0002	
 2.31850000000000E+0003	 7.67342572047001E-0002	
 2.32050000000000E+0003	 7.66911352504638E-0002	
 2.32250000000000E+0003	 7.66640132962276E-0002	
 2.32450000000000E+0003	 7.66543913419913E-0002	
 2.32650000000000E+0003	 7.66522693877551E-0002	
 2.32850000000000E+0003	 7.66571474335189E-0002	
 2.33050000000000E+0003	 7.66535254792826E-0002	
 2.33250000000000E+0003	 7.66624035250464E-0002	
 2.33450000000000E+0003	 7.66952815708101E-0002	
 2.33650000000000E+0003	 7.67311596165739E-0002	
 2.33850000000000E+0003	 7.67275376623377E-0002	
 2.34050000000000E+0003	 7.66639157081014E-0002	
 2.34250000000000E+0003	 7.65547937538652E-0002	
 2.34450000000000E+0003	 7.64381717996289E-0002	
 2.34650000000000E+0003	 7.63865498453927E-0002	
 2.34850000000000E+0003	 7.63959278911565E-0002	
 2.35050000000000E+0003	 7.66473059369202E-0002	
 2.35250000000000E+0003	 7.69216839826840E-0002	
 2.35450000000000E+0003	 7.68715620284477E-0002	
 2.35650000000000E+0003	 7.67684400742115E-0002	
 2.35850000000000E+0003	 7.67508181199753E-0002	
 2.36050000000000E+0003	 7.67711961657390E-0002	
 2.36250000000000E+0003	 7.67685742115028E-0002	
 2.36450000000000E+0003	 7.67244522572665E-0002	
 2.36650000000000E+0003	 7.66818303030303E-0002	
 2.36850000000000E+0003	 7.66712083487941E-0002	
 2.37050000000000E+0003	 7.67325863945578E-0002	
 2.37250000000000E+0003	 7.68829644403216E-0002	
 2.37450000000000E+0003	 7.70758424860853E-0002	
 2.37650000000000E+0003	 7.71977205318491E-0002	
 2.37850000000000E+0003	 7.71720985776129E-0002	
 2.38050000000000E+0003	 7.70679766233766E-0002	
 2.38250000000000E+0003	 7.70123546691404E-0002	
 2.38450000000000E+0003	 7.70652327149041E-0002	
 2.38650000000000E+0003	 7.71736107606679E-0002	
 2.38850000000000E+0003	 7.72794888064317E-0002	
 2.39050000000000E+0003	 7.73563668521954E-0002	
 2.39250000000000E+0003	 7.74157448979592E-0002	
 2.39450000000000E+0003	 7.74586229437229E-0002	
 2.39650000000000E+0003	 7.75025009894867E-0002	
 2.39850000000000E+0003	 7.75383790352505E-0002	
 2.40050000000000E+0003	 7.75722570810142E-0002	
 2.40250000000000E+0003	 7.75886351267780E-0002	
 2.40450000000000E+0003	 7.75980131725417E-0002	
 2.40650000000000E+0003	 7.75968912183055E-0002	
 2.40850000000000E+0003	 7.76002692640693E-0002	
 2.41050000000000E+0003	 7.75981473098330E-0002	
 2.41250000000000E+0003	 7.76015253555968E-0002	
 2.41450000000000E+0003	 7.75984034013605E-0002	
 2.41650000000000E+0003	 7.76007814471243E-0002	
 2.41850000000000E+0003	 7.75961594928881E-0002	
 2.42050000000000E+0003	 7.76025375386518E-0002	
 2.42250000000000E+0003	 7.76114155844156E-0002	
 2.42450000000000E+0003	 7.76377936301793E-0002	
 2.42650000000000E+0003	 7.76506716759431E-0002	
 2.42850000000000E+0003	 7.76430497217069E-0002	
 2.43050000000000E+0003	 7.76149277674706E-0002	
 2.43250000000000E+0003	 7.76048058132344E-0002	
 2.43450000000000E+0003	 7.75961838589981E-0002	
 2.43650000000000E+0003	 7.75985619047619E-0002	
 2.43850000000000E+0003	 7.75954399505257E-0002	
 2.44050000000000E+0003	 7.76013179962894E-0002	
 2.44250000000000E+0003	 7.76001960420532E-0002	
 2.44450000000000E+0003	 7.76040740878169E-0002	
 2.44650000000000E+0003	 7.75989521335807E-0002	
 2.44850000000000E+0003	 7.76043301793445E-0002	
 2.45050000000000E+0003	 7.76032082251082E-0002	
 2.45250000000000E+0003	 7.76050862708720E-0002	
 2.45450000000000E+0003	 7.75969643166357E-0002	
 2.45650000000000E+0003	 7.76008423623995E-0002	
 2.45850000000000E+0003	 7.76007204081633E-0002	
 2.46050000000000E+0003	 7.76045984539270E-0002	
 2.46250000000000E+0003	 7.75954764996908E-0002	
 2.46450000000000E+0003	 7.75958545454545E-0002	
 2.46650000000000E+0003	 7.76017325912183E-0002	
 2.46850000000000E+0003	 7.76141106369821E-0002	
 2.47050000000000E+0003	 7.76159886827458E-0002	
 2.47250000000000E+0003	 7.76238667285096E-0002	
 2.47450000000000E+0003	 7.76317447742733E-0002	
 2.47650000000000E+0003	 7.76456228200371E-0002	
 2.47850000000000E+0003	 7.76485008658009E-0002	
 2.48050000000000E+0003	 7.76543789115646E-0002	
 2.48250000000000E+0003	 7.76572569573284E-0002	
 2.48450000000000E+0003	 7.76671350030921E-0002	
 2.48650000000000E+0003	 7.76710130488559E-0002	
 2.48850000000000E+0003	 7.76768910946197E-0002	
 2.49050000000000E+0003	 7.76802691403834E-0002	
 2.49250000000000E+0003	 7.76891471861472E-0002	
 2.49450000000000E+0003	 7.76900252319109E-0002	
 2.49650000000000E+0003	 7.76939032776747E-0002	
 2.49850000000000E+0003	 7.76982813234385E-0002	
 2.50050000000000E+0003	 7.77026593692022E-0002	
 2.50250000000000E+0003	 7.77005374149660E-0002	
 2.50450000000000E+0003	 7.77049154607297E-0002	
 2.50650000000000E+0003	 7.77097935064935E-0002	
 2.50850000000000E+0003	 7.77161715522573E-0002	
 2.51050000000000E+0003	 7.77155495980210E-0002	
 2.51250000000000E+0003	 7.77149276437848E-0002	
 2.51450000000000E+0003	 7.77078056895485E-0002	
 2.51650000000000E+0003	 7.77011837353123E-0002	
 2.51850000000000E+0003	 7.76930617810761E-0002	
 2.52050000000000E+0003	 7.76829398268398E-0002	
 2.52250000000000E+0003	 7.76728178726036E-0002	
 2.52450000000000E+0003	 7.76656959183673E-0002	
 2.52650000000000E+0003	 7.76545739641311E-0002	
 2.52850000000000E+0003	 7.76424520098949E-0002	
 2.53050000000000E+0003	 7.76328300556586E-0002	
 2.53250000000000E+0003	 7.76257081014224E-0002	
 2.53450000000000E+0003	 7.76180861471861E-0002	
 2.53650000000000E+0003	 7.76114641929499E-0002	
 2.53850000000000E+0003	 7.76073422387137E-0002	
 2.54050000000000E+0003	 7.76072202844774E-0002	
 2.54250000000000E+0003	 7.76070983302412E-0002	
 2.54450000000000E+0003	 7.76024763760049E-0002	
 2.54650000000000E+0003	 7.76013544217687E-0002	
 2.54850000000000E+0003	 7.76017324675325E-0002	
 2.55050000000000E+0003	 7.76021105132962E-0002	
 2.55250000000000E+0003	 7.75939885590600E-0002	
 2.55450000000000E+0003	 7.75908666048237E-0002	
 2.55650000000000E+0003	 7.75927446505875E-0002	
 2.55850000000000E+0003	 7.75971226963513E-0002	
 2.56050000000000E+0003	 7.75930007421150E-0002	
 2.56250000000000E+0003	 7.75913787878788E-0002	
 2.56450000000000E+0003	 7.75922568336425E-0002	
 2.56650000000000E+0003	 7.75986348794063E-0002	
 2.56850000000000E+0003	 7.75925129251701E-0002	
 2.57050000000000E+0003	 7.75888909709338E-0002	
 2.57250000000000E+0003	 7.75862690166976E-0002	
 2.57450000000000E+0003	 7.75891470624613E-0002	
 2.57650000000000E+0003	 7.75920251082251E-0002	
 2.57850000000000E+0003	 7.76034031539889E-0002	
 2.58050000000000E+0003	 7.76112811997526E-0002	
 2.58250000000000E+0003	 7.76221592455164E-0002	
 2.58450000000000E+0003	 7.76335372912801E-0002	
 2.58650000000000E+0003	 7.76544153370439E-0002	
 2.58850000000000E+0003	 7.76742933828077E-0002	
 2.59050000000000E+0003	 7.76971714285714E-0002	
 2.59250000000000E+0003	 7.77155494743352E-0002	
 2.59450000000000E+0003	 7.77429275200989E-0002	
 2.59650000000000E+0003	 7.77698055658627E-0002	
 2.59850000000000E+0003	 7.78011836116265E-0002	
 2.60050000000000E+0003	 7.78300616573902E-0002	
 2.60250000000000E+0003	 7.78689397031540E-0002	
 2.60450000000000E+0003	 7.79058177489177E-0002	
 2.60650000000000E+0003	 7.79431957946815E-0002	
 2.60850000000000E+0003	 7.79700738404453E-0002	
 2.61050000000000E+0003	 7.80109518862090E-0002	
 2.61250000000000E+0003	 7.80508299319728E-0002	
 2.61450000000000E+0003	 7.80937079777365E-0002	
 2.61650000000000E+0003	 7.81305860235003E-0002	
 2.61850000000000E+0003	 7.81749640692641E-0002	
 2.62050000000000E+0003	 7.82163421150278E-0002	
 2.62250000000000E+0003	 7.82627201607916E-0002	
 2.62450000000000E+0003	 7.83025982065553E-0002	
 2.62650000000000E+0003	 7.83524762523191E-0002	
 2.62850000000000E+0003	 7.84018542980829E-0002	
 2.63050000000000E+0003	 7.84522323438466E-0002	
 2.63250000000000E+0003	 7.84966103896104E-0002	
 2.63450000000000E+0003	 7.85504884353741E-0002	
 2.63650000000000E+0003	 7.85983664811379E-0002	
 2.63850000000000E+0003	 7.86507445269017E-0002	
 2.64050000000000E+0003	 7.86996225726654E-0002	
 2.64250000000000E+0003	 7.87575006184292E-0002	
 2.64450000000000E+0003	 7.88148786641929E-0002	
 2.64650000000000E+0003	 7.88727567099567E-0002	
 2.64850000000000E+0003	 7.89226347557205E-0002	
 2.65050000000000E+0003	 7.89825128014842E-0002	
 2.65250000000000E+0003	 7.90398908472480E-0002	
 2.65450000000000E+0003	 7.90982688930118E-0002	
 2.65650000000000E+0003	 7.91496469387755E-0002	
 2.65850000000000E+0003	 7.92095249845393E-0002	
 2.66050000000000E+0003	 7.92694030303030E-0002	
 2.66250000000000E+0003	 7.93312810760668E-0002	
 2.66450000000000E+0003	 7.93871591218306E-0002	
 2.66650000000000E+0003	 7.94505371675943E-0002	
 2.66850000000000E+0003	 7.95139152133581E-0002	
 2.67050000000000E+0003	 7.95782932591218E-0002	
 2.67250000000000E+0003	 7.96346713048856E-0002	
 2.67450000000000E+0003	 7.96960493506494E-0002	
 2.67650000000000E+0003	 7.97584273964131E-0002	
 2.67850000000000E+0003	 7.98308054421769E-0002	
 2.68050000000000E+0003	 7.98936834879406E-0002	
 2.68250000000000E+0003	 7.99535615337044E-0002	
 2.68450000000000E+0003	 8.00074395794682E-0002	
 2.68650000000000E+0003	 8.00663176252319E-0002	
 2.68850000000000E+0003	 8.01231956709957E-0002	
 2.69050000000000E+0003	 8.01815737167594E-0002	
 2.69250000000000E+0003	 8.02424517625232E-0002	
 2.69450000000000E+0003	 8.03098298082870E-0002	
 2.69650000000000E+0003	 8.03712078540507E-0002	
 2.69850000000000E+0003	 8.04385858998145E-0002	
 2.70050000000000E+0003	 8.05134639455782E-0002	
 2.70250000000000E+0003	 8.05913419913420E-0002	
 2.70450000000000E+0003	 8.06607200371058E-0002	
 2.70650000000000E+0003	 8.07380980828695E-0002	
 2.70850000000000E+0003	 8.08294761286333E-0002	
 2.71050000000000E+0003	 8.09303541743970E-0002	
 2.71250000000000E+0003	 8.10257322201608E-0002	
 2.71450000000000E+0003	 8.11281102659246E-0002	
 2.71650000000000E+0003	 8.12374883116883E-0002	
 2.71850000000000E+0003	 8.13503663574521E-0002	
 2.72050000000000E+0003	 8.14632444032158E-0002	
 2.72250000000000E+0003	 8.15856224489796E-0002	
 2.72450000000000E+0003	 8.17075004947434E-0002	
 2.72650000000000E+0003	 8.18378785405071E-0002	
 2.72850000000000E+0003	 8.19517565862709E-0002	
 2.73050000000000E+0003	 8.20586346320346E-0002	
 2.73250000000000E+0003	 8.21700126777984E-0002	
 2.73450000000000E+0003	 8.22823907235622E-0002	
 2.73650000000000E+0003	 8.23917687693259E-0002	
 2.73850000000000E+0003	 8.24961468150897E-0002	
 2.74050000000000E+0003	 8.25940248608534E-0002	
 2.74250000000000E+0003	 8.26949029066172E-0002	
 2.74450000000000E+0003	 8.27907809523810E-0002	
 2.74650000000000E+0003	 8.28961589981447E-0002	
 2.74850000000000E+0003	 8.30100370439085E-0002	
 2.75050000000000E+0003	 8.31129150896722E-0002	
 2.75250000000000E+0003	 8.32042931354360E-0002	
 2.75450000000000E+0003	 8.33051711811998E-0002	
 2.75650000000000E+0003	 8.34235492269635E-0002	
 2.75850000000000E+0003	 8.35469272727273E-0002	
 2.76050000000000E+0003	 8.36718053184910E-0002	
 2.76250000000000E+0003	 8.37986833642548E-0002	
 2.76450000000000E+0003	 8.39365614100186E-0002	
 2.76650000000000E+0003	 8.40774394557823E-0002	
 2.76850000000000E+0003	 8.42078175015461E-0002	
 2.77050000000000E+0003	 8.43326955473098E-0002	
 2.77250000000000E+0003	 8.44715735930736E-0002	
 2.77450000000000E+0003	 8.46339516388374E-0002	
 2.77650000000000E+0003	 8.47828296846011E-0002	
 2.77850000000000E+0003	 8.49132077303649E-0002	
 2.78050000000000E+0003	 8.50680857761286E-0002	
 2.78250000000000E+0003	 8.52424638218924E-0002	
 2.78450000000000E+0003	 8.54163418676562E-0002	
 2.78650000000000E+0003	 8.55962199134199E-0002	
 2.78850000000000E+0003	 8.58110979591837E-0002	
 2.79050000000000E+0003	 8.60269760049474E-0002	
 2.79250000000000E+0003	 8.62173540507112E-0002	
 2.79450000000000E+0003	 8.64112320964750E-0002	
 2.79650000000000E+0003	 8.66351101422387E-0002	
 2.79850000000000E+0003	 8.68779881880025E-0002	
 2.80050000000000E+0003	 8.71058662337662E-0002	
 2.80250000000000E+0003	 8.73272442795300E-0002	
 2.80450000000000E+0003	 8.75731223252938E-0002	
 2.80650000000000E+0003	 8.78250003710575E-0002	
 2.80850000000000E+0003	 8.80853784168213E-0002	
 2.81050000000000E+0003	 8.83592564625850E-0002	
 2.81250000000000E+0003	 8.86251345083488E-0002	
 2.81450000000000E+0003	 8.88915125541126E-0002	
 2.81650000000000E+0003	 8.91758905998763E-0002	
 2.81850000000000E+0003	 8.94737686456401E-0002	
 2.82050000000000E+0003	 8.97871466914038E-0002	
 2.82250000000000E+0003	 9.01155247371676E-0002	
 2.82450000000000E+0003	 9.04594027829314E-0002	
 2.82650000000000E+0003	 9.08167808286951E-0002	
 2.82850000000000E+0003	 9.11971588744589E-0002	
 2.83050000000000E+0003	 9.16085369202226E-0002	
 2.83250000000000E+0003	 9.20614149659864E-0002	
 2.83450000000000E+0003	 9.25607930117502E-0002	
 2.83650000000000E+0003	 9.31436710575139E-0002	
 2.83850000000000E+0003	 9.38465491032777E-0002	
 2.84050000000000E+0003	 9.46329271490414E-0002	
 2.84250000000000E+0003	 9.55588051948052E-0002	
 2.84450000000000E+0003	 9.67821832405690E-0002	
 2.84650000000000E+0003	 9.83355612863327E-0002	
 2.84850000000000E+0003	 1.00132939332096E-0001	
 2.85050000000000E+0003	 1.01936317377860E-0001	
 2.85250000000000E+0003	 1.03474195423624E-0001	
 2.85450000000000E+0003	 1.04513073469388E-0001	
 2.85650000000000E+0003	 1.05027951515152E-0001	
 2.85850000000000E+0003	 1.05227829560915E-0001	
 2.86050000000000E+0003	 1.05365207606679E-0001	
 2.86250000000000E+0003	 1.05589085652443E-0001	
 2.86450000000000E+0003	 1.06027963698207E-0001	
 2.86650000000000E+0003	 1.06710841743970E-0001	
 2.86850000000000E+0003	 1.07575219789734E-0001	
 2.87050000000000E+0003	 1.08532597835498E-0001	
 2.87250000000000E+0003	 1.09483975881262E-0001	
 2.87450000000000E+0003	 1.10204853927025E-0001	
 2.87650000000000E+0003	 1.10610231972789E-0001	
 2.87850000000000E+0003	 1.10863110018553E-0001	
 2.88050000000000E+0003	 1.11061988064317E-0001	
 2.88250000000000E+0003	 1.11251366110080E-0001	
 2.88450000000000E+0003	 1.11493244155844E-0001	
 2.88650000000000E+0003	 1.11817122201608E-0001	
 2.88850000000000E+0003	 1.12219500247372E-0001	
 2.89050000000000E+0003	 1.12686878293135E-0001	
 2.89250000000000E+0003	 1.13222256338899E-0001	
 2.89450000000000E+0003	 1.13847634384663E-0001	
 2.89650000000000E+0003	 1.14532012430427E-0001	
 2.89850000000000E+0003	 1.15212890476190E-0001	
 2.90050000000000E+0003	 1.15936768521954E-0001	
 2.90250000000000E+0003	 1.16759146567718E-0001	
 2.90450000000000E+0003	 1.17691524613482E-0001	
 2.90650000000000E+0003	 1.18741902659246E-0001	
 2.90850000000000E+0003	 1.19978780705009E-0001	
 2.91050000000000E+0003	 1.21474158750773E-0001	
 2.91250000000000E+0003	 1.23256536796537E-0001	
 2.91450000000000E+0003	 1.25231414842301E-0001	
 2.91650000000000E+0003	 1.27303292888064E-0001	
 2.91850000000000E+0003	 1.29432670933828E-0001	
 2.92050000000000E+0003	 1.31458048979592E-0001	
 2.92250000000000E+0003	 1.33201427025356E-0001	
 2.92450000000000E+0003	 1.34539305071119E-0001	
 2.92650000000000E+0003	 1.35444183116883E-0001	
 2.92850000000000E+0003	 1.35995061162647E-0001	
 2.93050000000000E+0003	 1.36210439208411E-0001	
 2.93250000000000E+0003	 1.36072317254174E-0001	
 2.93450000000000E+0003	 1.35677695299938E-0001	
 2.93650000000000E+0003	 1.35031073345702E-0001	
 2.93850000000000E+0003	 1.34110451391466E-0001	
 2.94050000000000E+0003	 1.32983329437229E-0001	
 2.94250000000000E+0003	 1.31797707482993E-0001	
 2.94450000000000E+0003	 1.30634085528757E-0001	
 2.94650000000000E+0003	 1.29532463574521E-0001	
 2.94850000000000E+0003	 1.28594841620284E-0001	
 2.95050000000000E+0003	 1.27983219666048E-0001	
 2.95250000000000E+0003	 1.27758097711812E-0001	
 2.95450000000000E+0003	 1.27732475757576E-0001	
 2.95650000000000E+0003	 1.27786853803340E-0001	
 2.95850000000000E+0003	 1.27840231849103E-0001	
 2.96050000000000E+0003	 1.27753609894867E-0001	
 2.96250000000000E+0003	 1.27433987940631E-0001	
 2.96450000000000E+0003	 1.26828865986395E-0001	
 2.96650000000000E+0003	 1.25954744032158E-0001	
 2.96850000000000E+0003	 1.24859122077922E-0001	
 2.97050000000000E+0003	 1.23674500123686E-0001	
 2.97250000000000E+0003	 1.22571378169450E-0001	
 2.97450000000000E+0003	 1.21545256215213E-0001	
 2.97650000000000E+0003	 1.20496134260977E-0001	
 2.97850000000000E+0003	 1.19469012306741E-0001	
 2.98050000000000E+0003	 1.18487890352505E-0001	
 2.98250000000000E+0003	 1.17496768398268E-0001	
 2.98450000000000E+0003	 1.16523146444032E-0001	
 2.98650000000000E+0003	 1.15647024489796E-0001	
 2.98850000000000E+0003	 1.14879902535560E-0001	
 2.99050000000000E+0003	 1.14243780581323E-0001	
 2.99250000000000E+0003	 1.13723658627087E-0001	
 2.99450000000000E+0003	 1.13242036672851E-0001	
 2.99650000000000E+0003	 1.12876914718615E-0001	
 2.99850000000000E+0003	 1.12653292764378E-0001	
 3.00050000000000E+0003	 1.12488670810142E-0001	
 3.00250000000000E+0003	 1.12441548855906E-0001	
 3.00450000000000E+0003	 1.12523426901670E-0001	
 3.00650000000000E+0003	 1.12688804947434E-0001	
 3.00850000000000E+0003	 1.12947682993197E-0001	
 3.01050000000000E+0003	 1.13350061038961E-0001	
 3.01250000000000E+0003	 1.13829939084725E-0001	
 3.01450000000000E+0003	 1.14276317130489E-0001	
 3.01650000000000E+0003	 1.14680195176252E-0001	
 3.01850000000000E+0003	 1.15142573222016E-0001	
 3.02050000000000E+0003	 1.15691951267780E-0001	
 3.02250000000000E+0003	 1.16316329313544E-0001	
 3.02450000000000E+0003	 1.17021207359307E-0001	
 3.02650000000000E+0003	 1.17724085405071E-0001	
 3.02850000000000E+0003	 1.18417963450835E-0001	
 3.03050000000000E+0003	 1.19169841496599E-0001	
 3.03250000000000E+0003	 1.19985719542362E-0001	
 3.03450000000000E+0003	 1.20834597588126E-0001	
 3.03650000000000E+0003	 1.21617475633890E-0001	
 3.03850000000000E+0003	 1.22409853679654E-0001	
 3.04050000000000E+0003	 1.23328231725417E-0001	
 3.04250000000000E+0003	 1.24275109771181E-0001	
 3.04450000000000E+0003	 1.25134487816945E-0001	
 3.04650000000000E+0003	 1.25950865862709E-0001	
 3.04850000000000E+0003	 1.26811743908472E-0001	
 3.05050000000000E+0003	 1.27778121954236E-0001	
 3.05250000000000E+0003	 1.28725000000000E-0001	
 3.05450000000000E+0003	 1.29644378045764E-0001	
 3.05650000000000E+0003	 1.30595756091528E-0001	
 3.05850000000000E+0003	 1.31529634137291E-0001	
 3.06050000000000E+0003	 1.32414512183055E-0001	
 3.06250000000000E+0003	 1.33282890228819E-0001	
 3.06450000000000E+0003	 1.34153268274583E-0001	
 3.06650000000000E+0003	 1.35053646320346E-0001	
 3.06850000000000E+0003	 1.35899024366110E-0001	
 3.07050000000000E+0003	 1.36649402411874E-0001	
 3.07250000000000E+0003	 1.37390280457638E-0001	
 3.07450000000000E+0003	 1.38161158503401E-0001	
 3.07650000000000E+0003	 1.38993036549165E-0001	
 3.07850000000000E+0003	 1.39852914594929E-0001	
 3.08050000000000E+0003	 1.40634292640693E-0001	
 3.08250000000000E+0003	 1.41380170686456E-0001	
 3.08450000000000E+0003	 1.42134548732220E-0001	
 3.08650000000000E+0003	 1.42842426777984E-0001	
 3.08850000000000E+0003	 1.43554804823748E-0001	
 3.09050000000000E+0003	 1.44306182869511E-0001	
 3.09250000000000E+0003	 1.44990060915275E-0001	
 3.09450000000000E+0003	 1.45642938961039E-0001	
 3.09650000000000E+0003	 1.46348317006803E-0001	
 3.09850000000000E+0003	 1.47101195052566E-0001	
 3.10050000000000E+0003	 1.47867073098330E-0001	
 3.10250000000000E+0003	 1.48625951144094E-0001	
 3.10450000000000E+0003	 1.49394329189858E-0001	
 3.10650000000000E+0003	 1.50225707235622E-0001	
 3.10850000000000E+0003	 1.51109085281385E-0001	
 3.11050000000000E+0003	 1.51942463327149E-0001	
 3.11250000000000E+0003	 1.52769841372913E-0001	
 3.11450000000000E+0003	 1.53751219418677E-0001	
 3.11650000000000E+0003	 1.54815097464440E-0001	
 3.11850000000000E+0003	 1.55849975510204E-0001	
 3.12050000000000E+0003	 1.56832853555968E-0001	
 3.12250000000000E+0003	 1.57749731601732E-0001	
 3.12450000000000E+0003	 1.58713109647495E-0001	
 3.12650000000000E+0003	 1.59811987693259E-0001	
 3.12850000000000E+0003	 1.61003865739023E-0001	
 3.13050000000000E+0003	 1.62211743784787E-0001	
 3.13250000000000E+0003	 1.63391621830550E-0001	
 3.13450000000000E+0003	 1.64636499876314E-0001	
 3.13650000000000E+0003	 1.65983877922078E-0001	
 3.13850000000000E+0003	 1.67416255967842E-0001	
 3.14050000000000E+0003	 1.68785134013605E-0001	
 3.14250000000000E+0003	 1.70083012059369E-0001	
 3.14450000000000E+0003	 1.71456890105133E-0001	
 3.14650000000000E+0003	 1.72925768150897E-0001	
 3.14850000000000E+0003	 1.74453146196660E-0001	
 3.15050000000000E+0003	 1.76124524242424E-0001	
 3.15250000000000E+0003	 1.77846402288188E-0001	
 3.15450000000000E+0003	 1.79407780333952E-0001	
 3.15650000000000E+0003	 1.80931658379716E-0001	
 3.15850000000000E+0003	 1.82579036425479E-0001	
 3.16050000000000E+0003	 1.84307914471243E-0001	
 3.16250000000000E+0003	 1.86078792517007E-0001	
 3.16450000000000E+0003	 1.87873170562771E-0001	
 3.16650000000000E+0003	 1.89694048608534E-0001	
 3.16850000000000E+0003	 1.91544426654298E-0001	
 3.17050000000000E+0003	 1.93422804700062E-0001	
 3.17250000000000E+0003	 1.95307182745826E-0001	
 3.17450000000000E+0003	 1.97195560791589E-0001	
 3.17650000000000E+0003	 1.99098938837353E-0001	
 3.17850000000000E+0003	 2.01043316883117E-0001	
 3.18050000000000E+0003	 2.03003194928881E-0001	
 3.18250000000000E+0003	 2.04955572974644E-0001	
 3.18450000000000E+0003	 2.06912951020408E-0001	
 3.18650000000000E+0003	 2.08890329066172E-0001	
 3.18850000000000E+0003	 2.10864207111936E-0001	
 3.19050000000000E+0003	 2.12813085157699E-0001	
 3.19250000000000E+0003	 2.14744463203463E-0001	
 3.19450000000000E+0003	 2.16664841249227E-0001	
 3.19650000000000E+0003	 2.18570719294991E-0001	
 3.19850000000000E+0003	 2.20494097340754E-0001	
 3.20050000000000E+0003	 2.22438475386518E-0001	
 3.20250000000000E+0003	 2.24376853432282E-0001	
 3.20450000000000E+0003	 2.26284731478046E-0001	
 3.20650000000000E+0003	 2.28166609523810E-0001	
 3.20850000000000E+0003	 2.30034987569573E-0001	
 3.21050000000000E+0003	 2.31911365615337E-0001	
 3.21250000000000E+0003	 2.33795243661101E-0001	
 3.21450000000000E+0003	 2.35691121706865E-0001	
 3.21650000000000E+0003	 2.37584499752628E-0001	
 3.21850000000000E+0003	 2.39482877798392E-0001	
 3.22050000000000E+0003	 2.41381755844156E-0001	
 3.22250000000000E+0003	 2.43282633889920E-0001	
 3.22450000000000E+0003	 2.45194011935683E-0001	
 3.22650000000000E+0003	 2.47112889981447E-0001	
 3.22850000000000E+0003	 2.49045268027211E-0001	
 3.23050000000000E+0003	 2.51062146072975E-0001	
 3.23250000000000E+0003	 2.53187524118738E-0001	
 3.23450000000000E+0003	 2.55209402164502E-0001	
 3.23650000000000E+0003	 2.57078280210266E-0001	
 3.23850000000000E+0003	 2.59018158256030E-0001	
 3.24050000000000E+0003	 2.61061036301793E-0001	
 3.24250000000000E+0003	 2.63143914347557E-0001	
 3.24450000000000E+0003	 2.65296792393321E-0001	
 3.24650000000000E+0003	 2.67536170439085E-0001	
 3.24850000000000E+0003	 2.69715548484848E-0001	
 3.25050000000000E+0003	 2.71834426530612E-0001	
 3.25250000000000E+0003	 2.74012804576376E-0001	
 3.25450000000000E+0003	 2.76288682622140E-0001	
 3.25650000000000E+0003	 2.78583560667904E-0001	
 3.25850000000000E+0003	 2.80838438713667E-0001	
 3.26050000000000E+0003	 2.83106816759431E-0001	
 3.26250000000000E+0003	 2.85402694805195E-0001	
 3.26450000000000E+0003	 2.87696572850959E-0001	
 3.26650000000000E+0003	 2.89989950896722E-0001	
 3.26850000000000E+0003	 2.92326328942486E-0001	
 3.27050000000000E+0003	 2.94645206988250E-0001	
 3.27250000000000E+0003	 2.96767585034014E-0001	
 3.27450000000000E+0003	 2.98769963079777E-0001	
 3.27650000000000E+0003	 3.00764341125541E-0001	
 3.27850000000000E+0003	 3.02714219171305E-0001	
 3.28050000000000E+0003	 3.04619597217069E-0001	
 3.28250000000000E+0003	 3.06478475262832E-0001	
 3.28450000000000E+0003	 3.08269853308596E-0001	
 3.28650000000000E+0003	 3.09971231354360E-0001	
 3.28850000000000E+0003	 3.11616609400124E-0001	
 3.29050000000000E+0003	 3.13268987445887E-0001	
 3.29250000000000E+0003	 3.14864365491651E-0001	
 3.29450000000000E+0003	 3.16313743537415E-0001	
 3.29650000000000E+0003	 3.17659621583179E-0001	
 3.29850000000000E+0003	 3.18926499628942E-0001	
 3.30050000000000E+0003	 3.20167877674706E-0001	
 3.30250000000000E+0003	 3.21487755720470E-0001	
 3.30450000000000E+0003	 3.22900133766234E-0001	
 3.30650000000000E+0003	 3.24177011811998E-0001	
 3.30850000000000E+0003	 3.25216889857761E-0001	
 3.31050000000000E+0003	 3.26172267903525E-0001	
 3.31250000000000E+0003	 3.27178645949289E-0001	
 3.31450000000000E+0003	 3.28267023995053E-0001	
 3.31650000000000E+0003	 3.29383402040816E-0001	
 3.31850000000000E+0003	 3.30500780086580E-0001	
 3.32050000000000E+0003	 3.31630658132344E-0001	
 3.32250000000000E+0003	 3.32804036178108E-0001	
 3.32450000000000E+0003	 3.34042414223871E-0001	
 3.32650000000000E+0003	 3.35245292269635E-0001	
 3.32850000000000E+0003	 3.36380170315399E-0001	
 3.33050000000000E+0003	 3.37551548361163E-0001	
 3.33250000000000E+0003	 3.38774926406926E-0001	
 3.33450000000000E+0003	 3.40042804452690E-0001	
 3.33650000000000E+0003	 3.41424682498454E-0001	
 3.33850000000000E+0003	 3.42825560544218E-0001	
 3.34050000000000E+0003	 3.44094438589981E-0001	
 3.34250000000000E+0003	 3.45333816635745E-0001	
 3.34450000000000E+0003	 3.46586694681509E-0001	
 3.34650000000000E+0003	 3.47858572727273E-0001	
 3.34850000000000E+0003	 3.49287450773036E-0001	
 3.35050000000000E+0003	 3.50747828818800E-0001	
 3.35250000000000E+0003	 3.51966706864564E-0001	
 3.35450000000000E+0003	 3.53100084910328E-0001	
 3.35650000000000E+0003	 3.54358462956092E-0001	
 3.35850000000000E+0003	 3.55694341001855E-0001	
 3.36050000000000E+0003	 3.57027719047619E-0001	
 3.36250000000000E+0003	 3.58306597093383E-0001	
 3.36450000000000E+0003	 3.59669975139147E-0001	
 3.36650000000000E+0003	 3.61208853184910E-0001	
 3.36850000000000E+0003	 3.62680231230674E-0001	
 3.37050000000000E+0003	 3.63765109276438E-0001	
 3.37250000000000E+0003	 3.64608487322202E-0001	
 3.37450000000000E+0003	 3.65598365367965E-0001	
 3.37650000000000E+0003	 3.66733743413729E-0001	
 3.37850000000000E+0003	 3.67843121459493E-0001	
 3.38050000000000E+0003	 3.68886499505257E-0001	
 3.38250000000000E+0003	 3.69849877551020E-0001	
 3.38450000000000E+0003	 3.70790755596784E-0001	
 3.38650000000000E+0003	 3.71765633642548E-0001	
 3.38850000000000E+0003	 3.72882511688312E-0001	
 3.39050000000000E+0003	 3.74146889734075E-0001	
 3.39250000000000E+0003	 3.75099267779839E-0001	
 3.39450000000000E+0003	 3.75631145825603E-0001	
 3.39650000000000E+0003	 3.76312023871367E-0001	
 3.39850000000000E+0003	 3.77428901917130E-0001	
 3.40050000000000E+0003	 3.78498779962894E-0001	
 3.40250000000000E+0003	 3.78908158008658E-0001	
 3.40450000000000E+0003	 3.79023036054422E-0001	
 3.40650000000000E+0003	 3.79431914100186E-0001	
 3.40850000000000E+0003	 3.80047792145949E-0001	
 3.41050000000000E+0003	 3.80586170191713E-0001	
 3.41250000000000E+0003	 3.81016048237477E-0001	
 3.41450000000000E+0003	 3.81245426283241E-0001	
 3.41650000000000E+0003	 3.81353304329004E-0001	
 3.41850000000000E+0003	 3.81535182374768E-0001	
 3.42050000000000E+0003	 3.81741060420532E-0001	
 3.42250000000000E+0003	 3.81815938466296E-0001	
 3.42450000000000E+0003	 3.81842316512059E-0001	
 3.42650000000000E+0003	 3.81954694557823E-0001	
 3.42850000000000E+0003	 3.82109572603587E-0001	
 3.43050000000000E+0003	 3.82070450649351E-0001	
 3.43250000000000E+0003	 3.81924328695114E-0001	
 3.43450000000000E+0003	 3.81878706740878E-0001	
 3.43650000000000E+0003	 3.81588084786642E-0001	
 3.43850000000000E+0003	 3.80811462832406E-0001	
 3.44050000000000E+0003	 3.79911840878169E-0001	
 3.44250000000000E+0003	 3.79168218923933E-0001	
 3.44450000000000E+0003	 3.78513596969697E-0001	
 3.44650000000000E+0003	 3.77851475015461E-0001	
 3.44850000000000E+0003	 3.77085853061224E-0001	
 3.45050000000000E+0003	 3.76238731106988E-0001	
 3.45250000000000E+0003	 3.75377609152752E-0001	
 3.45450000000000E+0003	 3.74440487198516E-0001	
 3.45650000000000E+0003	 3.73458365244280E-0001	
 3.45850000000000E+0003	 3.72519743290043E-0001	
 3.46050000000000E+0003	 3.71488621335807E-0001	
 3.46250000000000E+0003	 3.70248499381571E-0001	
 3.46450000000000E+0003	 3.69135877427335E-0001	
 3.46650000000000E+0003	 3.68306755473098E-0001	
 3.46850000000000E+0003	 3.67223133518862E-0001	
 3.47050000000000E+0003	 3.65469011564626E-0001	
 3.47250000000000E+0003	 3.63489889610390E-0001	
 3.47450000000000E+0003	 3.61776267656153E-0001	
 3.47650000000000E+0003	 3.60310145701917E-0001	
 3.47850000000000E+0003	 3.58944023747681E-0001	
 3.48050000000000E+0003	 3.57290401793445E-0001	
 3.48250000000000E+0003	 3.55330279839208E-0001	
 3.48450000000000E+0003	 3.53556657884972E-0001	
 3.48650000000000E+0003	 3.51906535930736E-0001	
 3.48850000000000E+0003	 3.50064913976500E-0001	
 3.49050000000000E+0003	 3.48166792022263E-0001	
 3.49250000000000E+0003	 3.46374670068027E-0001	
 3.49450000000000E+0003	 3.44599548113791E-0001	
 3.49650000000000E+0003	 3.42758426159555E-0001	
 3.49850000000000E+0003	 3.40804804205318E-0001	
 3.50050000000000E+0003	 3.38868682251082E-0001	
 3.50250000000000E+0003	 3.36893060296846E-0001	
 3.50450000000000E+0003	 3.34629438342610E-0001	
 3.50650000000000E+0003	 3.32342816388374E-0001	
 3.50850000000000E+0003	 3.30225694434137E-0001	
 3.51050000000000E+0003	 3.28216072479901E-0001	
 3.51250000000000E+0003	 3.26338950525665E-0001	
 3.51450000000000E+0003	 3.24318328571429E-0001	
 3.51650000000000E+0003	 3.22045706617192E-0001	
 3.51850000000000E+0003	 3.19771584662956E-0001	
 3.52050000000000E+0003	 3.17604462708720E-0001	
 3.52250000000000E+0003	 3.15489340754484E-0001	
 3.52450000000000E+0003	 3.13124718800247E-0001	
 3.52650000000000E+0003	 3.10595596846011E-0001	
 3.52850000000000E+0003	 3.08253974891775E-0001	
 3.53050000000000E+0003	 3.06017352937539E-0001	
 3.53250000000000E+0003	 3.03831230983302E-0001	
 3.53450000000000E+0003	 3.01721609029066E-0001	
 3.53650000000000E+0003	 2.99466987074830E-0001	
 3.53850000000000E+0003	 2.96918365120594E-0001	
 3.54050000000000E+0003	 2.94463243166357E-0001	
 3.54250000000000E+0003	 2.92183121212121E-0001	
 3.54450000000000E+0003	 2.89650499257885E-0001	
 3.54650000000000E+0003	 2.86689377303649E-0001	
 3.54850000000000E+0003	 2.83833755349412E-0001	
 3.55050000000000E+0003	 2.81334133395176E-0001	
 3.55250000000000E+0003	 2.78751511440940E-0001	
 3.55450000000000E+0003	 2.76025389486704E-0001	
 3.55650000000000E+0003	 2.73402267532468E-0001	
 3.55850000000000E+0003	 2.70785145578231E-0001	
 3.56050000000000E+0003	 2.68044023623995E-0001	
 3.56250000000000E+0003	 2.65143901669759E-0001	
 3.56450000000000E+0003	 2.62032779715523E-0001	
 3.56650000000000E+0003	 2.58713657761286E-0001	
 3.56850000000000E+0003	 2.55747035807050E-0001	
 3.57050000000000E+0003	 2.53280413852814E-0001	
 3.57250000000000E+0003	 2.50692291898578E-0001	
 3.57450000000000E+0003	 2.47848669944341E-0001	
 3.57650000000000E+0003	 2.44953547990105E-0001	
 3.57850000000000E+0003	 2.42048926035869E-0001	
 3.58050000000000E+0003	 2.39136804081633E-0001	
 3.58250000000000E+0003	 2.36281682127396E-0001	
 3.58450000000000E+0003	 2.33448060173160E-0001	
 3.58650000000000E+0003	 2.30192938218924E-0001	
 3.58850000000000E+0003	 2.26493816264688E-0001	
 3.59050000000000E+0003	 2.23263694310451E-0001	
 3.59250000000000E+0003	 2.20490072356215E-0001	
 3.59450000000000E+0003	 2.17515950401979E-0001	
 3.59650000000000E+0003	 2.14463328447743E-0001	
 3.59850000000000E+0003	 2.11525706493506E-0001	
 3.60050000000000E+0003	 2.08535584539270E-0001	
 3.60250000000000E+0003	 2.05516462585034E-0001	
 3.60450000000000E+0003	 2.02480340630798E-0001	
 3.60650000000000E+0003	 1.99239718676562E-0001	
 3.60850000000000E+0003	 1.95832096722325E-0001	
 3.61050000000000E+0003	 1.92673474768089E-0001	
 3.61250000000000E+0003	 1.89793852813853E-0001	
 3.61450000000000E+0003	 1.86939230859617E-0001	
 3.61650000000000E+0003	 1.84328608905380E-0001	
 3.61850000000000E+0003	 1.81940486951144E-0001	
 3.62050000000000E+0003	 1.79006364996908E-0001	
 3.62250000000000E+0003	 1.75590743042672E-0001	
 3.62450000000000E+0003	 1.72507621088435E-0001	
 3.62650000000000E+0003	 1.69750499134199E-0001	
 3.62850000000000E+0003	 1.66827877179963E-0001	
 3.63050000000000E+0003	 1.63638255225727E-0001	
 3.63250000000000E+0003	 1.60788133271490E-0001	
 3.63450000000000E+0003	 1.58276011317254E-0001	
 3.63650000000000E+0003	 1.55710889363018E-0001	
 3.63850000000000E+0003	 1.53179267408782E-0001	
 3.64050000000000E+0003	 1.50554145454545E-0001	
 3.64250000000000E+0003	 1.47858023500309E-0001	
 3.64450000000000E+0003	 1.45179901546073E-0001	
 3.64650000000000E+0003	 1.42527279591837E-0001	
 3.64850000000000E+0003	 1.39929157637600E-0001	
 3.65050000000000E+0003	 1.37602035683364E-0001	
 3.65250000000000E+0003	 1.35369413729128E-0001	
 3.65450000000000E+0003	 1.33274791774892E-0001	
 3.65650000000000E+0003	 1.31263669820656E-0001	
 3.65850000000000E+0003	 1.29225047866419E-0001	
 3.66050000000000E+0003	 1.27258925912183E-0001	
 3.66250000000000E+0003	 1.25147303957947E-0001	
 3.66450000000000E+0003	 1.23060682003711E-0001	
 3.66650000000000E+0003	 1.21230060049474E-0001	
 3.66850000000000E+0003	 1.19463438095238E-0001	
 3.67050000000000E+0003	 1.17660816141002E-0001	
 3.67250000000000E+0003	 1.15858194186766E-0001	
 3.67450000000000E+0003	 1.14228072232529E-0001	
 3.67650000000000E+0003	 1.12616950278293E-0001	
 3.67850000000000E+0003	 1.11200328324057E-0001	
 3.68050000000000E+0003	 1.10038706369821E-0001	
 3.68250000000000E+0003	 1.08820084415584E-0001	
 3.68450000000000E+0003	 1.07822962461348E-0001	
 3.68650000000000E+0003	 1.06870840507112E-0001	
 3.68850000000000E+0003	 1.06058718552876E-0001	
 3.69050000000000E+0003	 1.05148096598639E-0001	
 3.69250000000000E+0003	 1.03881474644403E-0001	
 3.69450000000000E+0003	 1.02835852690167E-0001	
 3.69650000000000E+0003	 1.02039230735931E-0001	
 3.69850000000000E+0003	 1.01264608781694E-0001	
 3.70050000000000E+0003	 1.00557486827458E-0001	
 3.70250000000000E+0003	 9.98488648732220E-0002	
 3.70450000000000E+0003	 9.89562429189858E-0002	
 3.70650000000000E+0003	 9.80711209647495E-0002	
 3.70850000000000E+0003	 9.72314990105133E-0002	
 3.71050000000000E+0003	 9.65068770562771E-0002	
 3.71250000000000E+0003	 9.60227551020408E-0002	
 3.71450000000000E+0003	 9.56896331478046E-0002	
 3.71650000000000E+0003	 9.53515111935683E-0002	
 3.71850000000000E+0003	 9.48868892393321E-0002	
 3.72050000000000E+0003	 9.42702672850959E-0002	
 3.72250000000000E+0003	 9.36521453308596E-0002	
 3.72450000000000E+0003	 9.30390233766234E-0002	
 3.72650000000000E+0003	 9.25244014223871E-0002	
 3.72850000000000E+0003	 9.21602794681509E-0002	
 3.73050000000000E+0003	 9.17811575139147E-0002	
 3.73250000000000E+0003	 9.14400355596784E-0002	
 3.73450000000000E+0003	 9.09509136054422E-0002	
 3.73650000000000E+0003	 9.03067916512059E-0002	
 3.73850000000000E+0003	 8.98081696969697E-0002	
 3.74050000000000E+0003	 8.97715477427335E-0002	
 3.74250000000000E+0003	 8.95219257884972E-0002	
 3.74450000000000E+0003	 8.91283038342610E-0002	
 3.74650000000000E+0003	 8.87956818800247E-0002	
 3.74850000000000E+0003	 8.83755599257885E-0002	
 3.75050000000000E+0003	 8.80489379715523E-0002	
 3.75250000000000E+0003	 8.79483160173160E-0002	
 3.75450000000000E+0003	 8.79496940630798E-0002	
 3.75650000000000E+0003	 8.79330721088435E-0002	
 3.75850000000000E+0003	 8.78024501546073E-0002	
 3.76050000000000E+0003	 8.76848282003711E-0002	
 3.76250000000000E+0003	 8.74477062461348E-0002	
 3.76450000000000E+0003	 8.72165842918986E-0002	
 3.76650000000000E+0003	 8.70279623376623E-0002	
 3.76850000000000E+0003	 8.67668403834261E-0002	
 3.77050000000000E+0003	 8.66847184291899E-0002	
 3.77250000000000E+0003	 8.65650964749536E-0002	
 3.77450000000000E+0003	 8.63969745207174E-0002	
 3.77650000000000E+0003	 8.61468525664811E-0002	
 3.77850000000000E+0003	 8.59427306122449E-0002	
 3.78050000000000E+0003	 8.58271086580087E-0002	
 3.78250000000000E+0003	 8.55554867037724E-0002	
 3.78450000000000E+0003	 8.53758647495362E-0002	
 3.78650000000000E+0003	 8.52522427952999E-0002	
 3.78850000000000E+0003	 8.51326208410637E-0002	
 3.79050000000000E+0003	 8.49844988868275E-0002	
 3.79250000000000E+0003	 8.47283769325912E-0002	
 3.79450000000000E+0003	 8.43407549783550E-0002	
 3.79650000000000E+0003	 8.41646330241187E-0002	
 3.79850000000000E+0003	 8.40690110698825E-0002	
 3.80050000000000E+0003	 8.37693891156463E-0002	
 3.80250000000000E+0003	 8.35902671614100E-0002	
 3.80450000000000E+0003	 8.33656452071738E-0002	
 3.80650000000000E+0003	 8.33685232529375E-0002	
 3.80850000000000E+0003	 8.33904012987013E-0002	
 3.81050000000000E+0003	 8.32752793444651E-0002	
 3.81250000000000E+0003	 8.31391573902288E-0002	
 3.81450000000000E+0003	 8.27585354359926E-0002	
 3.81650000000000E+0003	 8.25569134817563E-0002	
 3.81850000000000E+0003	 8.24947915275201E-0002	
 3.82050000000000E+0003	 8.25921695732839E-0002	
 3.82250000000000E+0003	 8.25090476190476E-0002	
 3.82450000000000E+0003	 8.21439256648114E-0002	
 3.82650000000000E+0003	 8.20518037105751E-0002	
 3.82850000000000E+0003	 8.19306817563389E-0002	
 3.83050000000000E+0003	 8.18535598021027E-0002	
 3.83250000000000E+0003	 8.20019378478664E-0002	
 3.83450000000000E+0003	 8.21703158936302E-0002	
 3.83650000000000E+0003	 8.19881939393939E-0002	
 3.83850000000000E+0003	 8.15205719851577E-0002	
 3.84050000000000E+0003	 8.12379500309215E-0002	
 3.84250000000000E+0003	 8.11443280766852E-0002	
 3.84450000000000E+0003	 8.11432061224490E-0002	
 3.84650000000000E+0003	 8.09855841682127E-0002	
 3.84850000000000E+0003	 8.08669622139765E-0002	
 3.85050000000000E+0003	 8.08683402597403E-0002	
 3.85250000000000E+0003	 8.12662183055040E-0002	
 3.85450000000000E+0003	 8.18090963512678E-0002	
 3.85650000000000E+0003	 8.12459743970315E-0002	
 3.85850000000000E+0003	 8.05668524427953E-0002	
 3.86050000000000E+0003	 8.02767304885591E-0002	
 3.86250000000000E+0003	 8.03741085343228E-0002	
 3.86450000000000E+0003	 8.05189865800866E-0002	
 3.86650000000000E+0003	 8.04173646258503E-0002	
 3.86850000000000E+0003	 8.01407426716141E-0002	
 3.87050000000000E+0003	 8.01181207173779E-0002	
 3.87250000000000E+0003	 8.00659987631416E-0002	
 3.87450000000000E+0003	 8.01343768089054E-0002	
 3.87650000000000E+0003	 7.99562548546691E-0002	
 3.87850000000000E+0003	 7.97686329004329E-0002	
 3.88050000000000E+0003	 7.98635109461967E-0002	
 3.88250000000000E+0003	 7.98053889919604E-0002	
 3.88450000000000E+0003	 7.96072670377242E-0002	
 3.88650000000000E+0003	 7.95561450834879E-0002	
 3.88850000000000E+0003	 7.95640231292517E-0002	
 3.89050000000000E+0003	 7.98974011750155E-0002	
 3.89250000000000E+0003	 8.00227792207792E-0002	
 3.89450000000000E+0003	 7.96721572665430E-0002	
 3.89650000000000E+0003	 7.94525353123067E-0002	
 3.89850000000000E+0003	 7.93879133580705E-0002	
 3.90050000000000E+0003	 7.90707914038343E-0002	
 3.90250000000000E+0003	 7.89386694495980E-0002	
 3.90450000000000E+0003	 7.94685474953618E-0002	
 3.90650000000000E+0003	 7.96284255411255E-0002	
 3.90850000000000E+0003	 7.93753035868893E-0002	
 3.91050000000000E+0003	 7.92551816326531E-0002	
 3.91250000000000E+0003	 7.92050596784168E-0002	
 3.91450000000000E+0003	 7.90339377241806E-0002	
 3.91650000000000E+0003	 7.88268157699443E-0002	
 3.91850000000000E+0003	 7.87481938157081E-0002	
 3.92050000000000E+0003	 7.88485718614719E-0002	
 3.92250000000000E+0003	 7.89339499072356E-0002	
 3.92450000000000E+0003	 7.90763279529994E-0002	
 3.92650000000000E+0003	 7.90792059987631E-0002	
 3.92850000000000E+0003	 7.88820840445269E-0002	
 3.93050000000000E+0003	 7.86719620902907E-0002	
 3.93250000000000E+0003	 7.85103401360544E-0002	
 3.93450000000000E+0003	 7.85487181818182E-0002	
 3.93650000000000E+0003	 7.86525962275819E-0002	
 3.93850000000000E+0003	 7.86859742733457E-0002	
 3.94050000000000E+0003	 7.86308523191095E-0002	
 3.94250000000000E+0003	 7.86402303648732E-0002	
 3.94450000000000E+0003	 7.85056084106370E-0002	
 3.94650000000000E+0003	 7.82644864564007E-0002	
 3.94850000000000E+0003	 7.82493645021645E-0002	
 3.95050000000000E+0003	 7.83982425479283E-0002	
 3.95250000000000E+0003	 7.84576205936920E-0002	
 3.95450000000000E+0003	 7.84059986394558E-0002	
 3.95650000000000E+0003	 7.83413766852195E-0002	
 3.95850000000000E+0003	 7.82767547309833E-0002	
 3.96050000000000E+0003	 7.81926327767471E-0002	
 3.96250000000000E+0003	 7.81505108225108E-0002	
 3.96450000000000E+0003	 7.81473888682746E-0002	
 3.96650000000000E+0003	 7.81457669140383E-0002	
 3.96850000000000E+0003	 7.81186449598021E-0002	
 3.97050000000000E+0003	 7.80835230055659E-0002	
 3.97250000000000E+0003	 7.80394010513296E-0002	
 3.97450000000000E+0003	 7.79822790970934E-0002	
 3.97650000000000E+0003	 7.79286571428571E-0002	
 3.97850000000000E+0003	 7.79045351886209E-0002	
 3.98050000000000E+0003	 7.78954132343847E-0002	
 3.98250000000000E+0003	 7.79012912801484E-0002	
 3.98450000000000E+0003	 7.78866693259122E-0002	
 3.98650000000000E+0003	 7.78275473716759E-0002	
 3.98850000000000E+0003	 7.77494254174397E-0002	
 3.99050000000000E+0003	 7.77078034632035E-0002	
 3.99250000000000E+0003	 7.76796815089672E-0002	
 3.99450000000000E+0003	 7.76650595547310E-0002	
 3.99650000000000E+0003	 7.76344376004947E-0002	
 3.99850000000000E+0003	 7.75933156462585E-0002	

>1	DATALINE
