*CPCWIN*

>1	DATALINE
DATALINE
1
Operator:

Description:

Remarks:





15.9.2008
10:53


_x	_y
	
	
UNIT	UNIT
 4.50500000000000E+0002	 6.83133099588477E-0002	
 4.52500000000000E+0002	 6.81469386831276E-0002	
 4.54500000000000E+0002	 6.86700674074074E-0002	
 4.56500000000000E+0002	 6.85216961316872E-0002	
 4.58500000000000E+0002	 6.92873248559671E-0002	
 4.60500000000000E+0002	 6.97234535802469E-0002	
 4.62500000000000E+0002	 7.06855823045267E-0002	
 4.64500000000000E+0002	 7.10157110288066E-0002	
 4.66500000000000E+0002	 7.15393397530864E-0002	
 4.68500000000000E+0002	 7.15874684773663E-0002	
 4.70500000000000E+0002	 7.22290972016461E-0002	
 4.72500000000000E+0002	 7.24207259259259E-0002	
 4.74500000000000E+0002	 7.31963546502058E-0002	
 4.76500000000000E+0002	 7.35339833744856E-0002	
 4.78500000000000E+0002	 7.42971120987654E-0002	
 4.80500000000000E+0002	 7.45752408230453E-0002	
 4.82500000000000E+0002	 7.52608695473251E-0002	
 4.84500000000000E+0002	 7.55309982716049E-0002	
 4.86500000000000E+0002	 7.62641269958848E-0002	
 4.88500000000000E+0002	 7.67062557201646E-0002	
 4.90500000000000E+0002	 7.74563844444444E-0002	
 4.92500000000000E+0002	 7.78935131687243E-0002	
 4.94500000000000E+0002	 7.87441418930041E-0002	
 4.96500000000000E+0002	 7.91932706172840E-0002	
 4.98500000000000E+0002	 7.99558993415638E-0002	
 5.00500000000000E+0002	 8.01225280658436E-0002	
 5.02500000000000E+0002	 8.07136567901235E-0002	
 5.04500000000000E+0002	 8.13322855144033E-0002	
 5.06500000000000E+0002	 8.23189142386831E-0002	
 5.08500000000000E+0002	 8.27865429629630E-0002	
 5.10500000000000E+0002	 8.35531716872428E-0002	
 5.12500000000000E+0002	 8.40558004115226E-0002	
 5.14500000000000E+0002	 8.47709291358025E-0002	
 5.16500000000000E+0002	 8.51030578600823E-0002	
 5.18500000000000E+0002	 8.59126865843621E-0002	
 5.20500000000000E+0002	 8.65623153086420E-0002	
 5.22500000000000E+0002	 8.73994440329218E-0002	
 5.24500000000000E+0002	 8.76650727572016E-0002	
 5.26500000000000E+0002	 8.84252014814815E-0002	
 5.28500000000000E+0002	 8.91283302057613E-0002	
 5.30500000000000E+0002	 8.98379589300412E-0002	
 5.32500000000000E+0002	 9.01005876543210E-0002	
 5.34500000000000E+0002	 9.05057163786008E-0002	
 5.36500000000000E+0002	 9.05483451028807E-0002	
 5.38500000000000E+0002	 9.07294738271605E-0002	
 5.40500000000000E+0002	 9.06096025514403E-0002	
 5.42500000000000E+0002	 9.07072312757202E-0002	
 5.44500000000000E+0002	 9.05558600000000E-0002	
 5.46500000000000E+0002	 9.06769887242798E-0002	
 5.48500000000000E+0002	 9.06106174485597E-0002	
 5.50500000000000E+0002	 9.08377461728395E-0002	
 5.52500000000000E+0002	 9.08433748971193E-0002	
 5.54500000000000E+0002	 9.10030036213992E-0002	
 5.56500000000000E+0002	 9.08616323456790E-0002	
 5.58500000000000E+0002	 9.08942610699588E-0002	
 5.60500000000000E+0002	 9.06578897942387E-0002	
 5.62500000000000E+0002	 9.05865185185185E-0002	
 5.64500000000000E+0002	 9.02721472427984E-0002	
 5.66500000000000E+0002	 9.02217759670782E-0002	
 5.68500000000000E+0002	 9.00184046913580E-0002	
 5.70500000000000E+0002	 9.00770334156379E-0002	
 5.72500000000000E+0002	 8.99121621399177E-0002	
 5.74500000000000E+0002	 8.99087908641975E-0002	
 5.76500000000000E+0002	 8.97739195884774E-0002	
 5.78500000000000E+0002	 9.00040483127572E-0002	
 5.80500000000000E+0002	 8.99566770370370E-0002	
 5.82500000000000E+0002	 9.01018057613169E-0002	
 5.84500000000000E+0002	 9.00439344855967E-0002	
 5.86500000000000E+0002	 9.01910632098765E-0002	
 5.88500000000000E+0002	 9.01091919341564E-0002	
 5.90500000000000E+0002	 9.01833206584362E-0002	
 5.92500000000000E+0002	 9.01324493827160E-0002	
 5.94500000000000E+0002	 9.04125781069959E-0002	
 5.96500000000000E+0002	 9.04932068312757E-0002	
 5.98500000000000E+0002	 9.07583355555556E-0002	
 6.00500000000000E+0002	 9.08734642798354E-0002	
 6.02500000000000E+0002	 9.12465930041152E-0002	
 6.04500000000000E+0002	 9.13147217283951E-0002	
 6.06500000000000E+0002	 9.14733504526749E-0002	
 6.08500000000000E+0002	 9.13009791769547E-0002	
 6.10500000000000E+0002	 9.12671079012346E-0002	
 6.12500000000000E+0002	 9.10112366255144E-0002	
 6.14500000000000E+0002	 9.09568653497942E-0002	
 6.16500000000000E+0002	 9.06979940740741E-0002	
 6.18500000000000E+0002	 9.06831227983539E-0002	
 6.20500000000000E+0002	 9.04932515226337E-0002	
 6.22500000000000E+0002	 9.04768802469136E-0002	
 6.24500000000000E+0002	 9.02390089711934E-0002	
 6.26500000000000E+0002	 9.02391376954733E-0002	
 6.28500000000000E+0002	 9.00792664197531E-0002	
 6.30500000000000E+0002	 9.00683951440329E-0002	
 6.32500000000000E+0002	 8.98125238683128E-0002	
 6.34500000000000E+0002	 8.97371525925926E-0002	
 6.36500000000000E+0002	 8.95172813168724E-0002	
 6.38500000000000E+0002	 8.94779100411523E-0002	
 6.40500000000000E+0002	 8.92345387654321E-0002	
 6.42500000000000E+0002	 8.91921674897119E-0002	
 6.44500000000000E+0002	 8.89657962139918E-0002	
 6.46500000000000E+0002	 8.89234249382716E-0002	
 6.48500000000000E+0002	 8.87215536625514E-0002	
 6.50500000000000E+0002	 8.86441823868313E-0002	
 6.52500000000000E+0002	 8.83628111111111E-0002	
 6.54500000000000E+0002	 8.83139398353909E-0002	
 6.56500000000000E+0002	 8.81310685596708E-0002	
 6.58500000000000E+0002	 8.81086972839506E-0002	
 6.60500000000000E+0002	 8.79388260082305E-0002	
 6.62500000000000E+0002	 8.79439547325103E-0002	
 6.64500000000000E+0002	 8.76655834567901E-0002	
 6.66500000000000E+0002	 8.72067121810700E-0002	
 6.68500000000000E+0002	 8.66213409053498E-0002	
 6.70500000000000E+0002	 8.70969696296296E-0002	
 6.72500000000000E+0002	 8.70895983539095E-0002	
 6.74500000000000E+0002	 8.70102270781893E-0002	
 6.76500000000000E+0002	 8.67098558024691E-0002	
 6.78500000000000E+0002	 8.65869845267490E-0002	
 6.80500000000000E+0002	 8.63011132510288E-0002	
 6.82500000000000E+0002	 8.62077419753086E-0002	
 6.84500000000000E+0002	 8.59413706995885E-0002	
 6.86500000000000E+0002	 8.58454994238683E-0002	
 6.88500000000000E+0002	 8.55771281481481E-0002	
 6.90500000000000E+0002	 8.55767568724280E-0002	
 6.92500000000000E+0002	 8.54323855967078E-0002	
 6.94500000000000E+0002	 8.54555143209877E-0002	
 6.96500000000000E+0002	 8.53421430452675E-0002	
 6.98500000000000E+0002	 8.54042717695473E-0002	
 7.00500000000000E+0002	 8.52674004938272E-0002	
 7.02500000000000E+0002	 8.52040292181070E-0002	
 7.04500000000000E+0002	 8.49271579423868E-0002	
 7.06500000000000E+0002	 8.47727866666667E-0002	
 7.08500000000000E+0002	 8.44879153909465E-0002	
 7.10500000000000E+0002	 8.43815441152263E-0002	
 7.12500000000000E+0002	 8.41231728395062E-0002	
 7.14500000000000E+0002	 8.39298015637860E-0002	
 7.16500000000000E+0002	 8.35364302880658E-0002	
 7.18500000000000E+0002	 8.32650590123457E-0002	
 7.20500000000000E+0002	 8.28636877366255E-0002	
 7.22500000000000E+0002	 8.25468164609053E-0002	
 7.24500000000000E+0002	 8.19829451851852E-0002	
 7.26500000000000E+0002	 8.14460739094650E-0002	
 7.28500000000000E+0002	 8.07237026337449E-0002	
 7.30500000000000E+0002	 8.01328313580247E-0002	
 7.32500000000000E+0002	 7.94704600823045E-0002	
 7.34500000000000E+0002	 7.90180888065844E-0002	
 7.36500000000000E+0002	 7.85177175308642E-0002	
 7.38500000000000E+0002	 7.82143462551440E-0002	
 7.40500000000000E+0002	 7.78294749794239E-0002	
 7.42500000000000E+0002	 7.76041037037037E-0002	
 7.44500000000000E+0002	 7.72742324279835E-0002	
 7.46500000000000E+0002	 7.70753611522634E-0002	
 7.48500000000000E+0002	 7.67909898765432E-0002	
 7.50500000000000E+0002	 7.66606186008230E-0002	
 7.52500000000000E+0002	 7.64647473251029E-0002	
 7.54500000000000E+0002	 7.64613760493827E-0002	
 7.56500000000000E+0002	 7.64155047736626E-0002	
 7.58500000000000E+0002	 7.65581334979424E-0002	
 7.60500000000000E+0002	 7.66892622222222E-0002	
 7.62500000000000E+0002	 7.69853909465021E-0002	
 7.64500000000000E+0002	 7.70670196707819E-0002	
 7.66500000000000E+0002	 7.69656483950617E-0002	
 7.68500000000000E+0002	 7.64212771193416E-0002	
 7.70500000000000E+0002	 7.57944058436214E-0002	
 7.72500000000000E+0002	 7.51170345679012E-0002	
 7.74500000000000E+0002	 7.48146632921811E-0002	
 7.76500000000000E+0002	 7.48207920164609E-0002	
 7.78500000000000E+0002	 7.52169207407407E-0002	
 7.80500000000000E+0002	 7.53130494650206E-0002	
 7.82500000000000E+0002	 7.50926781893004E-0002	
 7.84500000000000E+0002	 7.45873069135802E-0002	
 7.86500000000000E+0002	 7.41909356378601E-0002	
 7.88500000000000E+0002	 7.36745643621399E-0002	
 7.90500000000000E+0002	 7.32596930864198E-0002	
 7.92500000000000E+0002	 7.28693218106996E-0002	
 7.94500000000000E+0002	 7.27594505349794E-0002	
 7.96500000000000E+0002	 7.25275792592593E-0002	
 7.98500000000000E+0002	 7.22392079835391E-0002	
 8.00500000000000E+0002	 7.17423367078189E-0002	
 8.02500000000000E+0002	 7.13814654320988E-0002	
 8.04500000000000E+0002	 7.10440941563786E-0002	
 8.06500000000000E+0002	 7.09077228806584E-0002	
 8.08500000000000E+0002	 7.07408516049383E-0002	
 8.10500000000000E+0002	 7.06874803292181E-0002	
 8.12500000000000E+0002	 7.04756090534979E-0002	
 8.14500000000000E+0002	 7.02887377777778E-0002	
 8.16500000000000E+0002	 6.99608665020576E-0002	
 8.18500000000000E+0002	 6.97474952263374E-0002	
 8.20500000000000E+0002	 6.94751239506173E-0002	
 8.22500000000000E+0002	 6.93582526748971E-0002	
 8.24500000000000E+0002	 6.92278813991770E-0002	
 8.26500000000000E+0002	 6.92420101234568E-0002	
 8.28500000000000E+0002	 6.91621388477366E-0002	
 8.30500000000000E+0002	 6.92252675720165E-0002	
 8.32500000000000E+0002	 6.92483962962963E-0002	
 8.34500000000000E+0002	 6.94120250205761E-0002	
 8.36500000000000E+0002	 6.95046537448560E-0002	
 8.38500000000000E+0002	 6.96637824691358E-0002	
 8.40500000000000E+0002	 6.96929111934156E-0002	
 8.42500000000000E+0002	 6.97650399176955E-0002	
 8.44500000000000E+0002	 6.97136686419753E-0002	
 8.46500000000000E+0002	 6.97312973662551E-0002	
 8.48500000000000E+0002	 6.96819260905350E-0002	
 8.50500000000000E+0002	 6.97545548148148E-0002	
 8.52500000000000E+0002	 6.98226835390947E-0002	
 8.54500000000000E+0002	 7.00528122633745E-0002	
 8.56500000000000E+0002	 7.02274409876543E-0002	
 8.58500000000000E+0002	 7.04425697119342E-0002	
 8.60500000000000E+0002	 7.04791984362140E-0002	
 8.62500000000000E+0002	 7.04523271604938E-0002	
 8.64500000000000E+0002	 7.01984558847737E-0002	
 8.66500000000000E+0002	 6.99265846090535E-0002	
 8.68500000000000E+0002	 6.96077133333333E-0002	
 8.70500000000000E+0002	 6.95618420576132E-0002	
 8.72500000000000E+0002	 6.95204707818930E-0002	
 8.74500000000000E+0002	 6.92970995061728E-0002	
 8.76500000000000E+0002	 6.88747282304527E-0002	
 8.78500000000000E+0002	 6.86268569547325E-0002	
 8.80500000000000E+0002	 6.84479856790123E-0002	
 8.82500000000000E+0002	 6.84166144032922E-0002	
 8.84500000000000E+0002	 6.83517431275720E-0002	
 8.86500000000000E+0002	 6.83528718518519E-0002	
 8.88500000000000E+0002	 6.82865005761317E-0002	
 8.90500000000000E+0002	 6.82601293004115E-0002	
 8.92500000000000E+0002	 6.81637580246914E-0002	
 8.94500000000000E+0002	 6.81088867489712E-0002	
 8.96500000000000E+0002	 6.79805154732510E-0002	
 8.98500000000000E+0002	 6.79421441975309E-0002	
 9.00500000000000E+0002	 6.79442729218107E-0002	
 9.02500000000000E+0002	 6.81439016460905E-0002	
 9.04500000000000E+0002	 6.84910303703704E-0002	
 9.06500000000000E+0002	 6.91236590946502E-0002	
 9.08500000000000E+0002	 6.98957878189300E-0002	
 9.10500000000000E+0002	 7.08199165432099E-0002	
 9.12500000000000E+0002	 7.16175452674897E-0002	
 9.14500000000000E+0002	 7.22356739917695E-0002	
 9.16500000000000E+0002	 7.25068027160494E-0002	
 9.18500000000000E+0002	 7.24954314403292E-0002	
 9.20500000000000E+0002	 7.21460601646091E-0002	
 9.22500000000000E+0002	 7.16456888888889E-0002	
 9.24500000000000E+0002	 7.10183176131687E-0002	
 9.26500000000000E+0002	 7.04089463374486E-0002	
 9.28500000000000E+0002	 6.97975750617284E-0002	
 9.30500000000000E+0002	 6.93052037860082E-0002	
 9.32500000000000E+0002	 6.88838325102881E-0002	
 9.34500000000000E+0002	 6.85794612345679E-0002	
 9.36500000000000E+0002	 6.83080899588477E-0002	
 9.38500000000000E+0002	 6.81327186831276E-0002	
 9.40500000000000E+0002	 6.79868474074074E-0002	
 9.42500000000000E+0002	 6.79529761316872E-0002	
 9.44500000000000E+0002	 6.79826048559671E-0002	
 9.46500000000000E+0002	 6.81412335802469E-0002	
 9.48500000000000E+0002	 6.83573623045267E-0002	
 9.50500000000000E+0002	 6.87084910288066E-0002	
 9.52500000000000E+0002	 6.91461197530864E-0002	
 9.54500000000000E+0002	 6.97382484773663E-0002	
 9.56500000000000E+0002	 7.04553772016461E-0002	
 9.58500000000000E+0002	 7.13535059259259E-0002	
 9.60500000000000E+0002	 7.23121346502058E-0002	
 9.62500000000000E+0002	 7.33212633744856E-0002	
 9.64500000000000E+0002	 7.42788920987654E-0002	
 9.66500000000000E+0002	 7.52255208230453E-0002	
 9.68500000000000E+0002	 7.60806495473251E-0002	
 9.70500000000000E+0002	 7.68827782716049E-0002	
 9.72500000000000E+0002	 7.76344069958848E-0002	
 9.74500000000000E+0002	 7.85045357201646E-0002	
 9.76500000000000E+0002	 7.95986644444444E-0002	
 9.78500000000000E+0002	 8.11327931687243E-0002	
 9.80500000000000E+0002	 8.31419218930041E-0002	
 9.82500000000000E+0002	 8.56490506172840E-0002	
 9.84500000000000E+0002	 8.84431793415638E-0002	
 9.86500000000000E+0002	 9.12953080658436E-0002	
 9.88500000000000E+0002	 9.38859367901235E-0002	
 9.90500000000000E+0002	 9.60825655144033E-0002	
 9.92500000000000E+0002	 9.78456942386831E-0002	
 9.94500000000000E+0002	 9.93848229629630E-0002	
 9.96500000000000E+0002	 1.00894451687243E-0001	
 9.98500000000000E+0002	 1.02649080411523E-0001	
 1.00050000000000E+0003	 1.04741209135802E-0001	
 1.00250000000000E+0003	 1.07188837860082E-0001	
 1.00450000000000E+0003	 1.09821966584362E-0001	
 1.00650000000000E+0003	 1.12525595308642E-0001	
 1.00850000000000E+0003	 1.15163724032922E-0001	
 1.01050000000000E+0003	 1.17723352757202E-0001	
 1.01250000000000E+0003	 1.20187981481481E-0001	
 1.01450000000000E+0003	 1.22582610205761E-0001	
 1.01650000000000E+0003	 1.24801238930041E-0001	
 1.01850000000000E+0003	 1.26751867654321E-0001	
 1.02050000000000E+0003	 1.28302496378601E-0001	
 1.02250000000000E+0003	 1.29498125102881E-0001	
 1.02450000000000E+0003	 1.30393253827160E-0001	
 1.02650000000000E+0003	 1.31165882551440E-0001	
 1.02850000000000E+0003	 1.31908011275720E-0001	
 1.03050000000000E+0003	 1.32696640000000E-0001	
 1.03250000000000E+0003	 1.33465768724280E-0001	
 1.03450000000000E+0003	 1.34205897448560E-0001	
 1.03650000000000E+0003	 1.34878526172840E-0001	
 1.03850000000000E+0003	 1.35482154897119E-0001	
 1.04050000000000E+0003	 1.35985783621399E-0001	
 1.04250000000000E+0003	 1.36521912345679E-0001	
 1.04450000000000E+0003	 1.37159541069959E-0001	
 1.04650000000000E+0003	 1.38012169794239E-0001	
 1.04850000000000E+0003	 1.39067298518519E-0001	
 1.05050000000000E+0003	 1.40178427242798E-0001	
 1.05250000000000E+0003	 1.41009555967078E-0001	
 1.05450000000000E+0003	 1.41405684691358E-0001	
 1.05650000000000E+0003	 1.41300813415638E-0001	
 1.05850000000000E+0003	 1.40820942139918E-0001	
 1.06050000000000E+0003	 1.40104570864198E-0001	
 1.06250000000000E+0003	 1.39435699588477E-0001	
 1.06450000000000E+0003	 1.39099828312757E-0001	
 1.06650000000000E+0003	 1.39365957037037E-0001	
 1.06850000000000E+0003	 1.40237585761317E-0001	
 1.07050000000000E+0003	 1.41620214485597E-0001	
 1.07250000000000E+0003	 1.43227843209877E-0001	
 1.07450000000000E+0003	 1.44793971934156E-0001	
 1.07650000000000E+0003	 1.46074100658436E-0001	
 1.07850000000000E+0003	 1.46933229382716E-0001	
 1.08050000000000E+0003	 1.47279858106996E-0001	
 1.08250000000000E+0003	 1.47061486831276E-0001	
 1.08450000000000E+0003	 1.46191615555556E-0001	
 1.08650000000000E+0003	 1.44630244279835E-0001	
 1.08850000000000E+0003	 1.42402873004115E-0001	
 1.09050000000000E+0003	 1.39770001728395E-0001	
 1.09250000000000E+0003	 1.37212630452675E-0001	
 1.09450000000000E+0003	 1.35085759176955E-0001	
 1.09650000000000E+0003	 1.33494887901235E-0001	
 1.09850000000000E+0003	 1.32304516625514E-0001	
 1.10050000000000E+0003	 1.31279645349794E-0001	
 1.10250000000000E+0003	 1.30195274074074E-0001	
 1.10450000000000E+0003	 1.28988902798354E-0001	
 1.10650000000000E+0003	 1.27681031522634E-0001	
 1.10850000000000E+0003	 1.26390160246914E-0001	
 1.11050000000000E+0003	 1.25201788971193E-0001	
 1.11250000000000E+0003	 1.24156417695473E-0001	
 1.11450000000000E+0003	 1.23196046419753E-0001	
 1.11650000000000E+0003	 1.22251175144033E-0001	
 1.11850000000000E+0003	 1.21233303868313E-0001	
 1.12050000000000E+0003	 1.20104932592593E-0001	
 1.12250000000000E+0003	 1.18829561316872E-0001	
 1.12450000000000E+0003	 1.17462190041152E-0001	
 1.12650000000000E+0003	 1.16037318765432E-0001	
 1.12850000000000E+0003	 1.14610947489712E-0001	
 1.13050000000000E+0003	 1.13165576213992E-0001	
 1.13250000000000E+0003	 1.11777204938272E-0001	
 1.13450000000000E+0003	 1.10510833662551E-0001	
 1.13650000000000E+0003	 1.09418462386831E-0001	
 1.13850000000000E+0003	 1.08525091111111E-0001	
 1.14050000000000E+0003	 1.07902719835391E-0001	
 1.14250000000000E+0003	 1.07556848559671E-0001	
 1.14450000000000E+0003	 1.07462977283951E-0001	
 1.14650000000000E+0003	 1.07471106008230E-0001	
 1.14850000000000E+0003	 1.07424734732510E-0001	
 1.15050000000000E+0003	 1.07114363456790E-0001	
 1.15250000000000E+0003	 1.06425992181070E-0001	
 1.15450000000000E+0003	 1.05331620905350E-0001	
 1.15650000000000E+0003	 1.03965749629630E-0001	
 1.15850000000000E+0003	 1.02434878353909E-0001	
 1.16050000000000E+0003	 1.00844507078189E-0001	
 1.16250000000000E+0003	 9.91876358024691E-0002	
 1.16450000000000E+0003	 9.74747645267490E-0002	
 1.16650000000000E+0003	 9.56888932510288E-0002	
 1.16850000000000E+0003	 9.39185219753086E-0002	
 1.17050000000000E+0003	 9.22016506995885E-0002	
 1.17250000000000E+0003	 9.05827794238683E-0002	
 1.17450000000000E+0003	 8.90409081481481E-0002	
 1.17650000000000E+0003	 8.76080368724280E-0002	
 1.17850000000000E+0003	 8.63121655967078E-0002	
 1.18050000000000E+0003	 8.52512943209877E-0002	
 1.18250000000000E+0003	 8.44279230452675E-0002	
 1.18450000000000E+0003	 8.38860517695473E-0002	
 1.18650000000000E+0003	 8.36371804938272E-0002	
 1.18850000000000E+0003	 8.37088092181070E-0002	
 1.19050000000000E+0003	 8.40549379423868E-0002	
 1.19250000000000E+0003	 8.46770666666667E-0002	
 1.19450000000000E+0003	 8.55326953909465E-0002	
 1.19650000000000E+0003	 8.66028241152263E-0002	
 1.19850000000000E+0003	 8.78019528395062E-0002	
 1.20050000000000E+0003	 8.90775815637860E-0002	
 1.20250000000000E+0003	 9.03212102880658E-0002	
 1.20450000000000E+0003	 9.15063390123457E-0002	
 1.20650000000000E+0003	 9.25704677366255E-0002	
 1.20850000000000E+0003	 9.35495964609053E-0002	
 1.21050000000000E+0003	 9.44762251851852E-0002	
 1.21250000000000E+0003	 9.54858539094650E-0002	
 1.21450000000000E+0003	 9.66279826337449E-0002	
 1.21650000000000E+0003	 9.78296113580247E-0002	
 1.21850000000000E+0003	 9.87857400823045E-0002	
 1.22050000000000E+0003	 9.95193688065844E-0002	
 1.22250000000000E+0003	 1.00246497530864E-0001	
 1.22450000000000E+0003	 1.01068126255144E-0001	
 1.22650000000000E+0003	 1.01848254979424E-0001	
 1.22850000000000E+0003	 1.02577883703704E-0001	
 1.23050000000000E+0003	 1.03156012427984E-0001	
 1.23250000000000E+0003	 1.03588141152263E-0001	
 1.23450000000000E+0003	 1.03821269876543E-0001	
 1.23650000000000E+0003	 1.03924398600823E-0001	
 1.23850000000000E+0003	 1.03882027325103E-0001	
 1.24050000000000E+0003	 1.03760656049383E-0001	
 1.24250000000000E+0003	 1.03515784773663E-0001	
 1.24450000000000E+0003	 1.03198413497942E-0001	
 1.24650000000000E+0003	 1.02772542222222E-0001	
 1.24850000000000E+0003	 1.02285670946502E-0001	
 1.25050000000000E+0003	 1.01695799670782E-0001	
 1.25250000000000E+0003	 1.01053428395062E-0001	
 1.25450000000000E+0003	 1.00335557119342E-0001	
 1.25650000000000E+0003	 9.96011858436214E-0002	
 1.25850000000000E+0003	 9.88188145679012E-0002	
 1.26050000000000E+0003	 9.80384432921811E-0002	
 1.26250000000000E+0003	 9.72420720164609E-0002	
 1.26450000000000E+0003	 9.64487007407407E-0002	
 1.26650000000000E+0003	 9.56483294650206E-0002	
 1.26850000000000E+0003	 9.49104581893004E-0002	
 1.27050000000000E+0003	 9.42295869135802E-0002	
 1.27250000000000E+0003	 9.36422156378601E-0002	
 1.27450000000000E+0003	 9.31008443621399E-0002	
 1.27650000000000E+0003	 9.26274730864198E-0002	
 1.27850000000000E+0003	 9.21946018106996E-0002	
 1.28050000000000E+0003	 9.18307305349794E-0002	
 1.28250000000000E+0003	 9.14803592592593E-0002	
 1.28450000000000E+0003	 9.11534879835391E-0002	
 1.28650000000000E+0003	 9.08216167078189E-0002	
 1.28850000000000E+0003	 9.05662454320988E-0002	
 1.29050000000000E+0003	 9.03983741563786E-0002	
 1.29250000000000E+0003	 9.03245028806584E-0002	
 1.29450000000000E+0003	 9.02831316049383E-0002	
 1.29650000000000E+0003	 9.03277603292181E-0002	
 1.29850000000000E+0003	 9.04448890534979E-0002	
 1.30050000000000E+0003	 9.06355177777778E-0002	
 1.30250000000000E+0003	 9.08251465020576E-0002	
 1.30450000000000E+0003	 9.10137752263374E-0002	
 1.30650000000000E+0003	 9.11394039506173E-0002	
 1.30850000000000E+0003	 9.12605326748971E-0002	
 1.31050000000000E+0003	 9.13401613991770E-0002	
 1.31250000000000E+0003	 9.13887901234568E-0002	
 1.31450000000000E+0003	 9.13839188477366E-0002	
 1.31650000000000E+0003	 9.13205475720165E-0002	
 1.31850000000000E+0003	 9.11636762962963E-0002	
 1.32050000000000E+0003	 9.10328050205761E-0002	
 1.32250000000000E+0003	 9.08779337448560E-0002	
 1.32450000000000E+0003	 9.07595624691358E-0002	
 1.32650000000000E+0003	 9.06761911934156E-0002	
 1.32850000000000E+0003	 9.06933199176955E-0002	
 1.33050000000000E+0003	 9.07689486419753E-0002	
 1.33250000000000E+0003	 9.09335773662551E-0002	
 1.33450000000000E+0003	 9.10582060905350E-0002	
 1.33650000000000E+0003	 9.11338348148148E-0002	
 1.33850000000000E+0003	 9.11624635390947E-0002	
 1.34050000000000E+0003	 9.13545922633745E-0002	
 1.34250000000000E+0003	 9.16032209876543E-0002	
 1.34450000000000E+0003	 9.17138497119342E-0002	
 1.34650000000000E+0003	 9.16834784362140E-0002	
 1.34850000000000E+0003	 9.16826071604938E-0002	
 1.35050000000000E+0003	 9.17037358847737E-0002	
 1.35250000000000E+0003	 9.17908646090535E-0002	
 1.35450000000000E+0003	 9.18949933333333E-0002	
 1.35650000000000E+0003	 9.20636220576132E-0002	
 1.35850000000000E+0003	 9.22322507818930E-0002	
 1.36050000000000E+0003	 9.24268795061728E-0002	
 1.36250000000000E+0003	 9.27730082304527E-0002	
 1.36450000000000E+0003	 9.35176369547325E-0002	
 1.36650000000000E+0003	 9.43137656790123E-0002	
 1.36850000000000E+0003	 9.50123944032922E-0002	
 1.37050000000000E+0003	 9.55475231275720E-0002	
 1.37250000000000E+0003	 9.59801518518519E-0002	
 1.37450000000000E+0003	 9.64047805761317E-0002	
 1.37650000000000E+0003	 9.68744093004115E-0002	
 1.37850000000000E+0003	 9.72145380246914E-0002	
 1.38050000000000E+0003	 9.75341667489712E-0002	
 1.38250000000000E+0003	 9.78727954732510E-0002	
 1.38450000000000E+0003	 9.80759241975309E-0002	
 1.38650000000000E+0003	 9.80475529218107E-0002	
 1.38850000000000E+0003	 9.81926816460905E-0002	
 1.39050000000000E+0003	 9.84793103703704E-0002	
 1.39250000000000E+0003	 9.88664390946502E-0002	
 1.39450000000000E+0003	 9.93250678189300E-0002	
 1.39650000000000E+0003	 9.98101965432099E-0002	
 1.39850000000000E+0003	 1.00449325267490E-0001	
 1.40050000000000E+0003	 1.01234953991770E-0001	
 1.40250000000000E+0003	 1.01771082716049E-0001	
 1.40450000000000E+0003	 1.02007711440329E-0001	
 1.40650000000000E+0003	 1.02207840164609E-0001	
 1.40850000000000E+0003	 1.02235468888889E-0001	
 1.41050000000000E+0003	 1.02085597613169E-0001	
 1.41250000000000E+0003	 1.01830726337449E-0001	
 1.41450000000000E+0003	 1.01426855061728E-0001	
 1.41650000000000E+0003	 1.00642983786008E-0001	
 1.41850000000000E+0003	 9.99946125102881E-0002	
 1.42050000000000E+0003	 9.94642412345679E-0002	
 1.42250000000000E+0003	 9.90003699588477E-0002	
 1.42450000000000E+0003	 9.83574986831276E-0002	
 1.42650000000000E+0003	 9.76966274074074E-0002	
 1.42850000000000E+0003	 9.69667561316872E-0002	
 1.43050000000000E+0003	 9.64278848559671E-0002	
 1.43250000000000E+0003	 9.60440135802469E-0002	
 1.43450000000000E+0003	 9.57541423045267E-0002	
 1.43650000000000E+0003	 9.56227710288066E-0002	
 1.43850000000000E+0003	 9.63093997530864E-0002	
 1.44050000000000E+0003	 9.70835284773663E-0002	
 1.44250000000000E+0003	 9.76306572016461E-0002	
 1.44450000000000E+0003	 9.79207859259259E-0002	
 1.44650000000000E+0003	 9.82019146502058E-0002	
 1.44850000000000E+0003	 9.84255433744856E-0002	
 1.45050000000000E+0003	 9.88146720987654E-0002	
 1.45250000000000E+0003	 9.89533008230453E-0002	
 1.45450000000000E+0003	 9.85394295473251E-0002	
 1.45650000000000E+0003	 9.78685582716049E-0002	
 1.45850000000000E+0003	 9.75466869958848E-0002	
 1.46050000000000E+0003	 9.70513157201646E-0002	
 1.46250000000000E+0003	 9.64294444444444E-0002	
 1.46450000000000E+0003	 9.54670731687243E-0002	
 1.46650000000000E+0003	 9.45607018930041E-0002	
 1.46850000000000E+0003	 9.34838306172840E-0002	
 1.47050000000000E+0003	 9.19729593415638E-0002	
 1.47250000000000E+0003	 9.00380880658436E-0002	
 1.47450000000000E+0003	 8.83252167901235E-0002	
 1.47650000000000E+0003	 8.71918455144033E-0002	
 1.47850000000000E+0003	 8.65414742386831E-0002	
 1.48050000000000E+0003	 8.60616029629630E-0002	
 1.48250000000000E+0003	 8.57282316872428E-0002	
 1.48450000000000E+0003	 8.55103604115226E-0002	
 1.48650000000000E+0003	 8.54094891358025E-0002	
 1.48850000000000E+0003	 8.53481178600823E-0002	
 1.49050000000000E+0003	 8.57112465843621E-0002	
 1.49250000000000E+0003	 8.66368753086420E-0002	
 1.49450000000000E+0003	 8.78000040329218E-0002	
 1.49650000000000E+0003	 8.88051327572016E-0002	
 1.49850000000000E+0003	 9.00267614814815E-0002	
 1.50050000000000E+0003	 9.10848902057613E-0002	
 1.50250000000000E+0003	 9.21775189300412E-0002	
 1.50450000000000E+0003	 9.28506476543210E-0002	
 1.50650000000000E+0003	 9.43467763786008E-0002	
 1.50850000000000E+0003	 9.64094051028807E-0002	
 1.51050000000000E+0003	 9.90455338271605E-0002	
 1.51250000000000E+0003	 1.01692162551440E-0001	
 1.51450000000000E+0003	 1.04078791275720E-0001	
 1.51650000000000E+0003	 1.06253920000000E-0001	
 1.51850000000000E+0003	 1.08147048724280E-0001	
 1.52050000000000E+0003	 1.09744177448560E-0001	
 1.52250000000000E+0003	 1.11664306172840E-0001	
 1.52450000000000E+0003	 1.13452934897119E-0001	
 1.52650000000000E+0003	 1.15671563621399E-0001	
 1.52850000000000E+0003	 1.17898692345679E-0001	
 1.53050000000000E+0003	 1.19910321069959E-0001	
 1.53250000000000E+0003	 1.21856949794239E-0001	
 1.53450000000000E+0003	 1.24117578518519E-0001	
 1.53650000000000E+0003	 1.25792207242798E-0001	
 1.53850000000000E+0003	 1.27307835967078E-0001	
 1.54050000000000E+0003	 1.29625464691358E-0001	
 1.54250000000000E+0003	 1.30962093415638E-0001	
 1.54450000000000E+0003	 1.32054722139918E-0001	
 1.54650000000000E+0003	 1.32843350864198E-0001	
 1.54850000000000E+0003	 1.33045479588477E-0001	
 1.55050000000000E+0003	 1.32549108312757E-0001	
 1.55250000000000E+0003	 1.31507737037037E-0001	
 1.55450000000000E+0003	 1.29859865761317E-0001	
 1.55650000000000E+0003	 1.27523994485597E-0001	
 1.55850000000000E+0003	 1.25049623209877E-0001	
 1.56050000000000E+0003	 1.22638251934156E-0001	
 1.56250000000000E+0003	 1.21248380658436E-0001	
 1.56450000000000E+0003	 1.20043009382716E-0001	
 1.56650000000000E+0003	 1.18239638106996E-0001	
 1.56850000000000E+0003	 1.16769766831276E-0001	
 1.57050000000000E+0003	 1.15368895555556E-0001	
 1.57250000000000E+0003	 1.14092524279835E-0001	
 1.57450000000000E+0003	 1.12920153004115E-0001	
 1.57650000000000E+0003	 1.11810281728395E-0001	
 1.57850000000000E+0003	 1.10629910452675E-0001	
 1.58050000000000E+0003	 1.10010039176955E-0001	
 1.58250000000000E+0003	 1.09262667901235E-0001	
 1.58450000000000E+0003	 1.08837796625514E-0001	
 1.58650000000000E+0003	 1.08617925349794E-0001	
 1.58850000000000E+0003	 1.08806054074074E-0001	
 1.59050000000000E+0003	 1.09238182798354E-0001	
 1.59250000000000E+0003	 1.10108811522634E-0001	
 1.59450000000000E+0003	 1.11189440246914E-0001	
 1.59650000000000E+0003	 1.12596568971193E-0001	
 1.59850000000000E+0003	 1.14091697695473E-0001	
 1.60050000000000E+0003	 1.15904826419753E-0001	
 1.60250000000000E+0003	 1.17881455144033E-0001	
 1.60450000000000E+0003	 1.20190083868313E-0001	
 1.60650000000000E+0003	 1.22649212592593E-0001	
 1.60850000000000E+0003	 1.25526841316872E-0001	
 1.61050000000000E+0003	 1.28666470041152E-0001	
 1.61250000000000E+0003	 1.32144098765432E-0001	
 1.61450000000000E+0003	 1.35468727489712E-0001	
 1.61650000000000E+0003	 1.39673856213992E-0001	
 1.61850000000000E+0003	 1.44073484938272E-0001	
 1.62050000000000E+0003	 1.48144113662551E-0001	
 1.62250000000000E+0003	 1.52588742386831E-0001	
 1.62450000000000E+0003	 1.57560871111111E-0001	
 1.62650000000000E+0003	 1.62218999835391E-0001	
 1.62850000000000E+0003	 1.67051628559671E-0001	
 1.63050000000000E+0003	 1.71661257283951E-0001	
 1.63250000000000E+0003	 1.75485386008230E-0001	
 1.63450000000000E+0003	 1.78928514732510E-0001	
 1.63650000000000E+0003	 1.82814143456790E-0001	
 1.63850000000000E+0003	 1.85676272181070E-0001	
 1.64050000000000E+0003	 1.87768400905350E-0001	
 1.64250000000000E+0003	 1.89212529629630E-0001	
 1.64450000000000E+0003	 1.90076158353909E-0001	
 1.64650000000000E+0003	 1.91336787078189E-0001	
 1.64850000000000E+0003	 1.92562415802469E-0001	
 1.65050000000000E+0003	 1.93122544526749E-0001	
 1.65250000000000E+0003	 1.93795173251029E-0001	
 1.65450000000000E+0003	 1.94554301975309E-0001	
 1.65650000000000E+0003	 1.94556430699588E-0001	
 1.65850000000000E+0003	 1.93904059423868E-0001	
 1.66050000000000E+0003	 1.92140688148148E-0001	
 1.66250000000000E+0003	 1.89805816872428E-0001	
 1.66450000000000E+0003	 1.86898445596708E-0001	
 1.66650000000000E+0003	 1.83860074320988E-0001	
 1.66850000000000E+0003	 1.80713703045267E-0001	
 1.67050000000000E+0003	 1.77445331769547E-0001	
 1.67250000000000E+0003	 1.74352460493827E-0001	
 1.67450000000000E+0003	 1.71442589218107E-0001	
 1.67650000000000E+0003	 1.68373717942387E-0001	
 1.67850000000000E+0003	 1.65715346666667E-0001	
 1.68050000000000E+0003	 1.62967475390947E-0001	
 1.68250000000000E+0003	 1.60019104115226E-0001	
 1.68450000000000E+0003	 1.57015232839506E-0001	
 1.68650000000000E+0003	 1.53772361563786E-0001	
 1.68850000000000E+0003	 1.51381990288066E-0001	
 1.69050000000000E+0003	 1.48732619012346E-0001	
 1.69250000000000E+0003	 1.45562747736626E-0001	
 1.69450000000000E+0003	 1.42322376460905E-0001	
 1.69650000000000E+0003	 1.38666505185185E-0001	
 1.69850000000000E+0003	 1.35589133909465E-0001	
 1.70050000000000E+0003	 1.32662262633745E-0001	
 1.70250000000000E+0003	 1.30578891358025E-0001	
 1.70450000000000E+0003	 1.29421520082305E-0001	
 1.70650000000000E+0003	 1.27693648806584E-0001	
 1.70850000000000E+0003	 1.25766277530864E-0001	
 1.71050000000000E+0003	 1.24120906255144E-0001	
 1.71250000000000E+0003	 1.22146034979424E-0001	
 1.71450000000000E+0003	 1.20110663703704E-0001	
 1.71650000000000E+0003	 1.17909292427984E-0001	
 1.71850000000000E+0003	 1.15559921152263E-0001	
 1.72050000000000E+0003	 1.13402549876543E-0001	
 1.72250000000000E+0003	 1.11673178600823E-0001	
 1.72450000000000E+0003	 1.09670807325103E-0001	
 1.72650000000000E+0003	 1.07687936049383E-0001	
 1.72850000000000E+0003	 1.05723064773663E-0001	
 1.73050000000000E+0003	 1.03820193497942E-0001	
 1.73250000000000E+0003	 1.02066822222222E-0001	
 1.73450000000000E+0003	 1.00920450946502E-0001	
 1.73650000000000E+0003	 1.00175079670782E-0001	
 1.73850000000000E+0003	 9.99022083950617E-0002	
 1.74050000000000E+0003	 9.91398371193416E-0002	
 1.74250000000000E+0003	 9.81684658436214E-0002	
 1.74450000000000E+0003	 9.71770945679012E-0002	
 1.74650000000000E+0003	 9.61002232921811E-0002	
 1.74850000000000E+0003	 9.47493520164609E-0002	
 1.75050000000000E+0003	 9.32469807407407E-0002	
 1.75250000000000E+0003	 9.19766094650206E-0002	
 1.75450000000000E+0003	 9.11702381893004E-0002	
 1.75650000000000E+0003	 9.01183669135802E-0002	
 1.75850000000000E+0003	 8.89199956378601E-0002	
 1.76050000000000E+0003	 8.78091243621399E-0002	
 1.76250000000000E+0003	 8.68222530864198E-0002	
 1.76450000000000E+0003	 8.55858818106996E-0002	
 1.76650000000000E+0003	 8.45590105349794E-0002	
 1.76850000000000E+0003	 8.34696392592593E-0002	
 1.77050000000000E+0003	 8.28302679835391E-0002	
 1.77250000000000E+0003	 8.23213967078189E-0002	
 1.77450000000000E+0003	 8.15490254320988E-0002	
 1.77650000000000E+0003	 8.09781541563786E-0002	
 1.77850000000000E+0003	 8.05182828806584E-0002	
 1.78050000000000E+0003	 7.99954116049383E-0002	
 1.78250000000000E+0003	 7.95100403292181E-0002	
 1.78450000000000E+0003	 7.89526690534979E-0002	
 1.78650000000000E+0003	 7.85727977777778E-0002	
 1.78850000000000E+0003	 7.80794265020576E-0002	
 1.79050000000000E+0003	 7.76030552263374E-0002	
 1.79250000000000E+0003	 7.71736839506173E-0002	
 1.79450000000000E+0003	 7.68453126748971E-0002	
 1.79650000000000E+0003	 7.65604413991770E-0002	
 1.79850000000000E+0003	 7.62880701234568E-0002	
 1.80050000000000E+0003	 7.58611988477366E-0002	
 1.80250000000000E+0003	 7.56278275720165E-0002	
 1.80450000000000E+0003	 7.54024562962963E-0002	
 1.80650000000000E+0003	 7.51975850205761E-0002	
 1.80850000000000E+0003	 7.48327137448560E-0002	
 1.81050000000000E+0003	 7.45993424691358E-0002	
 1.81250000000000E+0003	 7.43069711934156E-0002	
 1.81450000000000E+0003	 7.41350999176955E-0002	
 1.81650000000000E+0003	 7.38357286419753E-0002	
 1.81850000000000E+0003	 7.36408573662551E-0002	
 1.82050000000000E+0003	 7.33814860905350E-0002	
 1.82250000000000E+0003	 7.30951148148148E-0002	
 1.82450000000000E+0003	 7.27502435390947E-0002	
 1.82650000000000E+0003	 7.25263722633745E-0002	
 1.82850000000000E+0003	 7.24395009876543E-0002	
 1.83050000000000E+0003	 7.23896297119342E-0002	
 1.83250000000000E+0003	 7.20497584362140E-0002	
 1.83450000000000E+0003	 7.19433871604938E-0002	
 1.83650000000000E+0003	 7.18140158847737E-0002	
 1.83850000000000E+0003	 7.16441446090535E-0002	
 1.84050000000000E+0003	 7.13182733333333E-0002	
 1.84250000000000E+0003	 7.09684020576132E-0002	
 1.84450000000000E+0003	 7.07340307818930E-0002	
 1.84650000000000E+0003	 7.06376595061728E-0002	
 1.84850000000000E+0003	 7.07432882304527E-0002	
 1.85050000000000E+0003	 7.07754169547325E-0002	
 1.85250000000000E+0003	 7.06955456790123E-0002	
 1.85450000000000E+0003	 7.06041744032922E-0002	
 1.85650000000000E+0003	 7.04553031275720E-0002	
 1.85850000000000E+0003	 7.03404318518519E-0002	
 1.86050000000000E+0003	 7.01840605761317E-0002	
 1.86250000000000E+0003	 7.00756893004115E-0002	
 1.86450000000000E+0003	 6.99098180246914E-0002	
 1.86650000000000E+0003	 6.97604467489712E-0002	
 1.86850000000000E+0003	 6.96425754732510E-0002	
 1.87050000000000E+0003	 6.95087041975309E-0002	
 1.87250000000000E+0003	 6.94663329218107E-0002	
 1.87450000000000E+0003	 6.95434616460905E-0002	
 1.87650000000000E+0003	 6.94810903703704E-0002	
 1.87850000000000E+0003	 6.94232190946502E-0002	
 1.88050000000000E+0003	 6.93353478189300E-0002	
 1.88250000000000E+0003	 6.92764765432099E-0002	
 1.88450000000000E+0003	 6.91931052674897E-0002	
 1.88650000000000E+0003	 6.90867339917695E-0002	
 1.88850000000000E+0003	 6.90128627160494E-0002	
 1.89050000000000E+0003	 6.89649914403292E-0002	
 1.89250000000000E+0003	 6.88521201646091E-0002	
 1.89450000000000E+0003	 6.88602488888889E-0002	
 1.89650000000000E+0003	 6.88188776131687E-0002	
 1.89850000000000E+0003	 6.87770063374486E-0002	
 1.90050000000000E+0003	 6.87376350617284E-0002	
 1.90250000000000E+0003	 6.87007637860082E-0002	
 1.90450000000000E+0003	 6.86478925102881E-0002	
 1.90650000000000E+0003	 6.85875212345679E-0002	
 1.90850000000000E+0003	 6.85416499588477E-0002	
 1.91050000000000E+0003	 6.85067786831276E-0002	
 1.91250000000000E+0003	 6.84479074074074E-0002	
 1.91450000000000E+0003	 6.83525361316872E-0002	
 1.91650000000000E+0003	 6.82326648559671E-0002	
 1.91850000000000E+0003	 6.81842935802469E-0002	
 1.92050000000000E+0003	 6.81514223045267E-0002	
 1.92250000000000E+0003	 6.82590510288066E-0002	
 1.92450000000000E+0003	 6.82871797530864E-0002	
 1.92650000000000E+0003	 6.82823084773663E-0002	
 1.92850000000000E+0003	 6.82944372016461E-0002	
 1.93050000000000E+0003	 6.82885659259259E-0002	
 1.93250000000000E+0003	 6.82716946502058E-0002	
 1.93450000000000E+0003	 6.82598233744856E-0002	
 1.93650000000000E+0003	 6.82374520987654E-0002	
 1.93850000000000E+0003	 6.81985808230453E-0002	
 1.94050000000000E+0003	 6.81127095473251E-0002	
 1.94250000000000E+0003	 6.81143382716049E-0002	
 1.94450000000000E+0003	 6.81184669958848E-0002	
 1.94650000000000E+0003	 6.81705957201646E-0002	
 1.94850000000000E+0003	 6.81927244444444E-0002	
 1.95050000000000E+0003	 6.82038531687243E-0002	
 1.95250000000000E+0003	 6.82004818930041E-0002	
 1.95450000000000E+0003	 6.82051106172840E-0002	
 1.95650000000000E+0003	 6.82007393415638E-0002	
 1.95850000000000E+0003	 6.82228680658436E-0002	
 1.96050000000000E+0003	 6.82209967901235E-0002	
 1.96250000000000E+0003	 6.82166255144033E-0002	
 1.96450000000000E+0003	 6.81772542386831E-0002	
 1.96650000000000E+0003	 6.81933829629630E-0002	
 1.96850000000000E+0003	 6.81990116872428E-0002	
 1.97050000000000E+0003	 6.82251404115226E-0002	
 1.97250000000000E+0003	 6.82472691358025E-0002	
 1.97450000000000E+0003	 6.82733978600823E-0002	
 1.97650000000000E+0003	 6.82740265843621E-0002	
 1.97850000000000E+0003	 6.82921553086420E-0002	
 1.98050000000000E+0003	 6.82882840329218E-0002	
 1.98250000000000E+0003	 6.83154127572016E-0002	
 1.98450000000000E+0003	 6.83010414814815E-0002	
 1.98650000000000E+0003	 6.83091702057613E-0002	
 1.98850000000000E+0003	 6.82762989300412E-0002	
 1.99050000000000E+0003	 6.82779276543210E-0002	
 1.99250000000000E+0003	 6.82955563786008E-0002	
 1.99450000000000E+0003	 6.83421851028807E-0002	
 1.99650000000000E+0003	 6.83838138271605E-0002	
 1.99850000000000E+0003	 6.84399425514403E-0002	
 2.00050000000000E+0003	 6.84490712757202E-0002	
 2.00250000000000E+0003	 6.84867000000000E-0002	
 2.00450000000000E+0003	 6.84948287242798E-0002	
 2.00650000000000E+0003	 6.85294574485597E-0002	
 2.00850000000000E+0003	 6.85445861728395E-0002	
 2.01050000000000E+0003	 6.85882148971193E-0002	
 2.01250000000000E+0003	 6.85973436213992E-0002	
 2.01450000000000E+0003	 6.86139723456790E-0002	
 2.01650000000000E+0003	 6.86261010699588E-0002	
 2.01850000000000E+0003	 6.86782297942387E-0002	
 2.02050000000000E+0003	 6.87118585185185E-0002	
 2.02250000000000E+0003	 6.87719872427984E-0002	
 2.02450000000000E+0003	 6.88056159670782E-0002	
 2.02650000000000E+0003	 6.88567446913580E-0002	
 2.02850000000000E+0003	 6.88843734156379E-0002	
 2.03050000000000E+0003	 6.89300021399177E-0002	
 2.03250000000000E+0003	 6.89536308641975E-0002	
 2.03450000000000E+0003	 6.89967595884774E-0002	
 2.03650000000000E+0003	 6.90183883127572E-0002	
 2.03850000000000E+0003	 6.90465170370370E-0002	
 2.04050000000000E+0003	 6.90571457613169E-0002	
 2.04250000000000E+0003	 6.90977744855967E-0002	
 2.04450000000000E+0003	 6.91219032098765E-0002	
 2.04650000000000E+0003	 6.91650319341564E-0002	
 2.04850000000000E+0003	 6.91851606584362E-0002	
 2.05050000000000E+0003	 6.92212893827160E-0002	
 2.05250000000000E+0003	 6.92319181069959E-0002	
 2.05450000000000E+0003	 6.92620468312757E-0002	
 2.05650000000000E+0003	 6.92686755555556E-0002	
 2.05850000000000E+0003	 6.92913042798354E-0002	
 2.06050000000000E+0003	 6.92959330041152E-0002	
 2.06250000000000E+0003	 6.93080617283951E-0002	
 2.06450000000000E+0003	 6.93131904526749E-0002	
 2.06650000000000E+0003	 6.93418191769547E-0002	
 2.06850000000000E+0003	 6.93559479012346E-0002	
 2.07050000000000E+0003	 6.93885766255144E-0002	
 2.07250000000000E+0003	 6.93977053497942E-0002	
 2.07450000000000E+0003	 6.94183340740741E-0002	
 2.07650000000000E+0003	 6.94174627983539E-0002	
 2.07850000000000E+0003	 6.94330915226337E-0002	
 2.08050000000000E+0003	 6.94372202469136E-0002	
 2.08250000000000E+0003	 6.94513489711934E-0002	
 2.08450000000000E+0003	 6.94499776954733E-0002	
 2.08650000000000E+0003	 6.94571064197531E-0002	
 2.08850000000000E+0003	 6.94517351440329E-0002	
 2.09050000000000E+0003	 6.94613638683128E-0002	
 2.09250000000000E+0003	 6.94604925925926E-0002	
 2.09450000000000E+0003	 6.94726213168724E-0002	
 2.09650000000000E+0003	 6.94692500411523E-0002	
 2.09850000000000E+0003	 6.94768787654321E-0002	
 2.10050000000000E+0003	 6.94695074897119E-0002	
 2.10250000000000E+0003	 6.94726362139918E-0002	
 2.10450000000000E+0003	 6.94642649382716E-0002	
 2.10650000000000E+0003	 6.94698936625514E-0002	
 2.10850000000000E+0003	 6.94620223868313E-0002	
 2.11050000000000E+0003	 6.94611511111111E-0002	
 2.11250000000000E+0003	 6.94437798353909E-0002	
 2.11450000000000E+0003	 6.94379085596708E-0002	
 2.11650000000000E+0003	 6.94235372839506E-0002	
 2.11850000000000E+0003	 6.94251660082305E-0002	
 2.12050000000000E+0003	 6.94142947325103E-0002	
 2.12250000000000E+0003	 6.94109234567901E-0002	
 2.12450000000000E+0003	 6.93950521810700E-0002	
 2.12650000000000E+0003	 6.93911809053498E-0002	
 2.12850000000000E+0003	 6.93728096296296E-0002	
 2.13050000000000E+0003	 6.93644383539095E-0002	
 2.13250000000000E+0003	 6.93440670781893E-0002	
 2.13450000000000E+0003	 6.93371958024691E-0002	
 2.13650000000000E+0003	 6.93188245267490E-0002	
 2.13850000000000E+0003	 6.93144532510288E-0002	
 2.14050000000000E+0003	 6.92980819753086E-0002	
 2.14250000000000E+0003	 6.92917106995885E-0002	
 2.14450000000000E+0003	 6.92668394238683E-0002	
 2.14650000000000E+0003	 6.92544681481481E-0002	
 2.14850000000000E+0003	 6.92300968724280E-0002	
 2.15050000000000E+0003	 6.92222255967078E-0002	
 2.15250000000000E+0003	 6.91953543209877E-0002	
 2.15450000000000E+0003	 6.91804830452675E-0002	
 2.15650000000000E+0003	 6.91496117695473E-0002	
 2.15850000000000E+0003	 6.91337404938272E-0002	
 2.16050000000000E+0003	 6.91008692181070E-0002	
 2.16250000000000E+0003	 6.90824979423868E-0002	
 2.16450000000000E+0003	 6.90481266666667E-0002	
 2.16650000000000E+0003	 6.90287553909465E-0002	
 2.16850000000000E+0003	 6.90013841152263E-0002	
 2.17050000000000E+0003	 6.89810128395062E-0002	
 2.17250000000000E+0003	 6.89331415637860E-0002	
 2.17450000000000E+0003	 6.89037702880658E-0002	
 2.17650000000000E+0003	 6.88663990123457E-0002	
 2.17850000000000E+0003	 6.88420277366255E-0002	
 2.18050000000000E+0003	 6.88046564609053E-0002	
 2.18250000000000E+0003	 6.87807851851852E-0002	
 2.18450000000000E+0003	 6.87449139094650E-0002	
 2.18650000000000E+0003	 6.87220426337449E-0002	
 2.18850000000000E+0003	 6.86901713580247E-0002	
 2.19050000000000E+0003	 6.86673000823045E-0002	
 2.19250000000000E+0003	 6.86314288065844E-0002	
 2.19450000000000E+0003	 6.86070575308642E-0002	
 2.19650000000000E+0003	 6.85741862551440E-0002	
 2.19850000000000E+0003	 6.85518149794239E-0002	
 2.20050000000000E+0003	 6.85204437037037E-0002	
 2.20250000000000E+0003	 6.84980724279835E-0002	
 2.20450000000000E+0003	 6.84662011522634E-0002	
 2.20650000000000E+0003	 6.84458298765432E-0002	
 2.20850000000000E+0003	 6.84164586008230E-0002	
 2.21050000000000E+0003	 6.83940873251029E-0002	
 2.21250000000000E+0003	 6.83627160493827E-0002	
 2.21450000000000E+0003	 6.83433447736626E-0002	
 2.21650000000000E+0003	 6.83154734979424E-0002	
 2.21850000000000E+0003	 6.82981022222222E-0002	
 2.22050000000000E+0003	 6.82707309465021E-0002	
 2.22250000000000E+0003	 6.82533596707819E-0002	
 2.22450000000000E+0003	 6.82209883950617E-0002	
 2.22650000000000E+0003	 6.81996171193416E-0002	
 2.22850000000000E+0003	 6.81697458436214E-0002	
 2.23050000000000E+0003	 6.81498745679012E-0002	
 2.23250000000000E+0003	 6.81175032921811E-0002	
 2.23450000000000E+0003	 6.80946320164609E-0002	
 2.23650000000000E+0003	 6.80592607407407E-0002	
 2.23850000000000E+0003	 6.80433894650206E-0002	
 2.24050000000000E+0003	 6.80135181893004E-0002	
 2.24250000000000E+0003	 6.79941469135802E-0002	
 2.24450000000000E+0003	 6.79637756378601E-0002	
 2.24650000000000E+0003	 6.79509043621399E-0002	
 2.24850000000000E+0003	 6.79225330864198E-0002	
 2.25050000000000E+0003	 6.79106618106996E-0002	
 2.25250000000000E+0003	 6.78862905349794E-0002	
 2.25450000000000E+0003	 6.78739192592593E-0002	
 2.25650000000000E+0003	 6.78490479835391E-0002	
 2.25850000000000E+0003	 6.78391767078189E-0002	
 2.26050000000000E+0003	 6.78163054320988E-0002	
 2.26250000000000E+0003	 6.78084341563786E-0002	
 2.26450000000000E+0003	 6.77890628806584E-0002	
 2.26650000000000E+0003	 6.77821916049383E-0002	
 2.26850000000000E+0003	 6.77603203292181E-0002	
 2.27050000000000E+0003	 6.77469490534979E-0002	
 2.27250000000000E+0003	 6.77190777777778E-0002	
 2.27450000000000E+0003	 6.77002065020576E-0002	
 2.27650000000000E+0003	 6.76693352263374E-0002	
 2.27850000000000E+0003	 6.76434639506173E-0002	
 2.28050000000000E+0003	 6.76005926748971E-0002	
 2.28250000000000E+0003	 6.75697213991770E-0002	
 2.28450000000000E+0003	 6.75398501234568E-0002	
 2.28650000000000E+0003	 6.75219788477366E-0002	
 2.28850000000000E+0003	 6.74906075720165E-0002	
 2.29050000000000E+0003	 6.74622362962963E-0002	
 2.29250000000000E+0003	 6.74118650205761E-0002	
 2.29450000000000E+0003	 6.73709937448560E-0002	
 2.29650000000000E+0003	 6.73256224691358E-0002	
 2.29850000000000E+0003	 6.73022511934156E-0002	
 2.30050000000000E+0003	 6.72863799176955E-0002	
 2.30250000000000E+0003	 6.72925086419753E-0002	
 2.30450000000000E+0003	 6.72676373662551E-0002	
 2.30650000000000E+0003	 6.72502660905350E-0002	
 2.30850000000000E+0003	 6.72433948148148E-0002	
 2.31050000000000E+0003	 6.72880235390947E-0002	
 2.31250000000000E+0003	 6.73681522633745E-0002	
 2.31450000000000E+0003	 6.74757809876543E-0002	
 2.31650000000000E+0003	 6.74849097119342E-0002	
 2.31850000000000E+0003	 6.74585384362140E-0002	
 2.32050000000000E+0003	 6.74346671604938E-0002	
 2.32250000000000E+0003	 6.74802958847737E-0002	
 2.32450000000000E+0003	 6.75384246090535E-0002	
 2.32650000000000E+0003	 6.75860533333333E-0002	
 2.32850000000000E+0003	 6.75321820576132E-0002	
 2.33050000000000E+0003	 6.75238107818930E-0002	
 2.33250000000000E+0003	 6.75634395061728E-0002	
 2.33450000000000E+0003	 6.76620682304527E-0002	
 2.33650000000000E+0003	 6.76811969547325E-0002	
 2.33850000000000E+0003	 6.76843256790123E-0002	
 2.34050000000000E+0003	 6.76344544032922E-0002	
 2.34250000000000E+0003	 6.75515831275720E-0002	
 2.34450000000000E+0003	 6.73422118518519E-0002	
 2.34650000000000E+0003	 6.72453405761317E-0002	
 2.34850000000000E+0003	 6.74919693004115E-0002	
 2.35050000000000E+0003	 6.76700980246914E-0002	
 2.35250000000000E+0003	 6.74527267489712E-0002	
 2.35450000000000E+0003	 6.73643554732510E-0002	
 2.35650000000000E+0003	 6.74519841975309E-0002	
 2.35850000000000E+0003	 6.75821129218107E-0002	
 2.36050000000000E+0003	 6.76072416460905E-0002	
 2.36250000000000E+0003	 6.76243703703704E-0002	
 2.36450000000000E+0003	 6.75854990946502E-0002	
 2.36650000000000E+0003	 6.75896278189300E-0002	
 2.36850000000000E+0003	 6.75752565432099E-0002	
 2.37050000000000E+0003	 6.76418852674897E-0002	
 2.37250000000000E+0003	 6.77290139917695E-0002	
 2.37450000000000E+0003	 6.78666427160494E-0002	
 2.37650000000000E+0003	 6.79507714403292E-0002	
 2.37850000000000E+0003	 6.79709001646091E-0002	
 2.38050000000000E+0003	 6.79000288888889E-0002	
 2.38250000000000E+0003	 6.78471576131687E-0002	
 2.38450000000000E+0003	 6.78377863374486E-0002	
 2.38650000000000E+0003	 6.78879150617284E-0002	
 2.38850000000000E+0003	 6.79385437860082E-0002	
 2.39050000000000E+0003	 6.79906725102881E-0002	
 2.39250000000000E+0003	 6.80238012345679E-0002	
 2.39450000000000E+0003	 6.80629299588477E-0002	
 2.39650000000000E+0003	 6.80880586831276E-0002	
 2.39850000000000E+0003	 6.81216874074074E-0002	
 2.40050000000000E+0003	 6.81388161316872E-0002	
 2.40250000000000E+0003	 6.81574448559671E-0002	
 2.40450000000000E+0003	 6.81600735802469E-0002	
 2.40650000000000E+0003	 6.81692023045267E-0002	
 2.40850000000000E+0003	 6.81628310288066E-0002	
 2.41050000000000E+0003	 6.81664597530864E-0002	
 2.41250000000000E+0003	 6.81635884773663E-0002	
 2.41450000000000E+0003	 6.81712172016461E-0002	
 2.41650000000000E+0003	 6.81643459259259E-0002	
 2.41850000000000E+0003	 6.81699746502058E-0002	
 2.42050000000000E+0003	 6.81636033744856E-0002	
 2.42250000000000E+0003	 6.81672320987654E-0002	
 2.42450000000000E+0003	 6.81633608230453E-0002	
 2.42650000000000E+0003	 6.81719895473251E-0002	
 2.42850000000000E+0003	 6.81671182716049E-0002	
 2.43050000000000E+0003	 6.81707469958848E-0002	
 2.43250000000000E+0003	 6.81653757201646E-0002	
 2.43450000000000E+0003	 6.81725044444444E-0002	
 2.43650000000000E+0003	 6.81681331687243E-0002	
 2.43850000000000E+0003	 6.81727618930041E-0002	
 2.44050000000000E+0003	 6.81663906172840E-0002	
 2.44250000000000E+0003	 6.81720193415638E-0002	
 2.44450000000000E+0003	 6.81671480658436E-0002	
 2.44650000000000E+0003	 6.81722767901235E-0002	
 2.44850000000000E+0003	 6.81664055144033E-0002	
 2.45050000000000E+0003	 6.81720342386831E-0002	
 2.45250000000000E+0003	 6.81671629629630E-0002	
 2.45450000000000E+0003	 6.81722916872428E-0002	
 2.45650000000000E+0003	 6.81669204115226E-0002	
 2.45850000000000E+0003	 6.81735491358025E-0002	
 2.46050000000000E+0003	 6.81731778600823E-0002	
 2.46250000000000E+0003	 6.81853065843621E-0002	
 2.46450000000000E+0003	 6.81819353086420E-0002	
 2.46650000000000E+0003	 6.81880640329218E-0002	
 2.46850000000000E+0003	 6.81871927572016E-0002	
 2.47050000000000E+0003	 6.81968214814815E-0002	
 2.47250000000000E+0003	 6.81979502057613E-0002	
 2.47450000000000E+0003	 6.82095789300412E-0002	
 2.47650000000000E+0003	 6.82122076543210E-0002	
 2.47850000000000E+0003	 6.82263363786008E-0002	
 2.48050000000000E+0003	 6.82289651028807E-0002	
 2.48250000000000E+0003	 6.82390938271605E-0002	
 2.48450000000000E+0003	 6.82432225514403E-0002	
 2.48650000000000E+0003	 6.82553512757202E-0002	
 2.48850000000000E+0003	 6.82554800000000E-0002	
 2.49050000000000E+0003	 6.82646087242798E-0002	
 2.49250000000000E+0003	 6.82627374485597E-0002	
 2.49450000000000E+0003	 6.82703661728395E-0002	
 2.49650000000000E+0003	 6.82694948971193E-0002	
 2.49850000000000E+0003	 6.82771236213992E-0002	
 2.50050000000000E+0003	 6.82742523456790E-0002	
 2.50250000000000E+0003	 6.82783810699588E-0002	
 2.50450000000000E+0003	 6.82755097942387E-0002	
 2.50650000000000E+0003	 6.82806385185185E-0002	
 2.50850000000000E+0003	 6.82757672427984E-0002	
 2.51050000000000E+0003	 6.82778959670782E-0002	
 2.51250000000000E+0003	 6.82720246913580E-0002	
 2.51450000000000E+0003	 6.82711534156379E-0002	
 2.51650000000000E+0003	 6.82632821399177E-0002	
 2.51850000000000E+0003	 6.82604108641975E-0002	
 2.52050000000000E+0003	 6.82490395884774E-0002	
 2.52250000000000E+0003	 6.82466683127572E-0002	
 2.52450000000000E+0003	 6.82357970370370E-0002	
 2.52650000000000E+0003	 6.82334257613169E-0002	
 2.52850000000000E+0003	 6.82235544855967E-0002	
 2.53050000000000E+0003	 6.82216832098765E-0002	
 2.53250000000000E+0003	 6.82118119341564E-0002	
 2.53450000000000E+0003	 6.82084406584362E-0002	
 2.53650000000000E+0003	 6.81970693827160E-0002	
 2.53850000000000E+0003	 6.81966981069959E-0002	
 2.54050000000000E+0003	 6.81913268312757E-0002	
 2.54250000000000E+0003	 6.81904555555556E-0002	
 2.54450000000000E+0003	 6.81805842798354E-0002	
 2.54650000000000E+0003	 6.81797130041152E-0002	
 2.54850000000000E+0003	 6.81753417283951E-0002	
 2.55050000000000E+0003	 6.81789704526749E-0002	
 2.55250000000000E+0003	 6.81750991769547E-0002	
 2.55450000000000E+0003	 6.81782279012346E-0002	
 2.55650000000000E+0003	 6.81778566255144E-0002	
 2.55850000000000E+0003	 6.81824853497942E-0002	
 2.56050000000000E+0003	 6.81826140740741E-0002	
 2.56250000000000E+0003	 6.81872427983539E-0002	
 2.56450000000000E+0003	 6.81848715226337E-0002	
 2.56650000000000E+0003	 6.81835002469136E-0002	
 2.56850000000000E+0003	 6.81811289711934E-0002	
 2.57050000000000E+0003	 6.81847576954733E-0002	
 2.57250000000000E+0003	 6.81873864197531E-0002	
 2.57450000000000E+0003	 6.82030151440329E-0002	
 2.57650000000000E+0003	 6.82176438683128E-0002	
 2.57850000000000E+0003	 6.82322725925926E-0002	
 2.58050000000000E+0003	 6.82439013168724E-0002	
 2.58250000000000E+0003	 6.82655300411523E-0002	
 2.58450000000000E+0003	 6.82866587654321E-0002	
 2.58650000000000E+0003	 6.83157874897119E-0002	
 2.58850000000000E+0003	 6.83399162139918E-0002	
 2.59050000000000E+0003	 6.83675449382716E-0002	
 2.59250000000000E+0003	 6.83906736625514E-0002	
 2.59450000000000E+0003	 6.84208023868313E-0002	
 2.59650000000000E+0003	 6.84489311111111E-0002	
 2.59850000000000E+0003	 6.84845598353909E-0002	
 2.60050000000000E+0003	 6.85171885596708E-0002	
 2.60250000000000E+0003	 6.85553172839506E-0002	
 2.60450000000000E+0003	 6.85894460082305E-0002	
 2.60650000000000E+0003	 6.86265747325103E-0002	
 2.60850000000000E+0003	 6.86632034567901E-0002	
 2.61050000000000E+0003	 6.87028321810700E-0002	
 2.61250000000000E+0003	 6.87399609053498E-0002	
 2.61450000000000E+0003	 6.87855896296296E-0002	
 2.61650000000000E+0003	 6.88262183539095E-0002	
 2.61850000000000E+0003	 6.88663470781893E-0002	
 2.62050000000000E+0003	 6.89044758024691E-0002	
 2.62250000000000E+0003	 6.89461045267490E-0002	
 2.62450000000000E+0003	 6.89882332510288E-0002	
 2.62650000000000E+0003	 6.90353619753086E-0002	
 2.62850000000000E+0003	 6.90789906995885E-0002	
 2.63050000000000E+0003	 6.91221194238683E-0002	
 2.63250000000000E+0003	 6.91657481481481E-0002	
 2.63450000000000E+0003	 6.92113768724280E-0002	
 2.63650000000000E+0003	 6.92550055967078E-0002	
 2.63850000000000E+0003	 6.93026343209877E-0002	
 2.64050000000000E+0003	 6.93492630452675E-0002	
 2.64250000000000E+0003	 6.93943917695473E-0002	
 2.64450000000000E+0003	 6.94405204938272E-0002	
 2.64650000000000E+0003	 6.94851492181070E-0002	
 2.64850000000000E+0003	 6.95307779423868E-0002	
 2.65050000000000E+0003	 6.95749066666667E-0002	
 2.65250000000000E+0003	 6.96235353909465E-0002	
 2.65450000000000E+0003	 6.96696641152263E-0002	
 2.65650000000000E+0003	 6.97177928395062E-0002	
 2.65850000000000E+0003	 6.97679215637860E-0002	
 2.66050000000000E+0003	 6.98175502880658E-0002	
 2.66250000000000E+0003	 6.98661790123457E-0002	
 2.66450000000000E+0003	 6.99188077366255E-0002	
 2.66650000000000E+0003	 6.99679364609053E-0002	
 2.66850000000000E+0003	 7.00160651851852E-0002	
 2.67050000000000E+0003	 7.00636939094650E-0002	
 2.67250000000000E+0003	 7.01188226337449E-0002	
 2.67450000000000E+0003	 7.01684513580247E-0002	
 2.67650000000000E+0003	 7.02190800823045E-0002	
 2.67850000000000E+0003	 7.02712088065844E-0002	
 2.68050000000000E+0003	 7.03253375308642E-0002	
 2.68250000000000E+0003	 7.03689662551440E-0002	
 2.68450000000000E+0003	 7.04135949794239E-0002	
 2.68650000000000E+0003	 7.04587237037037E-0002	
 2.68850000000000E+0003	 7.05063524279835E-0002	
 2.69050000000000E+0003	 7.05519811522634E-0002	
 2.69250000000000E+0003	 7.06021098765432E-0002	
 2.69450000000000E+0003	 7.06512386008230E-0002	
 2.69650000000000E+0003	 7.07048673251029E-0002	
 2.69850000000000E+0003	 7.07554960493827E-0002	
 2.70050000000000E+0003	 7.08086247736626E-0002	
 2.70250000000000E+0003	 7.08657534979424E-0002	
 2.70450000000000E+0003	 7.09313822222222E-0002	
 2.70650000000000E+0003	 7.09935109465021E-0002	
 2.70850000000000E+0003	 7.10641396707819E-0002	
 2.71050000000000E+0003	 7.11387683950617E-0002	
 2.71250000000000E+0003	 7.12173971193416E-0002	
 2.71450000000000E+0003	 7.12950258436214E-0002	
 2.71650000000000E+0003	 7.13811545679012E-0002	
 2.71850000000000E+0003	 7.14657832921811E-0002	
 2.72050000000000E+0003	 7.15584120164609E-0002	
 2.72250000000000E+0003	 7.16540407407407E-0002	
 2.72450000000000E+0003	 7.17551694650206E-0002	
 2.72650000000000E+0003	 7.18542981893004E-0002	
 2.72850000000000E+0003	 7.19459269135802E-0002	
 2.73050000000000E+0003	 7.20240556378601E-0002	
 2.73250000000000E+0003	 7.21121843621399E-0002	
 2.73450000000000E+0003	 7.21923130864198E-0002	
 2.73650000000000E+0003	 7.22829418106996E-0002	
 2.73850000000000E+0003	 7.23650705349794E-0002	
 2.74050000000000E+0003	 7.24456992592593E-0002	
 2.74250000000000E+0003	 7.25163279835391E-0002	
 2.74450000000000E+0003	 7.25974567078189E-0002	
 2.74650000000000E+0003	 7.26785854320988E-0002	
 2.74850000000000E+0003	 7.27672141563786E-0002	
 2.75050000000000E+0003	 7.28358428806584E-0002	
 2.75250000000000E+0003	 7.29084716049383E-0002	
 2.75450000000000E+0003	 7.29796003292181E-0002	
 2.75650000000000E+0003	 7.30682290534979E-0002	
 2.75850000000000E+0003	 7.31533577777778E-0002	
 2.76050000000000E+0003	 7.32469865020576E-0002	
 2.76250000000000E+0003	 7.33326152263374E-0002	
 2.76450000000000E+0003	 7.34287439506173E-0002	
 2.76650000000000E+0003	 7.35243726748971E-0002	
 2.76850000000000E+0003	 7.36305013991770E-0002	
 2.77050000000000E+0003	 7.37251301234568E-0002	
 2.77250000000000E+0003	 7.38312588477366E-0002	
 2.77450000000000E+0003	 7.39448875720165E-0002	
 2.77650000000000E+0003	 7.40575162962963E-0002	
 2.77850000000000E+0003	 7.41541450205761E-0002	
 2.78050000000000E+0003	 7.42702737448560E-0002	
 2.78250000000000E+0003	 7.43914024691358E-0002	
 2.78450000000000E+0003	 7.45210311934156E-0002	
 2.78650000000000E+0003	 7.46521599176955E-0002	
 2.78850000000000E+0003	 7.48087886419753E-0002	
 2.79050000000000E+0003	 7.49564173662551E-0002	
 2.79250000000000E+0003	 7.50945460905350E-0002	
 2.79450000000000E+0003	 7.52301748148148E-0002	
 2.79650000000000E+0003	 7.53918035390947E-0002	
 2.79850000000000E+0003	 7.55584322633745E-0002	
 2.80050000000000E+0003	 7.57160609876543E-0002	
 2.80250000000000E+0003	 7.58606897119342E-0002	
 2.80450000000000E+0003	 7.60283184362140E-0002	
 2.80650000000000E+0003	 7.61929471604938E-0002	
 2.80850000000000E+0003	 7.63730758847737E-0002	
 2.81050000000000E+0003	 7.65522046090535E-0002	
 2.81250000000000E+0003	 7.67303333333333E-0002	
 2.81450000000000E+0003	 7.69014620576132E-0002	
 2.81650000000000E+0003	 7.70930907818930E-0002	
 2.81850000000000E+0003	 7.72862195061728E-0002	
 2.82050000000000E+0003	 7.74958482304527E-0002	
 2.82250000000000E+0003	 7.77004769547325E-0002	
 2.82450000000000E+0003	 7.79271056790123E-0002	
 2.82650000000000E+0003	 7.81577344032922E-0002	
 2.82850000000000E+0003	 7.84083631275720E-0002	
 2.83050000000000E+0003	 7.86694918518519E-0002	
 2.83250000000000E+0003	 7.89691205761317E-0002	
 2.83450000000000E+0003	 7.92917493004115E-0002	
 2.83650000000000E+0003	 7.96723780246914E-0002	
 2.83850000000000E+0003	 8.01245067489712E-0002	
 2.84050000000000E+0003	 8.06461354732510E-0002	
 2.84250000000000E+0003	 8.12697641975309E-0002	
 2.84450000000000E+0003	 8.21128929218107E-0002	
 2.84650000000000E+0003	 8.31755216460905E-0002	
 2.84850000000000E+0003	 8.44091503703704E-0002	
 2.85050000000000E+0003	 8.56287790946502E-0002	
 2.85250000000000E+0003	 8.66534078189300E-0002	
 2.85450000000000E+0003	 8.73105365432099E-0002	
 2.85650000000000E+0003	 8.76146652674897E-0002	
 2.85850000000000E+0003	 8.76942939917695E-0002	
 2.86050000000000E+0003	 8.77339227160494E-0002	
 2.86250000000000E+0003	 8.78265514403292E-0002	
 2.86450000000000E+0003	 8.80746801646091E-0002	
 2.86650000000000E+0003	 8.84768088888889E-0002	
 2.86850000000000E+0003	 8.90064376131687E-0002	
 2.87050000000000E+0003	 8.95845663374486E-0002	
 2.87250000000000E+0003	 9.01621950617284E-0002	
 2.87450000000000E+0003	 9.05728237860082E-0002	
 2.87650000000000E+0003	 9.07714525102881E-0002	
 2.87850000000000E+0003	 9.08490812345679E-0002	
 2.88050000000000E+0003	 9.09032099588477E-0002	
 2.88250000000000E+0003	 9.09503386831276E-0002	
 2.88450000000000E+0003	 9.10439674074074E-0002	
 2.88650000000000E+0003	 9.11955961316872E-0002	
 2.88850000000000E+0003	 9.14252248559671E-0002	
 2.89050000000000E+0003	 9.17083535802469E-0002	
 2.89250000000000E+0003	 9.20589823045267E-0002	
 2.89450000000000E+0003	 9.24641110288066E-0002	
 2.89650000000000E+0003	 9.29192397530864E-0002	
 2.89850000000000E+0003	 9.33743684773663E-0002	
 2.90050000000000E+0003	 9.38749972016461E-0002	
 2.90250000000000E+0003	 9.44386259259259E-0002	
 2.90450000000000E+0003	 9.50922546502058E-0002	
 2.90650000000000E+0003	 9.58203833744856E-0002	
 2.90850000000000E+0003	 9.66735120987654E-0002	
 2.91050000000000E+0003	 9.76781408230453E-0002	
 2.91250000000000E+0003	 9.88817695473251E-0002	
 2.91450000000000E+0003	 1.00210398271605E-0001	
 2.91650000000000E+0003	 1.01607526995885E-0001	
 2.91850000000000E+0003	 1.03017655720165E-0001	
 2.92050000000000E+0003	 1.04355784444444E-0001	
 2.92250000000000E+0003	 1.05506413168724E-0001	
 2.92450000000000E+0003	 1.06402041893004E-0001	
 2.92650000000000E+0003	 1.06998170617284E-0001	
 2.92850000000000E+0003	 1.07362799341564E-0001	
 2.93050000000000E+0003	 1.07488928065844E-0001	
 2.93250000000000E+0003	 1.07384556790123E-0001	
 2.93450000000000E+0003	 1.07110185514403E-0001	
 2.93650000000000E+0003	 1.06696814238683E-0001	
 2.93850000000000E+0003	 1.06109942962963E-0001	
 2.94050000000000E+0003	 1.05395071687243E-0001	
 2.94250000000000E+0003	 1.04637200411523E-0001	
 2.94450000000000E+0003	 1.03916829135802E-0001	
 2.94650000000000E+0003	 1.03256957860082E-0001	
 2.94850000000000E+0003	 1.02731086584362E-0001	
 2.95050000000000E+0003	 1.02406215308642E-0001	
 2.95250000000000E+0003	 1.02334344032922E-0001	
 2.95450000000000E+0003	 1.02391472757202E-0001	
 2.95650000000000E+0003	 1.02502101481481E-0001	
 2.95850000000000E+0003	 1.02585730205761E-0001	
 2.96050000000000E+0003	 1.02550858930041E-0001	
 2.96250000000000E+0003	 1.02336487654321E-0001	
 2.96450000000000E+0003	 1.01942616378601E-0001	
 2.96650000000000E+0003	 1.01395745102881E-0001	
 2.96850000000000E+0003	 1.00768373827160E-0001	
 2.97050000000000E+0003	 1.00037002551440E-0001	
 2.97250000000000E+0003	 9.92226312757202E-0002	
 2.97450000000000E+0003	 9.84057600000000E-0002	
 2.97650000000000E+0003	 9.76408887242798E-0002	
 2.97850000000000E+0003	 9.69390174485597E-0002	
 2.98050000000000E+0003	 9.62956461728395E-0002	
 2.98250000000000E+0003	 9.56462748971193E-0002	
 2.98450000000000E+0003	 9.50174036213992E-0002	
 2.98650000000000E+0003	 9.44450323456790E-0002	
 2.98850000000000E+0003	 9.39401610699588E-0002	
 2.99050000000000E+0003	 9.35012897942387E-0002	
 2.99250000000000E+0003	 9.31309185185185E-0002	
 2.99450000000000E+0003	 9.27750472427984E-0002	
 2.99650000000000E+0003	 9.25036759670782E-0002	
 2.99850000000000E+0003	 9.23253046913580E-0002	
 3.00050000000000E+0003	 9.21964334156379E-0002	
 3.00250000000000E+0003	 9.21360621399177E-0002	
 3.00450000000000E+0003	 9.21541908641975E-0002	
 3.00650000000000E+0003	 9.22198195884774E-0002	
 3.00850000000000E+0003	 9.23519483127572E-0002	
 3.01050000000000E+0003	 9.25705770370370E-0002	
 3.01250000000000E+0003	 9.28462057613169E-0002	
 3.01450000000000E+0003	 9.31248344855967E-0002	
 3.01650000000000E+0003	 9.33984632098765E-0002	
 3.01850000000000E+0003	 9.36730919341564E-0002	
 3.02050000000000E+0003	 9.39747206584362E-0002	
 3.02250000000000E+0003	 9.43333493827160E-0002	
 3.02450000000000E+0003	 9.47589781069959E-0002	
 3.02650000000000E+0003	 9.51876068312757E-0002	
 3.02850000000000E+0003	 9.56147355555556E-0002	
 3.03050000000000E+0003	 9.60528642798354E-0002	
 3.03250000000000E+0003	 9.65114930041152E-0002	
 3.03450000000000E+0003	 9.69941217283951E-0002	
 3.03650000000000E+0003	 9.74482504526749E-0002	
 3.03850000000000E+0003	 9.79003791769547E-0002	
 3.04050000000000E+0003	 9.84220079012346E-0002	
 3.04250000000000E+0003	 9.89651366255144E-0002	
 3.04450000000000E+0003	 9.94692653497942E-0002	
 3.04650000000000E+0003	 9.99483940740741E-0002	
 3.04850000000000E+0003	 1.00451522798354E-0001	
 3.05050000000000E+0003	 1.01011651522634E-0001	
 3.05250000000000E+0003	 1.01567780246914E-0001	
 3.05450000000000E+0003	 1.02104408971193E-0001	
 3.05650000000000E+0003	 1.02654037695473E-0001	
 3.05850000000000E+0003	 1.03190666419753E-0001	
 3.06050000000000E+0003	 1.03696795144033E-0001	
 3.06250000000000E+0003	 1.04180923868313E-0001	
 3.06450000000000E+0003	 1.04657552592593E-0001	
 3.06650000000000E+0003	 1.05149181316872E-0001	
 3.06850000000000E+0003	 1.05611310041152E-0001	
 3.07050000000000E+0003	 1.06005438765432E-0001	
 3.07250000000000E+0003	 1.06388567489712E-0001	
 3.07450000000000E+0003	 1.06782696213992E-0001	
 3.07650000000000E+0003	 1.07206824938272E-0001	
 3.07850000000000E+0003	 1.07632453662551E-0001	
 3.08050000000000E+0003	 1.08007582386831E-0001	
 3.08250000000000E+0003	 1.08364211111111E-0001	
 3.08450000000000E+0003	 1.08737339835391E-0001	
 3.08650000000000E+0003	 1.09075468559671E-0001	
 3.08850000000000E+0003	 1.09397097283951E-0001	
 3.09050000000000E+0003	 1.09739226008230E-0001	
 3.09250000000000E+0003	 1.10051354732510E-0001	
 3.09450000000000E+0003	 1.10344983456790E-0001	
 3.09650000000000E+0003	 1.10653612181070E-0001	
 3.09850000000000E+0003	 1.10990740905350E-0001	
 3.10050000000000E+0003	 1.11344869629630E-0001	
 3.10250000000000E+0003	 1.11695998353909E-0001	
 3.10450000000000E+0003	 1.12057627078189E-0001	
 3.10650000000000E+0003	 1.12452255802469E-0001	
 3.10850000000000E+0003	 1.12877384526749E-0001	
 3.11050000000000E+0003	 1.13281513251029E-0001	
 3.11250000000000E+0003	 1.13687141975309E-0001	
 3.11450000000000E+0003	 1.14178270699588E-0001	
 3.11650000000000E+0003	 1.14713899423868E-0001	
 3.11850000000000E+0003	 1.15243028148148E-0001	
 3.12050000000000E+0003	 1.15756156872428E-0001	
 3.12250000000000E+0003	 1.16235785596708E-0001	
 3.12450000000000E+0003	 1.16736414320988E-0001	
 3.12650000000000E+0003	 1.17311543045267E-0001	
 3.12850000000000E+0003	 1.17938671769547E-0001	
 3.13050000000000E+0003	 1.18582800493827E-0001	
 3.13250000000000E+0003	 1.19208429218107E-0001	
 3.13450000000000E+0003	 1.19863057942387E-0001	
 3.13650000000000E+0003	 1.20576686666667E-0001	
 3.13850000000000E+0003	 1.21345315390947E-0001	
 3.14050000000000E+0003	 1.22084444115226E-0001	
 3.14250000000000E+0003	 1.22779572839506E-0001	
 3.14450000000000E+0003	 1.23508701563786E-0001	
 3.14650000000000E+0003	 1.24292330288066E-0001	
 3.14850000000000E+0003	 1.25103459012346E-0001	
 3.15050000000000E+0003	 1.25993087736626E-0001	
 3.15250000000000E+0003	 1.26905216460905E-0001	
 3.15450000000000E+0003	 1.27735345185185E-0001	
 3.15650000000000E+0003	 1.28549473909465E-0001	
 3.15850000000000E+0003	 1.29430102633745E-0001	
 3.16050000000000E+0003	 1.30343231358025E-0001	
 3.16250000000000E+0003	 1.31279860082305E-0001	
 3.16450000000000E+0003	 1.32228988806584E-0001	
 3.16650000000000E+0003	 1.33195617530864E-0001	
 3.16850000000000E+0003	 1.34171246255144E-0001	
 3.17050000000000E+0003	 1.35157374979424E-0001	
 3.17250000000000E+0003	 1.36150003703704E-0001	
 3.17450000000000E+0003	 1.37150632427984E-0001	
 3.17650000000000E+0003	 1.38147761152263E-0001	
 3.17850000000000E+0003	 1.39161889876543E-0001	
 3.18050000000000E+0003	 1.40185018600823E-0001	
 3.18250000000000E+0003	 1.41204647325103E-0001	
 3.18450000000000E+0003	 1.42217776049383E-0001	
 3.18650000000000E+0003	 1.43236904773663E-0001	
 3.18850000000000E+0003	 1.44252533497942E-0001	
 3.19050000000000E+0003	 1.45257162222222E-0001	
 3.19250000000000E+0003	 1.46246790946502E-0001	
 3.19450000000000E+0003	 1.47231419670782E-0001	
 3.19650000000000E+0003	 1.48205048395062E-0001	
 3.19850000000000E+0003	 1.49185677119342E-0001	
 3.20050000000000E+0003	 1.50175305843621E-0001	
 3.20250000000000E+0003	 1.51159934567901E-0001	
 3.20450000000000E+0003	 1.52124563292181E-0001	
 3.20650000000000E+0003	 1.53081192016461E-0001	
 3.20850000000000E+0003	 1.54025820740741E-0001	
 3.21050000000000E+0003	 1.54969449465021E-0001	
 3.21250000000000E+0003	 1.55920078189300E-0001	
 3.21450000000000E+0003	 1.56879706913580E-0001	
 3.21650000000000E+0003	 1.57840335637860E-0001	
 3.21850000000000E+0003	 1.58802964362140E-0001	
 3.22050000000000E+0003	 1.59761093086420E-0001	
 3.22250000000000E+0003	 1.60724721810700E-0001	
 3.22450000000000E+0003	 1.61692350534979E-0001	
 3.22650000000000E+0003	 1.62659479259259E-0001	
 3.22850000000000E+0003	 1.63627607983539E-0001	
 3.23050000000000E+0003	 1.64640236707819E-0001	
 3.23250000000000E+0003	 1.65710865432099E-0001	
 3.23450000000000E+0003	 1.66732994156379E-0001	
 3.23650000000000E+0003	 1.67675122880658E-0001	
 3.23850000000000E+0003	 1.68648251604938E-0001	
 3.24050000000000E+0003	 1.69667880329218E-0001	
 3.24250000000000E+0003	 1.70707009053498E-0001	
 3.24450000000000E+0003	 1.71779637777778E-0001	
 3.24650000000000E+0003	 1.72894766502058E-0001	
 3.24850000000000E+0003	 1.73980895226337E-0001	
 3.25050000000000E+0003	 1.75028023950617E-0001	
 3.25250000000000E+0003	 1.76092152674897E-0001	
 3.25450000000000E+0003	 1.77204281399177E-0001	
 3.25650000000000E+0003	 1.78334910123457E-0001	
 3.25850000000000E+0003	 1.79437038847737E-0001	
 3.26050000000000E+0003	 1.80536167572016E-0001	
 3.26250000000000E+0003	 1.81650796296296E-0001	
 3.26450000000000E+0003	 1.82764925020576E-0001	
 3.26650000000000E+0003	 1.83868053744856E-0001	
 3.26850000000000E+0003	 1.84993682469136E-0001	
 3.27050000000000E+0003	 1.86122311193416E-0001	
 3.27250000000000E+0003	 1.87151439917695E-0001	
 3.27450000000000E+0003	 1.88113068641975E-0001	
 3.27650000000000E+0003	 1.89080697366255E-0001	
 3.27850000000000E+0003	 1.90032826090535E-0001	
 3.28050000000000E+0003	 1.90963954814815E-0001	
 3.28250000000000E+0003	 1.91869083539095E-0001	
 3.28450000000000E+0003	 1.92742712263374E-0001	
 3.28650000000000E+0003	 1.93573840987654E-0001	
 3.28850000000000E+0003	 1.94379469711934E-0001	
 3.29050000000000E+0003	 1.95192098436214E-0001	
 3.29250000000000E+0003	 1.95988227160494E-0001	
 3.29450000000000E+0003	 1.96715355884774E-0001	
 3.29650000000000E+0003	 1.97397984609053E-0001	
 3.29850000000000E+0003	 1.98044613333333E-0001	
 3.30050000000000E+0003	 1.98683242057613E-0001	
 3.30250000000000E+0003	 1.99358370781893E-0001	
 3.30450000000000E+0003	 2.00080999506173E-0001	
 3.30650000000000E+0003	 2.00750128230453E-0001	
 3.30850000000000E+0003	 2.01317256954733E-0001	
 3.31050000000000E+0003	 2.01842385679012E-0001	
 3.31250000000000E+0003	 2.02389014403292E-0001	
 3.31450000000000E+0003	 2.02973143127572E-0001	
 3.31650000000000E+0003	 2.03584771851852E-0001	
 3.31850000000000E+0003	 2.04200400576132E-0001	
 3.32050000000000E+0003	 2.04823529300412E-0001	
 3.32250000000000E+0003	 2.05463158024691E-0001	
 3.32450000000000E+0003	 2.06146286748971E-0001	
 3.32650000000000E+0003	 2.06825415473251E-0001	
 3.32850000000000E+0003	 2.07473044197531E-0001	
 3.33050000000000E+0003	 2.08132172921811E-0001	
 3.33250000000000E+0003	 2.08827301646091E-0001	
 3.33450000000000E+0003	 2.09547930370370E-0001	
 3.33650000000000E+0003	 2.10333059094650E-0001	
 3.33850000000000E+0003	 2.11130187818930E-0001	
 3.34050000000000E+0003	 2.11879316543210E-0001	
 3.34250000000000E+0003	 2.12615945267490E-0001	
 3.34450000000000E+0003	 2.13374573991770E-0001	
 3.34650000000000E+0003	 2.14138202716049E-0001	
 3.34850000000000E+0003	 2.14978331440329E-0001	
 3.35050000000000E+0003	 2.15840460164609E-0001	
 3.35250000000000E+0003	 2.16607588888889E-0001	
 3.35450000000000E+0003	 2.17328717613169E-0001	
 3.35650000000000E+0003	 2.18116846337449E-0001	
 3.35850000000000E+0003	 2.18940475061728E-0001	
 3.36050000000000E+0003	 2.19773603786008E-0001	
 3.36250000000000E+0003	 2.20573232510288E-0001	
 3.36450000000000E+0003	 2.21411861234568E-0001	
 3.36650000000000E+0003	 2.22325489958848E-0001	
 3.36850000000000E+0003	 2.23233118683128E-0001	
 3.37050000000000E+0003	 2.23977747407407E-0001	
 3.37250000000000E+0003	 2.24617876131687E-0001	
 3.37450000000000E+0003	 2.25309504855967E-0001	
 3.37650000000000E+0003	 2.26070633580247E-0001	
 3.37850000000000E+0003	 2.26813262304527E-0001	
 3.38050000000000E+0003	 2.27528391028807E-0001	
 3.38250000000000E+0003	 2.28206019753086E-0001	
 3.38450000000000E+0003	 2.28888648477366E-0001	
 3.38650000000000E+0003	 2.29574277201646E-0001	
 3.38850000000000E+0003	 2.30313905925926E-0001	
 3.39050000000000E+0003	 2.31108534650206E-0001	
 3.39250000000000E+0003	 2.31790163374486E-0001	
 3.39450000000000E+0003	 2.32282792098765E-0001	
 3.39650000000000E+0003	 2.32839420823045E-0001	
 3.39850000000000E+0003	 2.33566049547325E-0001	
 3.40050000000000E+0003	 2.34284178271605E-0001	
 3.40250000000000E+0003	 2.34721806995885E-0001	
 3.40450000000000E+0003	 2.35038435720165E-0001	
 3.40650000000000E+0003	 2.35462064444444E-0001	
 3.40850000000000E+0003	 2.35974193168724E-0001	
 3.41050000000000E+0003	 2.36439321893004E-0001	
 3.41250000000000E+0003	 2.36862450617284E-0001	
 3.41450000000000E+0003	 2.37189579341564E-0001	
 3.41650000000000E+0003	 2.37468208065844E-0001	
 3.41850000000000E+0003	 2.37761836790123E-0001	
 3.42050000000000E+0003	 2.38071965514403E-0001	
 3.42250000000000E+0003	 2.38319594238683E-0001	
 3.42450000000000E+0003	 2.38551222962963E-0001	
 3.42650000000000E+0003	 2.38789851687243E-0001	
 3.42850000000000E+0003	 2.39037980411523E-0001	
 3.43050000000000E+0003	 2.39201109135802E-0001	
 3.43250000000000E+0003	 2.39331737860082E-0001	
 3.43450000000000E+0003	 2.39474866584362E-0001	
 3.43650000000000E+0003	 2.39514495308642E-0001	
 3.43850000000000E+0003	 2.39343624032922E-0001	
 3.44050000000000E+0003	 2.39126752757202E-0001	
 3.44250000000000E+0003	 2.38935381481481E-0001	
 3.44450000000000E+0003	 2.38772510205761E-0001	
 3.44650000000000E+0003	 2.38606638930041E-0001	
 3.44850000000000E+0003	 2.38403767654321E-0001	
 3.45050000000000E+0003	 2.38142396378601E-0001	
 3.45250000000000E+0003	 2.37871025102881E-0001	
 3.45450000000000E+0003	 2.37549153827160E-0001	
 3.45650000000000E+0003	 2.37213782551440E-0001	
 3.45850000000000E+0003	 2.36866911275720E-0001	
 3.46050000000000E+0003	 2.36479540000000E-0001	
 3.46250000000000E+0003	 2.35991668724280E-0001	
 3.46450000000000E+0003	 2.35565797448560E-0001	
 3.46650000000000E+0003	 2.35237926172840E-0001	
 3.46850000000000E+0003	 2.34803554897119E-0001	
 3.47050000000000E+0003	 2.34082183621399E-0001	
 3.47250000000000E+0003	 2.33280312345679E-0001	
 3.47450000000000E+0003	 2.32564941069959E-0001	
 3.47650000000000E+0003	 2.31939069794239E-0001	
 3.47850000000000E+0003	 2.31332698518519E-0001	
 3.48050000000000E+0003	 2.30633327242798E-0001	
 3.48250000000000E+0003	 2.29797955967078E-0001	
 3.48450000000000E+0003	 2.29032084691358E-0001	
 3.48650000000000E+0003	 2.28304713415638E-0001	
 3.48850000000000E+0003	 2.27515842139918E-0001	
 3.49050000000000E+0003	 2.26680970864198E-0001	
 3.49250000000000E+0003	 2.25881099588477E-0001	
 3.49450000000000E+0003	 2.25078728312757E-0001	
 3.49650000000000E+0003	 2.24266357037037E-0001	
 3.49850000000000E+0003	 2.23376985761317E-0001	
 3.50050000000000E+0003	 2.22495114485597E-0001	
 3.50250000000000E+0003	 2.21607243209877E-0001	
 3.50450000000000E+0003	 2.20609871934156E-0001	
 3.50650000000000E+0003	 2.19577500658436E-0001	
 3.50850000000000E+0003	 2.18629629382716E-0001	
 3.51050000000000E+0003	 2.17715258106996E-0001	
 3.51250000000000E+0003	 2.16862386831276E-0001	
 3.51450000000000E+0003	 2.15933015555556E-0001	
 3.51650000000000E+0003	 2.14898644279835E-0001	
 3.51850000000000E+0003	 2.13832273004115E-0001	
 3.52050000000000E+0003	 2.12813401728395E-0001	
 3.52250000000000E+0003	 2.11814030452675E-0001	
 3.52450000000000E+0003	 2.10722159176955E-0001	
 3.52650000000000E+0003	 2.09556787901235E-0001	
 3.52850000000000E+0003	 2.08485416625514E-0001	
 3.53050000000000E+0003	 2.07442545349794E-0001	
 3.53250000000000E+0003	 2.06409174074074E-0001	
 3.53450000000000E+0003	 2.05397802798354E-0001	
 3.53650000000000E+0003	 2.04346431522634E-0001	
 3.53850000000000E+0003	 2.03145060246914E-0001	
 3.54050000000000E+0003	 2.01951188971193E-0001	
 3.54250000000000E+0003	 2.00787817695473E-0001	
 3.54450000000000E+0003	 1.99564946419753E-0001	
 3.54650000000000E+0003	 1.98197075144033E-0001	
 3.54850000000000E+0003	 1.96842703868313E-0001	
 3.55050000000000E+0003	 1.95606332592593E-0001	
 3.55250000000000E+0003	 1.94359961316872E-0001	
 3.55450000000000E+0003	 1.93038590041152E-0001	
 3.55650000000000E+0003	 1.91742218765432E-0001	
 3.55850000000000E+0003	 1.90430347489712E-0001	
 3.56050000000000E+0003	 1.89058476213992E-0001	
 3.56250000000000E+0003	 1.87521104938272E-0001	
 3.56450000000000E+0003	 1.85879733662551E-0001	
 3.56650000000000E+0003	 1.84273862386831E-0001	
 3.56850000000000E+0003	 1.82900491111111E-0001	
 3.57050000000000E+0003	 1.81676619835391E-0001	
 3.57250000000000E+0003	 1.80337748559671E-0001	
 3.57450000000000E+0003	 1.78866377283951E-0001	
 3.57650000000000E+0003	 1.77376506008230E-0001	
 3.57850000000000E+0003	 1.75869134732510E-0001	
 3.58050000000000E+0003	 1.74347763456790E-0001	
 3.58250000000000E+0003	 1.72776392181070E-0001	
 3.58450000000000E+0003	 1.71201520905350E-0001	
 3.58650000000000E+0003	 1.69536149629630E-0001	
 3.58850000000000E+0003	 1.67711278353909E-0001	
 3.59050000000000E+0003	 1.66027907078189E-0001	
 3.59250000000000E+0003	 1.64518035802469E-0001	
 3.59450000000000E+0003	 1.62926664526749E-0001	
 3.59650000000000E+0003	 1.61297293251029E-0001	
 3.59850000000000E+0003	 1.59691921975309E-0001	
 3.60050000000000E+0003	 1.58078550699588E-0001	
 3.60250000000000E+0003	 1.56430679423868E-0001	
 3.60450000000000E+0003	 1.54712308148148E-0001	
 3.60650000000000E+0003	 1.52881436872428E-0001	
 3.60850000000000E+0003	 1.51032565596708E-0001	
 3.61050000000000E+0003	 1.49328694320988E-0001	
 3.61250000000000E+0003	 1.47727823045267E-0001	
 3.61450000000000E+0003	 1.46028951769547E-0001	
 3.61650000000000E+0003	 1.44502580493827E-0001	
 3.61850000000000E+0003	 1.43174709218107E-0001	
 3.62050000000000E+0003	 1.41550337942387E-0001	
 3.62250000000000E+0003	 1.39652466666667E-0001	
 3.62450000000000E+0003	 1.37794595390947E-0001	
 3.62650000000000E+0003	 1.36127724115226E-0001	
 3.62850000000000E+0003	 1.34570852839506E-0001	
 3.63050000000000E+0003	 1.32829481563786E-0001	
 3.63250000000000E+0003	 1.31249610288066E-0001	
 3.63450000000000E+0003	 1.29764239012346E-0001	
 3.63650000000000E+0003	 1.28269867736626E-0001	
 3.63850000000000E+0003	 1.26755996460905E-0001	
 3.64050000000000E+0003	 1.25199625185185E-0001	
 3.64250000000000E+0003	 1.23553753909465E-0001	
 3.64450000000000E+0003	 1.21858882633745E-0001	
 3.64650000000000E+0003	 1.20163511358025E-0001	
 3.64850000000000E+0003	 1.18606140082305E-0001	
 3.65050000000000E+0003	 1.17209768806584E-0001	
 3.65250000000000E+0003	 1.15869397530864E-0001	
 3.65450000000000E+0003	 1.14664026255144E-0001	
 3.65650000000000E+0003	 1.13462654979424E-0001	
 3.65850000000000E+0003	 1.12222283703704E-0001	
 3.66050000000000E+0003	 1.11007412427984E-0001	
 3.66250000000000E+0003	 1.09689541152263E-0001	
 3.66450000000000E+0003	 1.08351169876543E-0001	
 3.66650000000000E+0003	 1.07089798600823E-0001	
 3.66850000000000E+0003	 1.05912927325103E-0001	
 3.67050000000000E+0003	 1.04602056049383E-0001	
 3.67250000000000E+0003	 1.03403684773663E-0001	
 3.67450000000000E+0003	 1.02398313497942E-0001	
 3.67650000000000E+0003	 1.01298442222222E-0001	
 3.67850000000000E+0003	 1.00468570946502E-0001	
 3.68050000000000E+0003	 9.97241996707819E-0002	
 3.68250000000000E+0003	 9.89128283950617E-0002	
 3.68450000000000E+0003	 9.81124571193416E-0002	
 3.68650000000000E+0003	 9.73560858436214E-0002	
 3.68850000000000E+0003	 9.66827145679012E-0002	
 3.69050000000000E+0003	 9.59023432921811E-0002	
 3.69250000000000E+0003	 9.50594720164609E-0002	
 3.69450000000000E+0003	 9.44266007407407E-0002	
 3.69650000000000E+0003	 9.38567294650206E-0002	
 3.69850000000000E+0003	 9.32663581893004E-0002	
 3.70050000000000E+0003	 9.27154869135802E-0002	
 3.70250000000000E+0003	 9.20921156378601E-0002	
 3.70450000000000E+0003	 9.14337443621399E-0002	
 3.70650000000000E+0003	 9.08058730864198E-0002	
 3.70850000000000E+0003	 9.01385018106996E-0002	
 3.71050000000000E+0003	 8.95041305349794E-0002	
 3.71250000000000E+0003	 8.90347592592593E-0002	
 3.71450000000000E+0003	 8.87743879835391E-0002	
 3.71650000000000E+0003	 8.85080167078189E-0002	
 3.71850000000000E+0003	 8.80886454320988E-0002	
 3.72050000000000E+0003	 8.75962741563786E-0002	
 3.72250000000000E+0003	 8.70794028806584E-0002	
 3.72450000000000E+0003	 8.66230316049383E-0002	
 3.72650000000000E+0003	 8.62176603292181E-0002	
 3.72850000000000E+0003	 8.58637890534979E-0002	
 3.73050000000000E+0003	 8.55024177777778E-0002	
 3.73250000000000E+0003	 8.50865465020576E-0002	
 3.73450000000000E+0003	 8.46501752263374E-0002	
 3.73650000000000E+0003	 8.41663039506173E-0002	
 3.73850000000000E+0003	 8.38459326748971E-0002	
 3.74050000000000E+0003	 8.35925613991770E-0002	
 3.74250000000000E+0003	 8.32931901234568E-0002	
 3.74450000000000E+0003	 8.29003188477366E-0002	
 3.74650000000000E+0003	 8.25039475720165E-0002	
 3.74850000000000E+0003	 8.21560762962963E-0002	
 3.75050000000000E+0003	 8.18787050205761E-0002	
 3.75250000000000E+0003	 8.17803337448560E-0002	
 3.75450000000000E+0003	 8.18214624691358E-0002	
 3.75650000000000E+0003	 8.17925911934156E-0002	
 3.75850000000000E+0003	 8.16207199176955E-0002	
 3.76050000000000E+0003	 8.14018486419753E-0002	
 3.76250000000000E+0003	 8.12159773662551E-0002	
 3.76450000000000E+0003	 8.10326060905350E-0002	
 3.76650000000000E+0003	 8.07752348148148E-0002	
 3.76850000000000E+0003	 8.05408635390947E-0002	
 3.77050000000000E+0003	 8.03614922633745E-0002	
 3.77250000000000E+0003	 8.02351209876543E-0002	
 3.77450000000000E+0003	 8.00827497119342E-0002	
 3.77650000000000E+0003	 7.98653784362140E-0002	
 3.77850000000000E+0003	 7.96405071604938E-0002	
 3.78050000000000E+0003	 7.94086358847737E-0002	
 3.78250000000000E+0003	 7.92057646090535E-0002	
 3.78450000000000E+0003	 7.90358933333333E-0002	
 3.78650000000000E+0003	 7.88730220576132E-0002	
 3.78850000000000E+0003	 7.87431507818930E-0002	
 3.79050000000000E+0003	 7.85822795061728E-0002	
 3.79250000000000E+0003	 7.83309082304527E-0002	
 3.79450000000000E+0003	 7.80445369547325E-0002	
 3.79650000000000E+0003	 7.77371656790123E-0002	
 3.79850000000000E+0003	 7.74772944032922E-0002	
 3.80050000000000E+0003	 7.72379231275720E-0002	
 3.80250000000000E+0003	 7.69555518518519E-0002	
 3.80450000000000E+0003	 7.68586805761317E-0002	
 3.80650000000000E+0003	 7.68328093004115E-0002	
 3.80850000000000E+0003	 7.67874380246914E-0002	
 3.81050000000000E+0003	 7.67060667489712E-0002	
 3.81250000000000E+0003	 7.64996954732510E-0002	
 3.81450000000000E+0003	 7.62233241975309E-0002	
 3.81650000000000E+0003	 7.59139529218107E-0002	
 3.81850000000000E+0003	 7.58100816460905E-0002	
 3.82050000000000E+0003	 7.57842103703704E-0002	
 3.82250000000000E+0003	 7.55893390946502E-0002	
 3.82450000000000E+0003	 7.54724678189300E-0002	
 3.82650000000000E+0003	 7.53785965432099E-0002	
 3.82850000000000E+0003	 7.52357252674897E-0002	
 3.83050000000000E+0003	 7.51308539917695E-0002	
 3.83250000000000E+0003	 7.50499827160494E-0002	
 3.83450000000000E+0003	 7.49781114403292E-0002	
 3.83650000000000E+0003	 7.48012401646091E-0002	
 3.83850000000000E+0003	 7.45043688888889E-0002	
 3.84050000000000E+0003	 7.43209976131687E-0002	
 3.84250000000000E+0003	 7.42541263374486E-0002	
 3.84450000000000E+0003	 7.42192550617284E-0002	
 3.84650000000000E+0003	 7.41008837860082E-0002	
 3.84850000000000E+0003	 7.38605125102881E-0002	
 3.85050000000000E+0003	 7.36101412345679E-0002	
 3.85250000000000E+0003	 7.37257699588477E-0002	
 3.85450000000000E+0003	 7.39178986831276E-0002	
 3.85650000000000E+0003	 7.37415274074074E-0002	
 3.85850000000000E+0003	 7.34331561316872E-0002	
 3.86050000000000E+0003	 7.32347848559671E-0002	
 3.86250000000000E+0003	 7.32169135802469E-0002	
 3.86450000000000E+0003	 7.31385423045267E-0002	
 3.86650000000000E+0003	 7.29631710288066E-0002	
 3.86850000000000E+0003	 7.28527997530864E-0002	
 3.87050000000000E+0003	 7.27519284773663E-0002	
 3.87250000000000E+0003	 7.27310572016461E-0002	
 3.87450000000000E+0003	 7.26836859259259E-0002	
 3.87650000000000E+0003	 7.25178146502058E-0002	
 3.87850000000000E+0003	 7.24454433744856E-0002	
 3.88050000000000E+0003	 7.23630720987654E-0002	
 3.88250000000000E+0003	 7.21902008230453E-0002	
 3.88450000000000E+0003	 7.21048295473251E-0002	
 3.88650000000000E+0003	 7.20074582716049E-0002	
 3.88850000000000E+0003	 7.20070869958848E-0002	
 3.89050000000000E+0003	 7.21592157201646E-0002	
 3.89250000000000E+0003	 7.21333444444444E-0002	
 3.89450000000000E+0003	 7.18754731687243E-0002	
 3.89650000000000E+0003	 7.16836018930041E-0002	
 3.89850000000000E+0003	 7.15457306172840E-0002	
 3.90050000000000E+0003	 7.12898593415638E-0002	
 3.90250000000000E+0003	 7.12409880658436E-0002	
 3.90450000000000E+0003	 7.14801167901235E-0002	
 3.90650000000000E+0003	 7.15127455144033E-0002	
 3.90850000000000E+0003	 7.13808742386831E-0002	
 3.91050000000000E+0003	 7.12955029629630E-0002	
 3.91250000000000E+0003	 7.11911316872428E-0002	
 3.91450000000000E+0003	 7.10342604115226E-0002	
 3.91650000000000E+0003	 7.08913891358025E-0002	
 3.91850000000000E+0003	 7.08195178600823E-0002	
 3.92050000000000E+0003	 7.08106465843621E-0002	
 3.92250000000000E+0003	 7.08117753086420E-0002	
 3.92450000000000E+0003	 7.08279040329218E-0002	
 3.92650000000000E+0003	 7.07460327572016E-0002	
 3.92850000000000E+0003	 7.05866614814815E-0002	
 3.93050000000000E+0003	 7.04427902057613E-0002	
 3.93250000000000E+0003	 7.03409189300412E-0002	
 3.93450000000000E+0003	 7.03200476543210E-0002	
 3.93650000000000E+0003	 7.03296763786008E-0002	
 3.93850000000000E+0003	 7.02798051028807E-0002	
 3.94050000000000E+0003	 7.02259338271605E-0002	
 3.94250000000000E+0003	 7.01800625514403E-0002	
 3.94450000000000E+0003	 7.00346912757202E-0002	
 3.94650000000000E+0003	 6.98733200000000E-0002	
 3.94850000000000E+0003	 6.98389487242798E-0002	
 3.95050000000000E+0003	 6.98525774485597E-0002	
 3.95250000000000E+0003	 6.98252061728395E-0002	
 3.95450000000000E+0003	 6.97533348971193E-0002	
 3.95650000000000E+0003	 6.96829636213992E-0002	
 3.95850000000000E+0003	 6.95960923456790E-0002	
 3.96050000000000E+0003	 6.95097210699588E-0002	
 3.96250000000000E+0003	 6.94343497942387E-0002	
 3.96450000000000E+0003	 6.93869785185185E-0002	
 3.96650000000000E+0003	 6.93356072427984E-0002	
 3.96850000000000E+0003	 6.92777359670782E-0002	
 3.97050000000000E+0003	 6.92083646913580E-0002	
 3.97250000000000E+0003	 6.91394934156379E-0002	
 3.97450000000000E+0003	 6.90581221399177E-0002	
 3.97650000000000E+0003	 6.89877508641975E-0002	
 3.97850000000000E+0003	 6.89263795884774E-0002	
 3.98050000000000E+0003	 6.88830083127572E-0002	
 3.98250000000000E+0003	 6.88356370370370E-0002	
 3.98450000000000E+0003	 6.87827657613169E-0002	
 3.98650000000000E+0003	 6.86988944855967E-0002	
 3.98850000000000E+0003	 6.86240232098765E-0002	
 3.99050000000000E+0003	 6.85581519341564E-0002	
 3.99250000000000E+0003	 6.85012806584362E-0002	
 3.99450000000000E+0003	 6.84384093827160E-0002	
 3.99650000000000E+0003	 6.83805381069959E-0002	
 3.99850000000000E+0003	 6.83116668312757E-0002	

>1	DATALINE
