*CPCWIN*

>1	DATALINE
DATALINE
1
Operator:

Description:

Remarks:





15.9.2008
10:41


_x	_y
	
	
UNIT	UNIT
 4.50500000000000E+0002	 2.17634502958703E-0001	
 4.52500000000000E+0002	 2.18014280649578E-0001	
 4.54500000000000E+0002	 2.18755558340454E-0001	
 4.56500000000000E+0002	 2.19169336031329E-0001	
 4.58500000000000E+0002	 2.19339113722204E-0001	
 4.60500000000000E+0002	 2.20742891413079E-0001	
 4.62500000000000E+0002	 2.22210169103954E-0001	
 4.64500000000000E+0002	 2.23574446794830E-0001	
 4.66500000000000E+0002	 2.24511224485705E-0001	
 4.68500000000000E+0002	 2.25241002176580E-0001	
 4.70500000000000E+0002	 2.26203779867455E-0001	
 4.72500000000000E+0002	 2.26985557558331E-0001	
 4.74500000000000E+0002	 2.28044835249206E-0001	
 4.76500000000000E+0002	 2.29531612940081E-0001	
 4.78500000000000E+0002	 2.30882890630956E-0001	
 4.80500000000000E+0002	 2.32104168321832E-0001	
 4.82500000000000E+0002	 2.33342446012707E-0001	
 4.84500000000000E+0002	 2.34588723703582E-0001	
 4.86500000000000E+0002	 2.35909501394457E-0001	
 4.88500000000000E+0002	 2.37652779085332E-0001	
 4.90500000000000E+0002	 2.39283056776208E-0001	
 4.92500000000000E+0002	 2.40730834467083E-0001	
 4.94500000000000E+0002	 2.42398612157958E-0001	
 4.96500000000000E+0002	 2.44237889848833E-0001	
 4.98500000000000E+0002	 2.45966667539709E-0001	
 5.00500000000000E+0002	 2.47302945230584E-0001	
 5.02500000000000E+0002	 2.48475222921459E-0001	
 5.04500000000000E+0002	 2.50203500612334E-0001	
 5.06500000000000E+0002	 2.51930278303210E-0001	
 5.08500000000000E+0002	 2.53353555994085E-0001	
 5.10500000000000E+0002	 2.54902833684960E-0001	
 5.12500000000000E+0002	 2.56605111375835E-0001	
 5.14500000000000E+0002	 2.58288889066710E-0001	
 5.16500000000000E+0002	 2.59869666757586E-0001	
 5.18500000000000E+0002	 2.61600944448461E-0001	
 5.20500000000000E+0002	 2.63482222139336E-0001	
 5.22500000000000E+0002	 2.65314999830211E-0001	
 5.24500000000000E+0002	 2.66634277521087E-0001	
 5.26500000000000E+0002	 2.67723055211962E-0001	
 5.28500000000000E+0002	 2.69312332902837E-0001	
 5.30500000000000E+0002	 2.70958110593712E-0001	
 5.32500000000000E+0002	 2.71974388284588E-0001	
 5.34500000000000E+0002	 2.72476165975463E-0001	
 5.36500000000000E+0002	 2.72634443666338E-0001	
 5.38500000000000E+0002	 2.72595221357213E-0001	
 5.40500000000000E+0002	 2.72443499048089E-0001	
 5.42500000000000E+0002	 2.72292276738964E-0001	
 5.44500000000000E+0002	 2.72175554429839E-0001	
 5.46500000000000E+0002	 2.72082832120714E-0001	
 5.48500000000000E+0002	 2.72074609811589E-0001	
 5.50500000000000E+0002	 2.72157887502465E-0001	
 5.52500000000000E+0002	 2.72129665193340E-0001	
 5.54500000000000E+0002	 2.71922942884215E-0001	
 5.56500000000000E+0002	 2.71484720575090E-0001	
 5.58500000000000E+0002	 2.70839998265966E-0001	
 5.60500000000000E+0002	 2.69956275956841E-0001	
 5.62500000000000E+0002	 2.68949053647716E-0001	
 5.64500000000000E+0002	 2.68010831338591E-0001	
 5.66500000000000E+0002	 2.67246609029467E-0001	
 5.68500000000000E+0002	 2.66523386720342E-0001	
 5.70500000000000E+0002	 2.65893664411217E-0001	
 5.72500000000000E+0002	 2.65387442102092E-0001	
 5.74500000000000E+0002	 2.64975219792967E-0001	
 5.76500000000000E+0002	 2.64604497483843E-0001	
 5.78500000000000E+0002	 2.64431775174718E-0001	
 5.80500000000000E+0002	 2.64188552865593E-0001	
 5.82500000000000E+0002	 2.63826330556468E-0001	
 5.84500000000000E+0002	 2.63471108247344E-0001	
 5.86500000000000E+0002	 2.63129385938219E-0001	
 5.88500000000000E+0002	 2.62873163629094E-0001	
 5.90500000000000E+0002	 2.62640941319969E-0001	
 5.92500000000000E+0002	 2.62555219010845E-0001	
 5.94500000000000E+0002	 2.62829996701720E-0001	
 5.96500000000000E+0002	 2.63267274392595E-0001	
 5.98500000000000E+0002	 2.63639552083470E-0001	
 6.00500000000000E+0002	 2.63883829774345E-0001	
 6.02500000000000E+0002	 2.64095607465221E-0001	
 6.04500000000000E+0002	 2.64110885156096E-0001	
 6.06500000000000E+0002	 2.63864662846971E-0001	
 6.08500000000000E+0002	 2.63400940537846E-0001	
 6.10500000000000E+0002	 2.62835218228722E-0001	
 6.12500000000000E+0002	 2.62236495919597E-0001	
 6.14500000000000E+0002	 2.61689273610472E-0001	
 6.16500000000000E+0002	 2.61160051301347E-0001	
 6.18500000000000E+0002	 2.60550328992223E-0001	
 6.20500000000000E+0002	 2.59861606683098E-0001	
 6.22500000000000E+0002	 2.59215384373973E-0001	
 6.24500000000000E+0002	 2.58527662064848E-0001	
 6.26500000000000E+0002	 2.57806939755724E-0001	
 6.28500000000000E+0002	 2.57158717446599E-0001	
 6.30500000000000E+0002	 2.56498995137474E-0001	
 6.32500000000000E+0002	 2.55754272828349E-0001	
 6.34500000000000E+0002	 2.54894550519224E-0001	
 6.36500000000000E+0002	 2.54095828210100E-0001	
 6.38500000000000E+0002	 2.53433605900975E-0001	
 6.40500000000000E+0002	 2.52769883591850E-0001	
 6.42500000000000E+0002	 2.52037661282725E-0001	
 6.44500000000000E+0002	 2.51225938973601E-0001	
 6.46500000000000E+0002	 2.50422716664476E-0001	
 6.48500000000000E+0002	 2.49632994355351E-0001	
 6.50500000000000E+0002	 2.48796772046226E-0001	
 6.52500000000000E+0002	 2.47968049737102E-0001	
 6.54500000000000E+0002	 2.47217827427977E-0001	
 6.56500000000000E+0002	 2.46552605118852E-0001	
 6.58500000000000E+0002	 2.45960882809727E-0001	
 6.60500000000000E+0002	 2.45439160500602E-0001	
 6.62500000000000E+0002	 2.44918938191478E-0001	
 6.64500000000000E+0002	 2.44119215882353E-0001	
 6.66500000000000E+0002	 2.42682493573228E-0001	
 6.68500000000000E+0002	 2.41604271264103E-0001	
 6.70500000000000E+0002	 2.41549548954979E-0001	
 6.72500000000000E+0002	 2.40955826645854E-0001	
 6.74500000000000E+0002	 2.39989104336729E-0001	
 6.76500000000000E+0002	 2.38947882027604E-0001	
 6.78500000000000E+0002	 2.37909159718480E-0001	
 6.80500000000000E+0002	 2.36935937409355E-0001	
 6.82500000000000E+0002	 2.36017715100230E-0001	
 6.84500000000000E+0002	 2.35158492791105E-0001	
 6.86500000000000E+0002	 2.34399270481981E-0001	
 6.88500000000000E+0002	 2.33692548172856E-0001	
 6.90500000000000E+0002	 2.33097325863731E-0001	
 6.92500000000000E+0002	 2.32646103554606E-0001	
 6.94500000000000E+0002	 2.32256381245481E-0001	
 6.96500000000000E+0002	 2.31933158936357E-0001	
 6.98500000000000E+0002	 2.31608436627232E-0001	
 7.00500000000000E+0002	 2.31157214318107E-0001	
 7.02500000000000E+0002	 2.30449992008982E-0001	
 7.04500000000000E+0002	 2.29510769699858E-0001	
 7.06500000000000E+0002	 2.28470047390733E-0001	
 7.08500000000000E+0002	 2.27464325081608E-0001	
 7.10500000000000E+0002	 2.26519602772483E-0001	
 7.12500000000000E+0002	 2.25518880463359E-0001	
 7.14500000000000E+0002	 2.24193158154234E-0001	
 7.16500000000000E+0002	 2.22690935845109E-0001	
 7.18500000000000E+0002	 2.21254213535984E-0001	
 7.20500000000000E+0002	 2.19743491226859E-0001	
 7.22500000000000E+0002	 2.17934268917735E-0001	
 7.24500000000000E+0002	 2.15850046608610E-0001	
 7.26500000000000E+0002	 2.13472324299485E-0001	
 7.28500000000000E+0002	 2.10880601990360E-0001	
 7.30500000000000E+0002	 2.08297879681236E-0001	
 7.32500000000000E+0002	 2.05948657372111E-0001	
 7.34500000000000E+0002	 2.03947935062986E-0001	
 7.36500000000000E+0002	 2.02250212753861E-0001	
 7.38500000000000E+0002	 2.00808990444737E-0001	
 7.40500000000000E+0002	 1.99537268135612E-0001	
 7.42500000000000E+0002	 1.98358045826487E-0001	
 7.44500000000000E+0002	 1.97238323517362E-0001	
 7.46500000000000E+0002	 1.96190601208237E-0001	
 7.48500000000000E+0002	 1.95259878899113E-0001	
 7.50500000000000E+0002	 1.94441156589988E-0001	
 7.52500000000000E+0002	 1.93813434280863E-0001	
 7.54500000000000E+0002	 1.93449211971738E-0001	
 7.56500000000000E+0002	 1.93397989662614E-0001	
 7.58500000000000E+0002	 1.93595267353489E-0001	
 7.60500000000000E+0002	 1.94051545044364E-0001	
 7.62500000000000E+0002	 1.94607822735239E-0001	
 7.64500000000000E+0002	 1.94803100426115E-0001	
 7.66500000000000E+0002	 1.93957878116990E-0001	
 7.68500000000000E+0002	 1.91933155807865E-0001	
 7.70500000000000E+0002	 1.89363433498740E-0001	
 7.72500000000000E+0002	 1.87176711189616E-0001	
 7.74500000000000E+0002	 1.86018988880491E-0001	
 7.76500000000000E+0002	 1.86274266571366E-0001	
 7.78500000000000E+0002	 1.87407044262241E-0001	
 7.80500000000000E+0002	 1.87672321953116E-0001	
 7.82500000000000E+0002	 1.86322599643992E-0001	
 7.84500000000000E+0002	 1.84373377334867E-0001	
 7.86500000000000E+0002	 1.82547155025742E-0001	
 7.88500000000000E+0002	 1.80719932716617E-0001	
 7.90500000000000E+0002	 1.78970710407493E-0001	
 7.92500000000000E+0002	 1.77848988098368E-0001	
 7.94500000000000E+0002	 1.77417765789243E-0001	
 7.96500000000000E+0002	 1.76911043480118E-0001	
 7.98500000000000E+0002	 1.75694821170994E-0001	
 8.00500000000000E+0002	 1.74083598861869E-0001	
 8.02500000000000E+0002	 1.72616376552744E-0001	
 8.04500000000000E+0002	 1.71608154243619E-0001	
 8.06500000000000E+0002	 1.70971931934494E-0001	
 8.08500000000000E+0002	 1.70537709625370E-0001	
 8.10500000000000E+0002	 1.70021487316245E-0001	
 8.12500000000000E+0002	 1.69275265007120E-0001	
 8.14500000000000E+0002	 1.68220542697995E-0001	
 8.16500000000000E+0002	 1.66992820388871E-0001	
 8.18500000000000E+0002	 1.65704598079746E-0001	
 8.20500000000000E+0002	 1.64572375770621E-0001	
 8.22500000000000E+0002	 1.63696153461496E-0001	
 8.24500000000000E+0002	 1.63133431152372E-0001	
 8.26500000000000E+0002	 1.62766708843247E-0001	
 8.28500000000000E+0002	 1.62588986534122E-0001	
 8.30500000000000E+0002	 1.62584764224997E-0001	
 8.32500000000000E+0002	 1.62778041915872E-0001	
 8.34500000000000E+0002	 1.63061819606748E-0001	
 8.36500000000000E+0002	 1.63371597297623E-0001	
 8.38500000000000E+0002	 1.63613374988498E-0001	
 8.40500000000000E+0002	 1.63790152679373E-0001	
 8.42500000000000E+0002	 1.63852430370249E-0001	
 8.44500000000000E+0002	 1.63856208061124E-0001	
 8.46500000000000E+0002	 1.63877485751999E-0001	
 8.48500000000000E+0002	 1.64023263442874E-0001	
 8.50500000000000E+0002	 1.64327541133750E-0001	
 8.52500000000000E+0002	 1.64809818824625E-0001	
 8.54500000000000E+0002	 1.65405596515500E-0001	
 8.56500000000000E+0002	 1.65952374206375E-0001	
 8.58500000000000E+0002	 1.66209151897251E-0001	
 8.60500000000000E+0002	 1.65980429588126E-0001	
 8.62500000000000E+0002	 1.65154207279001E-0001	
 8.64500000000000E+0002	 1.63788484969876E-0001	
 8.66500000000000E+0002	 1.62054262660751E-0001	
 8.68500000000000E+0002	 1.60546040351627E-0001	
 8.70500000000000E+0002	 1.60078318042502E-0001	
 8.72500000000000E+0002	 1.59977595733377E-0001	
 8.74500000000000E+0002	 1.58614873424252E-0001	
 8.76500000000000E+0002	 1.56641651115128E-0001	
 8.78500000000000E+0002	 1.55213928806003E-0001	
 8.80500000000000E+0002	 1.54418706496878E-0001	
 8.82500000000000E+0002	 1.53939984187753E-0001	
 8.84500000000000E+0002	 1.53558261878629E-0001	
 8.86500000000000E+0002	 1.53134539569504E-0001	
 8.88500000000000E+0002	 1.52662317260379E-0001	
 8.90500000000000E+0002	 1.52102094951254E-0001	
 8.92500000000000E+0002	 1.51491872642129E-0001	
 8.94500000000000E+0002	 1.50824650333005E-0001	
 8.96500000000000E+0002	 1.50219428023880E-0001	
 8.98500000000000E+0002	 1.49796205714755E-0001	
 9.00500000000000E+0002	 1.49790983405630E-0001	
 9.02500000000000E+0002	 1.50382761096506E-0001	
 9.04500000000000E+0002	 1.51795538787381E-0001	
 9.06500000000000E+0002	 1.54021316478256E-0001	
 9.08500000000000E+0002	 1.56865094169131E-0001	
 9.10500000000000E+0002	 1.59847371860007E-0001	
 9.12500000000000E+0002	 1.62452649550882E-0001	
 9.14500000000000E+0002	 1.64138927241757E-0001	
 9.16500000000000E+0002	 1.64624204932632E-0001	
 9.18500000000000E+0002	 1.63906482623508E-0001	
 9.20500000000000E+0002	 1.62274760314383E-0001	
 9.22500000000000E+0002	 1.60113038005258E-0001	
 9.24500000000000E+0002	 1.57777815696133E-0001	
 9.26500000000000E+0002	 1.55522093387008E-0001	
 9.28500000000000E+0002	 1.53505871077884E-0001	
 9.30500000000000E+0002	 1.51809148768759E-0001	
 9.32500000000000E+0002	 1.50435926459634E-0001	
 9.34500000000000E+0002	 1.49351204150509E-0001	
 9.36500000000000E+0002	 1.48529981841385E-0001	
 9.38500000000000E+0002	 1.47967259532260E-0001	
 9.40500000000000E+0002	 1.47685537223135E-0001	
 9.42500000000000E+0002	 1.47750814914010E-0001	
 9.44500000000000E+0002	 1.48243092604886E-0001	
 9.46500000000000E+0002	 1.49164370295761E-0001	
 9.48500000000000E+0002	 1.50501147986636E-0001	
 9.50500000000000E+0002	 1.52232425677511E-0001	
 9.52500000000000E+0002	 1.54453203368386E-0001	
 9.54500000000000E+0002	 1.57217981059262E-0001	
 9.56500000000000E+0002	 1.60551758750137E-0001	
 9.58500000000000E+0002	 1.64339036441012E-0001	
 9.60500000000000E+0002	 1.68408814131887E-0001	
 9.62500000000000E+0002	 1.72515591822763E-0001	
 9.64500000000000E+0002	 1.76469369513638E-0001	
 9.66500000000000E+0002	 1.80110647204513E-0001	
 9.68500000000000E+0002	 1.83398924895388E-0001	
 9.70500000000000E+0002	 1.86412202586264E-0001	
 9.72500000000000E+0002	 1.89431980277139E-0001	
 9.74500000000000E+0002	 1.92871757968014E-0001	
 9.76500000000000E+0002	 1.97324035658889E-0001	
 9.78500000000000E+0002	 2.03324813349764E-0001	
 9.80500000000000E+0002	 2.11191591040640E-0001	
 9.82500000000000E+0002	 2.20710868731515E-0001	
 9.84500000000000E+0002	 2.31196146422390E-0001	
 9.86500000000000E+0002	 2.41593924113265E-0001	
 9.88500000000000E+0002	 2.50971201804141E-0001	
 9.90500000000000E+0002	 2.58770979495016E-0001	
 9.92500000000000E+0002	 2.65126257185891E-0001	
 9.94500000000000E+0002	 2.70627534876766E-0001	
 9.96500000000000E+0002	 2.76166812567642E-0001	
 9.98500000000000E+0002	 2.82492590258517E-0001	
 1.00050000000000E+0003	 2.90037867949392E-0001	
 1.00250000000000E+0003	 2.98690645640267E-0001	
 1.00450000000000E+0003	 3.08012923331143E-0001	
 1.00650000000000E+0003	 3.17525701022018E-0001	
 1.00850000000000E+0003	 3.26875478712893E-0001	
 1.01050000000000E+0003	 3.35847756403768E-0001	
 1.01250000000000E+0003	 3.44366034094643E-0001	
 1.01450000000000E+0003	 3.52368811785519E-0001	
 1.01650000000000E+0003	 3.59629089476394E-0001	
 1.01850000000000E+0003	 3.65872367167269E-0001	
 1.02050000000000E+0003	 3.70916644858144E-0001	
 1.02250000000000E+0003	 3.74858922549020E-0001	
 1.02450000000000E+0003	 3.78052700239895E-0001	
 1.02650000000000E+0003	 3.80975977930770E-0001	
 1.02850000000000E+0003	 3.83916255621645E-0001	
 1.03050000000000E+0003	 3.86929533312521E-0001	
 1.03250000000000E+0003	 3.89873811003396E-0001	
 1.03450000000000E+0003	 3.92587588694271E-0001	
 1.03650000000000E+0003	 3.94879866385146E-0001	
 1.03850000000000E+0003	 3.96661644076021E-0001	
 1.04050000000000E+0003	 3.98049421766897E-0001	
 1.04250000000000E+0003	 3.99392699457772E-0001	
 1.04450000000000E+0003	 4.01123977148647E-0001	
 1.04650000000000E+0003	 4.03573254839522E-0001	
 1.04850000000000E+0003	 4.06731532530398E-0001	
 1.05050000000000E+0003	 4.10205310221273E-0001	
 1.05250000000000E+0003	 4.13189087912148E-0001	
 1.05450000000000E+0003	 4.14885365603023E-0001	
 1.05650000000000E+0003	 4.14911143293899E-0001	
 1.05850000000000E+0003	 4.13377920984774E-0001	
 1.06050000000000E+0003	 4.10835698675649E-0001	
 1.06250000000000E+0003	 4.08200976366524E-0001	
 1.06450000000000E+0003	 4.06526254057399E-0001	
 1.06650000000000E+0003	 4.06640031748275E-0001	
 1.06850000000000E+0003	 4.08795809439150E-0001	
 1.07050000000000E+0003	 4.12654087130025E-0001	
 1.07250000000000E+0003	 4.17449864820900E-0001	
 1.07450000000000E+0003	 4.22301142511776E-0001	
 1.07650000000000E+0003	 4.26377420202651E-0001	
 1.07850000000000E+0003	 4.29064697893526E-0001	
 1.08050000000000E+0003	 4.29950975584401E-0001	
 1.08250000000000E+0003	 4.28806253275277E-0001	
 1.08450000000000E+0003	 4.25391530966152E-0001	
 1.08650000000000E+0003	 4.19542808657027E-0001	
 1.08850000000000E+0003	 4.11394086347902E-0001	
 1.09050000000000E+0003	 4.01825864038778E-0001	
 1.09250000000000E+0003	 3.92429141729653E-0001	
 1.09450000000000E+0003	 3.84598919420528E-0001	
 1.09650000000000E+0003	 3.78766697111403E-0001	
 1.09850000000000E+0003	 3.74363974802278E-0001	
 1.10050000000000E+0003	 3.70515252493154E-0001	
 1.10250000000000E+0003	 3.66540030184029E-0001	
 1.10450000000000E+0003	 3.62166307874904E-0001	
 1.10650000000000E+0003	 3.57529085565779E-0001	
 1.10850000000000E+0003	 3.53029863256655E-0001	
 1.11050000000000E+0003	 3.49019640947530E-0001	
 1.11250000000000E+0003	 3.45579418638405E-0001	
 1.11450000000000E+0003	 3.42458196329280E-0001	
 1.11650000000000E+0003	 3.39247474020156E-0001	
 1.11850000000000E+0003	 3.35657751711031E-0001	
 1.12050000000000E+0003	 3.31538529401906E-0001	
 1.12250000000000E+0003	 3.26850807092781E-0001	
 1.12450000000000E+0003	 3.21690084783656E-0001	
 1.12650000000000E+0003	 3.16243362474532E-0001	
 1.12850000000000E+0003	 3.10686140165407E-0001	
 1.13050000000000E+0003	 3.05150417856282E-0001	
 1.13250000000000E+0003	 2.99803695547157E-0001	
 1.13450000000000E+0003	 2.94838973238033E-0001	
 1.13650000000000E+0003	 2.90373250928908E-0001	
 1.13850000000000E+0003	 2.86600028619783E-0001	
 1.14050000000000E+0003	 2.83744806310658E-0001	
 1.14250000000000E+0003	 2.81887584001534E-0001	
 1.14450000000000E+0003	 2.80888861692409E-0001	
 1.14650000000000E+0003	 2.80331639383284E-0001	
 1.14850000000000E+0003	 2.79621417074159E-0001	
 1.15050000000000E+0003	 2.78144194765035E-0001	
 1.15250000000000E+0003	 2.75497972455910E-0001	
 1.15450000000000E+0003	 2.71656250146785E-0001	
 1.15650000000000E+0003	 2.66968027837660E-0001	
 1.15850000000000E+0003	 2.61815805528535E-0001	
 1.16050000000000E+0003	 2.56406583219411E-0001	
 1.16250000000000E+0003	 2.50711860910286E-0001	
 1.16450000000000E+0003	 2.44669638601161E-0001	
 1.16650000000000E+0003	 2.38338416292036E-0001	
 1.16850000000000E+0003	 2.31974693982912E-0001	
 1.17050000000000E+0003	 2.25795471673787E-0001	
 1.17250000000000E+0003	 2.19882249364662E-0001	
 1.17450000000000E+0003	 2.14201027055537E-0001	
 1.17650000000000E+0003	 2.08865804746413E-0001	
 1.17850000000000E+0003	 2.04068082437288E-0001	
 1.18050000000000E+0003	 2.00029360128163E-0001	
 1.18250000000000E+0003	 1.96922137819038E-0001	
 1.18450000000000E+0003	 1.94897415509913E-0001	
 1.18650000000000E+0003	 1.93957193200789E-0001	
 1.18850000000000E+0003	 1.94083970891664E-0001	
 1.19050000000000E+0003	 1.95241248582539E-0001	
 1.19250000000000E+0003	 1.97365526273414E-0001	
 1.19450000000000E+0003	 2.00313303964290E-0001	
 1.19650000000000E+0003	 2.03925581655165E-0001	
 1.19850000000000E+0003	 2.07972359346040E-0001	
 1.20050000000000E+0003	 2.12233637036915E-0001	
 1.20250000000000E+0003	 2.16500914727791E-0001	
 1.20450000000000E+0003	 2.20632192418666E-0001	
 1.20650000000000E+0003	 2.24529970109541E-0001	
 1.20850000000000E+0003	 2.28180247800416E-0001	
 1.21050000000000E+0003	 2.31616025491291E-0001	
 1.21250000000000E+0003	 2.34945303182167E-0001	
 1.21450000000000E+0003	 2.38172080873042E-0001	
 1.21650000000000E+0003	 2.41401858563917E-0001	
 1.21850000000000E+0003	 2.44800636254792E-0001	
 1.22050000000000E+0003	 2.48126413945668E-0001	
 1.22250000000000E+0003	 2.50788191636543E-0001	
 1.22450000000000E+0003	 2.52856969327418E-0001	
 1.22650000000000E+0003	 2.54737247018293E-0001	
 1.22850000000000E+0003	 2.56674524709169E-0001	
 1.23050000000000E+0003	 2.58678802400044E-0001	
 1.23250000000000E+0003	 2.60657080090919E-0001	
 1.23450000000000E+0003	 2.62476357781794E-0001	
 1.23650000000000E+0003	 2.63976135472670E-0001	
 1.23850000000000E+0003	 2.65014913163545E-0001	
 1.24050000000000E+0003	 2.65516690854420E-0001	
 1.24250000000000E+0003	 2.65435968545295E-0001	
 1.24450000000000E+0003	 2.64736246236170E-0001	
 1.24650000000000E+0003	 2.63435523927046E-0001	
 1.24850000000000E+0003	 2.61594301617921E-0001	
 1.25050000000000E+0003	 2.59282079308796E-0001	
 1.25250000000000E+0003	 2.56587356999671E-0001	
 1.25450000000000E+0003	 2.53614634690547E-0001	
 1.25650000000000E+0003	 2.50492912381422E-0001	
 1.25850000000000E+0003	 2.47327690072297E-0001	
 1.26050000000000E+0003	 2.44177467763172E-0001	
 1.26250000000000E+0003	 2.41114245454048E-0001	
 1.26450000000000E+0003	 2.38249023144923E-0001	
 1.26650000000000E+0003	 2.35548300835798E-0001	
 1.26850000000000E+0003	 2.33039078526673E-0001	
 1.27050000000000E+0003	 2.30744356217548E-0001	
 1.27250000000000E+0003	 2.28671633908424E-0001	
 1.27450000000000E+0003	 2.26842411599299E-0001	
 1.27650000000000E+0003	 2.25287689290174E-0001	
 1.27850000000000E+0003	 2.23956466981049E-0001	
 1.28050000000000E+0003	 2.22811744671925E-0001	
 1.28250000000000E+0003	 2.21754522362800E-0001	
 1.28450000000000E+0003	 2.20752300053675E-0001	
 1.28650000000000E+0003	 2.19798077744550E-0001	
 1.28850000000000E+0003	 2.18974355435426E-0001	
 1.29050000000000E+0003	 2.18434633126301E-0001	
 1.29250000000000E+0003	 2.18231410817176E-0001	
 1.29450000000000E+0003	 2.18251188508051E-0001	
 1.29650000000000E+0003	 2.18480966198926E-0001	
 1.29850000000000E+0003	 2.18982743889802E-0001	
 1.30050000000000E+0003	 2.19739521580677E-0001	
 1.30250000000000E+0003	 2.20565299271552E-0001	
 1.30450000000000E+0003	 2.21320076962427E-0001	
 1.30650000000000E+0003	 2.21978354653303E-0001	
 1.30850000000000E+0003	 2.22544632344178E-0001	
 1.31050000000000E+0003	 2.22991910035053E-0001	
 1.31250000000000E+0003	 2.23181687725928E-0001	
 1.31450000000000E+0003	 2.23026965416804E-0001	
 1.31650000000000E+0003	 2.22643743107679E-0001	
 1.31850000000000E+0003	 2.22011520798554E-0001	
 1.32050000000000E+0003	 2.21133798489429E-0001	
 1.32250000000000E+0003	 2.20323076180305E-0001	
 1.32450000000000E+0003	 2.19761853871180E-0001	
 1.32650000000000E+0003	 2.19416631562055E-0001	
 1.32850000000000E+0003	 2.19362909252930E-0001	
 1.33050000000000E+0003	 2.19589686943805E-0001	
 1.33250000000000E+0003	 2.20049464634681E-0001	
 1.33450000000000E+0003	 2.20550742325556E-0001	
 1.33650000000000E+0003	 2.20765520016431E-0001	
 1.33850000000000E+0003	 2.20449797707306E-0001	
 1.34050000000000E+0003	 2.19827575398182E-0001	
 1.34250000000000E+0003	 2.19452853089057E-0001	
 1.34450000000000E+0003	 2.19275130779932E-0001	
 1.34650000000000E+0003	 2.18733408470807E-0001	
 1.34850000000000E+0003	 2.18094686161683E-0001	
 1.35050000000000E+0003	 2.17668963852558E-0001	
 1.35250000000000E+0003	 2.17528241543433E-0001	
 1.35450000000000E+0003	 2.17699019234308E-0001	
 1.35650000000000E+0003	 2.18073796925183E-0001	
 1.35850000000000E+0003	 2.18610574616059E-0001	
 1.36050000000000E+0003	 2.19134352306934E-0001	
 1.36250000000000E+0003	 2.19827629997809E-0001	
 1.36450000000000E+0003	 2.21454407688684E-0001	
 1.36650000000000E+0003	 2.24640685379560E-0001	
 1.36850000000000E+0003	 2.28252963070435E-0001	
 1.37050000000000E+0003	 2.30974740761310E-0001	
 1.37250000000000E+0003	 2.33280518452185E-0001	
 1.37450000000000E+0003	 2.35596796143061E-0001	
 1.37650000000000E+0003	 2.37618573833936E-0001	
 1.37850000000000E+0003	 2.39636351524811E-0001	
 1.38050000000000E+0003	 2.41623629215686E-0001	
 1.38250000000000E+0003	 2.43639406906562E-0001	
 1.38450000000000E+0003	 2.45408184597437E-0001	
 1.38650000000000E+0003	 2.46122462288312E-0001	
 1.38850000000000E+0003	 2.46682739979187E-0001	
 1.39050000000000E+0003	 2.48404017670062E-0001	
 1.39250000000000E+0003	 2.50575295360938E-0001	
 1.39450000000000E+0003	 2.52307073051813E-0001	
 1.39650000000000E+0003	 2.53898850742688E-0001	
 1.39850000000000E+0003	 2.55548628433563E-0001	
 1.40050000000000E+0003	 2.57259406124439E-0001	
 1.40250000000000E+0003	 2.58281183815314E-0001	
 1.40450000000000E+0003	 2.58745461506189E-0001	
 1.40650000000000E+0003	 2.58045739197064E-0001	
 1.40850000000000E+0003	 2.57206016887940E-0001	
 1.41050000000000E+0003	 2.56350294578815E-0001	
 1.41250000000000E+0003	 2.55120572269690E-0001	
 1.41450000000000E+0003	 2.53847849960565E-0001	
 1.41650000000000E+0003	 2.52060127651440E-0001	
 1.41850000000000E+0003	 2.48762405342316E-0001	
 1.42050000000000E+0003	 2.45649183033191E-0001	
 1.42250000000000E+0003	 2.44477960724066E-0001	
 1.42450000000000E+0003	 2.43554738414941E-0001	
 1.42650000000000E+0003	 2.41322016105817E-0001	
 1.42850000000000E+0003	 2.39459793796692E-0001	
 1.43050000000000E+0003	 2.38090071487567E-0001	
 1.43250000000000E+0003	 2.37264849178442E-0001	
 1.43450000000000E+0003	 2.36850626869318E-0001	
 1.43650000000000E+0003	 2.36578904560193E-0001	
 1.43850000000000E+0003	 2.37396182251068E-0001	
 1.44050000000000E+0003	 2.40015959941943E-0001	
 1.44250000000000E+0003	 2.42818237632818E-0001	
 1.44450000000000E+0003	 2.44414515323694E-0001	
 1.44650000000000E+0003	 2.45540293014569E-0001	
 1.44850000000000E+0003	 2.46570070705444E-0001	
 1.45050000000000E+0003	 2.47480848396319E-0001	
 1.45250000000000E+0003	 2.48705126087195E-0001	
 1.45450000000000E+0003	 2.48194903778070E-0001	
 1.45650000000000E+0003	 2.45045681468945E-0001	
 1.45850000000000E+0003	 2.41242959159820E-0001	
 1.46050000000000E+0003	 2.39182236850696E-0001	
 1.46250000000000E+0003	 2.37937514541571E-0001	
 1.46450000000000E+0003	 2.35193792232446E-0001	
 1.46650000000000E+0003	 2.31406069923321E-0001	
 1.46850000000000E+0003	 2.28000847614197E-0001	
 1.47050000000000E+0003	 2.23957125305072E-0001	
 1.47250000000000E+0003	 2.17588902995947E-0001	
 1.47450000000000E+0003	 2.10725180686822E-0001	
 1.47650000000000E+0003	 2.06472958377697E-0001	
 1.47850000000000E+0003	 2.04386236068573E-0001	
 1.48050000000000E+0003	 2.03180013759448E-0001	
 1.48250000000000E+0003	 2.02484291450323E-0001	
 1.48450000000000E+0003	 2.02010569141198E-0001	
 1.48650000000000E+0003	 2.02527346832074E-0001	
 1.48850000000000E+0003	 2.03345624522949E-0001	
 1.49050000000000E+0003	 2.04606902213824E-0001	
 1.49250000000000E+0003	 2.07143179904699E-0001	
 1.49450000000000E+0003	 2.10611957595575E-0001	
 1.49650000000000E+0003	 2.14865235286450E-0001	
 1.49850000000000E+0003	 2.18987512977325E-0001	
 1.50050000000000E+0003	 2.23602790668200E-0001	
 1.50250000000000E+0003	 2.28868068359075E-0001	
 1.50450000000000E+0003	 2.33254846049951E-0001	
 1.50650000000000E+0003	 2.39924623740826E-0001	
 1.50850000000000E+0003	 2.47133901431701E-0001	
 1.51050000000000E+0003	 2.54313179122576E-0001	
 1.51250000000000E+0003	 2.64767956813452E-0001	
 1.51450000000000E+0003	 2.74396734504327E-0001	
 1.51650000000000E+0003	 2.82651012195202E-0001	
 1.51850000000000E+0003	 2.88361289886077E-0001	
 1.52050000000000E+0003	 2.92078567576953E-0001	
 1.52250000000000E+0003	 2.99004345267828E-0001	
 1.52450000000000E+0003	 3.05787122958703E-0001	
 1.52650000000000E+0003	 3.13855400649578E-0001	
 1.52850000000000E+0003	 3.22048178340454E-0001	
 1.53050000000000E+0003	 3.29305456031329E-0001	
 1.53250000000000E+0003	 3.36235733722204E-0001	
 1.53450000000000E+0003	 3.43618011413079E-0001	
 1.53650000000000E+0003	 3.48523789103954E-0001	
 1.53850000000000E+0003	 3.53372566794830E-0001	
 1.54050000000000E+0003	 3.59657844485705E-0001	
 1.54250000000000E+0003	 3.63005122176580E-0001	
 1.54450000000000E+0003	 3.66108899867455E-0001	
 1.54650000000000E+0003	 3.68956677558331E-0001	
 1.54850000000000E+0003	 3.69649455249206E-0001	
 1.55050000000000E+0003	 3.67585232940081E-0001	
 1.55250000000000E+0003	 3.62197010630956E-0001	
 1.55450000000000E+0003	 3.55404288321832E-0001	
 1.55650000000000E+0003	 3.47507566012707E-0001	
 1.55850000000000E+0003	 3.37916843703582E-0001	
 1.56050000000000E+0003	 3.26692121394457E-0001	
 1.56250000000000E+0003	 3.20236399085332E-0001	
 1.56450000000000E+0003	 3.17770176776208E-0001	
 1.56650000000000E+0003	 3.13042954467083E-0001	
 1.56850000000000E+0003	 3.06835732157958E-0001	
 1.57050000000000E+0003	 3.00801509848833E-0001	
 1.57250000000000E+0003	 2.95096787539709E-0001	
 1.57450000000000E+0003	 2.89998065230584E-0001	
 1.57650000000000E+0003	 2.84713842921459E-0001	
 1.57850000000000E+0003	 2.79435120612334E-0001	
 1.58050000000000E+0003	 2.75920398303210E-0001	
 1.58250000000000E+0003	 2.73407175994085E-0001	
 1.58450000000000E+0003	 2.70658953684960E-0001	
 1.58650000000000E+0003	 2.68687231375835E-0001	
 1.58850000000000E+0003	 2.67879009066710E-0001	
 1.59050000000000E+0003	 2.68141286757586E-0001	
 1.59250000000000E+0003	 2.69507564448461E-0001	
 1.59450000000000E+0003	 2.71746342139336E-0001	
 1.59650000000000E+0003	 2.74690619830211E-0001	
 1.59850000000000E+0003	 2.78062397521087E-0001	
 1.60050000000000E+0003	 2.82321675211962E-0001	
 1.60250000000000E+0003	 2.87239952902837E-0001	
 1.60450000000000E+0003	 2.92801730593712E-0001	
 1.60650000000000E+0003	 2.99057508284588E-0001	
 1.60850000000000E+0003	 3.06566285975463E-0001	
 1.61050000000000E+0003	 3.15006063666338E-0001	
 1.61250000000000E+0003	 3.24356341357213E-0001	
 1.61450000000000E+0003	 3.33480119048089E-0001	
 1.61650000000000E+0003	 3.44988396738964E-0001	
 1.61850000000000E+0003	 3.58727674429839E-0001	
 1.62050000000000E+0003	 3.71150952120714E-0001	
 1.62250000000000E+0003	 3.86310729811589E-0001	
 1.62450000000000E+0003	 4.03189007502465E-0001	
 1.62650000000000E+0003	 4.18574785193340E-0001	
 1.62850000000000E+0003	 4.35681562884215E-0001	
 1.63050000000000E+0003	 4.52316340575090E-0001	
 1.63250000000000E+0003	 4.66442618265966E-0001	
 1.63450000000000E+0003	 4.79799895956841E-0001	
 1.63650000000000E+0003	 4.94211673647716E-0001	
 1.63850000000000E+0003	 5.04107451338591E-0001	
 1.64050000000000E+0003	 5.12117229029467E-0001	
 1.64250000000000E+0003	 5.19446006720342E-0001	
 1.64450000000000E+0003	 5.24138284411217E-0001	
 1.64650000000000E+0003	 5.29798562102092E-0001	
 1.64850000000000E+0003	 5.35679339792967E-0001	
 1.65050000000000E+0003	 5.37856117483843E-0001	
 1.65250000000000E+0003	 5.40533895174718E-0001	
 1.65450000000000E+0003	 5.44745172865593E-0001	
 1.65650000000000E+0003	 5.44593950556468E-0001	
 1.65850000000000E+0003	 5.45108228247344E-0001	
 1.66050000000000E+0003	 5.41865505938219E-0001	
 1.66250000000000E+0003	 5.34699783629094E-0001	
 1.66450000000000E+0003	 5.25556061319969E-0001	
 1.66650000000000E+0003	 5.16536339010845E-0001	
 1.66850000000000E+0003	 5.07381116701720E-0001	
 1.67050000000000E+0003	 4.97001894392595E-0001	
 1.67250000000000E+0003	 4.86636172083470E-0001	
 1.67450000000000E+0003	 4.76957949774345E-0001	
 1.67650000000000E+0003	 4.67188727465221E-0001	
 1.67850000000000E+0003	 4.58262005156096E-0001	
 1.68050000000000E+0003	 4.50417782846971E-0001	
 1.68250000000000E+0003	 4.40887060537846E-0001	
 1.68450000000000E+0003	 4.28474838228722E-0001	
 1.68650000000000E+0003	 4.16978115919597E-0001	
 1.68850000000000E+0003	 4.08277393610472E-0001	
 1.69050000000000E+0003	 3.99652671301347E-0001	
 1.69250000000000E+0003	 3.89283948992223E-0001	
 1.69450000000000E+0003	 3.77248226683098E-0001	
 1.69650000000000E+0003	 3.64167504373973E-0001	
 1.69850000000000E+0003	 3.51587782064848E-0001	
 1.70050000000000E+0003	 3.39500559755724E-0001	
 1.70250000000000E+0003	 3.29762337446599E-0001	
 1.70450000000000E+0003	 3.22972615137474E-0001	
 1.70650000000000E+0003	 3.17549892828349E-0001	
 1.70850000000000E+0003	 3.10393670519224E-0001	
 1.71050000000000E+0003	 3.04069948210100E-0001	
 1.71250000000000E+0003	 2.97717725900975E-0001	
 1.71450000000000E+0003	 2.90296503591850E-0001	
 1.71650000000000E+0003	 2.80952281282725E-0001	
 1.71850000000000E+0003	 2.71033058973601E-0001	
 1.72050000000000E+0003	 2.63007336664476E-0001	
 1.72250000000000E+0003	 2.56791114355351E-0001	
 1.72450000000000E+0003	 2.50588392046226E-0001	
 1.72650000000000E+0003	 2.43948669737102E-0001	
 1.72850000000000E+0003	 2.38059947427977E-0001	
 1.73050000000000E+0003	 2.32779225118852E-0001	
 1.73250000000000E+0003	 2.26419502809727E-0001	
 1.73450000000000E+0003	 2.20406280500602E-0001	
 1.73650000000000E+0003	 2.16657558191478E-0001	
 1.73850000000000E+0003	 2.14827335882353E-0001	
 1.74050000000000E+0003	 2.14121113573228E-0001	
 1.74250000000000E+0003	 2.11622891264103E-0001	
 1.74450000000000E+0003	 2.09177668954979E-0001	
 1.74650000000000E+0003	 2.06862446645854E-0001	
 1.74850000000000E+0003	 2.03904224336729E-0001	
 1.75050000000000E+0003	 1.99246502027604E-0001	
 1.75250000000000E+0003	 1.94539279718480E-0001	
 1.75450000000000E+0003	 1.91471057409355E-0001	
 1.75650000000000E+0003	 1.88774835100230E-0001	
 1.75850000000000E+0003	 1.85477612791105E-0001	
 1.76050000000000E+0003	 1.81597390481981E-0001	
 1.76250000000000E+0003	 1.78529168172856E-0001	
 1.76450000000000E+0003	 1.75731445863731E-0001	
 1.76650000000000E+0003	 1.73250223554606E-0001	
 1.76850000000000E+0003	 1.70978501245481E-0001	
 1.77050000000000E+0003	 1.68147778936357E-0001	
 1.77250000000000E+0003	 1.66022056627232E-0001	
 1.77450000000000E+0003	 1.64191834318107E-0001	
 1.77650000000000E+0003	 1.62577612008982E-0001	
 1.77850000000000E+0003	 1.62024889699858E-0001	
 1.78050000000000E+0003	 1.60913167390733E-0001	
 1.78250000000000E+0003	 1.59300945081608E-0001	
 1.78450000000000E+0003	 1.57379222772483E-0001	
 1.78650000000000E+0003	 1.56147500463359E-0001	
 1.78850000000000E+0003	 1.55216278154234E-0001	
 1.79050000000000E+0003	 1.54022555845109E-0001	
 1.79250000000000E+0003	 1.52364333535984E-0001	
 1.79450000000000E+0003	 1.50876611226859E-0001	
 1.79650000000000E+0003	 1.49998388917735E-0001	
 1.79850000000000E+0003	 1.49752166608610E-0001	
 1.80050000000000E+0003	 1.48852444299485E-0001	
 1.80250000000000E+0003	 1.47207221990360E-0001	
 1.80450000000000E+0003	 1.46091499681236E-0001	
 1.80650000000000E+0003	 1.45846277372111E-0001	
 1.80850000000000E+0003	 1.45340555062986E-0001	
 1.81050000000000E+0003	 1.44525332753861E-0001	
 1.81250000000000E+0003	 1.43565110444737E-0001	
 1.81450000000000E+0003	 1.42545888135612E-0001	
 1.81650000000000E+0003	 1.41958665826487E-0001	
 1.81850000000000E+0003	 1.41274443517362E-0001	
 1.82050000000000E+0003	 1.40595721208237E-0001	
 1.82250000000000E+0003	 1.40015998899113E-0001	
 1.82450000000000E+0003	 1.39113776589988E-0001	
 1.82650000000000E+0003	 1.38231054280863E-0001	
 1.82850000000000E+0003	 1.37233331971738E-0001	
 1.83050000000000E+0003	 1.36981609662614E-0001	
 1.83250000000000E+0003	 1.36093887353489E-0001	
 1.83450000000000E+0003	 1.35506665044364E-0001	
 1.83650000000000E+0003	 1.35643942735239E-0001	
 1.83850000000000E+0003	 1.35219720426115E-0001	
 1.84050000000000E+0003	 1.34673998116990E-0001	
 1.84250000000000E+0003	 1.33606775807865E-0001	
 1.84450000000000E+0003	 1.32631553498740E-0001	
 1.84650000000000E+0003	 1.31846331189616E-0001	
 1.84850000000000E+0003	 1.31403608880491E-0001	
 1.85050000000000E+0003	 1.31827886571366E-0001	
 1.85250000000000E+0003	 1.31755164262241E-0001	
 1.85450000000000E+0003	 1.31551441953116E-0001	
 1.85650000000000E+0003	 1.31152719643992E-0001	
 1.85850000000000E+0003	 1.30761997334867E-0001	
 1.86050000000000E+0003	 1.30322775025742E-0001	
 1.86250000000000E+0003	 1.29930552716617E-0001	
 1.86450000000000E+0003	 1.29686330407493E-0001	
 1.86650000000000E+0003	 1.29439108098368E-0001	
 1.86850000000000E+0003	 1.28834885789243E-0001	
 1.87050000000000E+0003	 1.27958163480118E-0001	
 1.87250000000000E+0003	 1.27305441170994E-0001	
 1.87450000000000E+0003	 1.27617718861869E-0001	
 1.87650000000000E+0003	 1.27815996552744E-0001	
 1.87850000000000E+0003	 1.27556774243619E-0001	
 1.88050000000000E+0003	 1.27260051934494E-0001	
 1.88250000000000E+0003	 1.27017829625370E-0001	
 1.88450000000000E+0003	 1.26797607316245E-0001	
 1.88650000000000E+0003	 1.26567385007120E-0001	
 1.88850000000000E+0003	 1.26161162697995E-0001	
 1.89050000000000E+0003	 1.25861940388871E-0001	
 1.89250000000000E+0003	 1.25392218079746E-0001	
 1.89450000000000E+0003	 1.25297495770621E-0001	
 1.89650000000000E+0003	 1.25317773461496E-0001	
 1.89850000000000E+0003	 1.24995551152372E-0001	
 1.90050000000000E+0003	 1.24862328843247E-0001	
 1.90250000000000E+0003	 1.24760106534122E-0001	
 1.90450000000000E+0003	 1.24588884224997E-0001	
 1.90650000000000E+0003	 1.24442161915872E-0001	
 1.90850000000000E+0003	 1.24245439606748E-0001	
 1.91050000000000E+0003	 1.24032217297623E-0001	
 1.91250000000000E+0003	 1.23740494988498E-0001	
 1.91450000000000E+0003	 1.23673272679373E-0001	
 1.91650000000000E+0003	 1.23402050370249E-0001	
 1.91850000000000E+0003	 1.23125828061124E-0001	
 1.92050000000000E+0003	 1.22813605751999E-0001	
 1.92250000000000E+0003	 1.22667883442874E-0001	
 1.92450000000000E+0003	 1.22825661133750E-0001	
 1.92650000000000E+0003	 1.22638438824625E-0001	
 1.92850000000000E+0003	 1.22754716515500E-0001	
 1.93050000000000E+0003	 1.22799994206375E-0001	
 1.93250000000000E+0003	 1.22688771897251E-0001	
 1.93450000000000E+0003	 1.22584549588126E-0001	
 1.93650000000000E+0003	 1.22477327279001E-0001	
 1.93850000000000E+0003	 1.22454604969876E-0001	
 1.94050000000000E+0003	 1.22344382660751E-0001	
 1.94250000000000E+0003	 1.22164660351627E-0001	
 1.94450000000000E+0003	 1.21904438042502E-0001	
 1.94650000000000E+0003	 1.21735715733377E-0001	
 1.94850000000000E+0003	 1.21930993424252E-0001	
 1.95050000000000E+0003	 1.21967771115128E-0001	
 1.95250000000000E+0003	 1.21964048806003E-0001	
 1.95450000000000E+0003	 1.21924326496878E-0001	
 1.95650000000000E+0003	 1.21866104187753E-0001	
 1.95850000000000E+0003	 1.21809381878629E-0001	
 1.96050000000000E+0003	 1.21785659569504E-0001	
 1.96250000000000E+0003	 1.21775437260379E-0001	
 1.96450000000000E+0003	 1.21749714951254E-0001	
 1.96650000000000E+0003	 1.21680492642129E-0001	
 1.96850000000000E+0003	 1.21550270333005E-0001	
 1.97050000000000E+0003	 1.21407048023880E-0001	
 1.97250000000000E+0003	 1.21491825714755E-0001	
 1.97450000000000E+0003	 1.21584103405630E-0001	
 1.97650000000000E+0003	 1.21560381096506E-0001	
 1.97850000000000E+0003	 1.21535158787381E-0001	
 1.98050000000000E+0003	 1.21508936478256E-0001	
 1.98250000000000E+0003	 1.21491214169131E-0001	
 1.98450000000000E+0003	 1.21486991860007E-0001	
 1.98650000000000E+0003	 1.21467769550882E-0001	
 1.98850000000000E+0003	 1.21457047241757E-0001	
 1.99050000000000E+0003	 1.21336824932632E-0001	
 1.99250000000000E+0003	 1.21216602623508E-0001	
 1.99450000000000E+0003	 1.21125380314383E-0001	
 1.99650000000000E+0003	 1.21172158005258E-0001	
 1.99850000000000E+0003	 1.21408435696133E-0001	
 2.00050000000000E+0003	 1.21463713387008E-0001	
 2.00250000000000E+0003	 1.21475991077884E-0001	
 2.00450000000000E+0003	 1.21506268768759E-0001	
 2.00650000000000E+0003	 1.21545046459634E-0001	
 2.00850000000000E+0003	 1.21574324150509E-0001	
 2.01050000000000E+0003	 1.21609101841385E-0001	
 2.01250000000000E+0003	 1.21667879532260E-0001	
 2.01450000000000E+0003	 1.21740657223135E-0001	
 2.01650000000000E+0003	 1.21764434914010E-0001	
 2.01850000000000E+0003	 1.21739712604886E-0001	
 2.02050000000000E+0003	 1.21732490295761E-0001	
 2.02250000000000E+0003	 1.21881767986636E-0001	
 2.02450000000000E+0003	 1.22036545677511E-0001	
 2.02650000000000E+0003	 1.22130323368386E-0001	
 2.02850000000000E+0003	 1.22225101059262E-0001	
 2.03050000000000E+0003	 1.22303378750137E-0001	
 2.03250000000000E+0003	 1.22380156441012E-0001	
 2.03450000000000E+0003	 1.22455934131887E-0001	
 2.03650000000000E+0003	 1.22523211822763E-0001	
 2.03850000000000E+0003	 1.22596489513638E-0001	
 2.04050000000000E+0003	 1.22645767204513E-0001	
 2.04250000000000E+0003	 1.22679044895388E-0001	
 2.04450000000000E+0003	 1.22715822586264E-0001	
 2.04650000000000E+0003	 1.22803600277139E-0001	
 2.04850000000000E+0003	 1.22883877968014E-0001	
 2.05050000000000E+0003	 1.22944655658889E-0001	
 2.05250000000000E+0003	 1.22992933349764E-0001	
 2.05450000000000E+0003	 1.23033711040640E-0001	
 2.05650000000000E+0003	 1.23067488731515E-0001	
 2.05850000000000E+0003	 1.23106766422390E-0001	
 2.06050000000000E+0003	 1.23149044113265E-0001	
 2.06250000000000E+0003	 1.23182321804141E-0001	
 2.06450000000000E+0003	 1.23173599495016E-0001	
 2.06650000000000E+0003	 1.23157377185891E-0001	
 2.06850000000000E+0003	 1.23162154876766E-0001	
 2.07050000000000E+0003	 1.23250432567642E-0001	
 2.07250000000000E+0003	 1.23320210258517E-0001	
 2.07450000000000E+0003	 1.23347487949392E-0001	
 2.07650000000000E+0003	 1.23367265640267E-0001	
 2.07850000000000E+0003	 1.23385043331143E-0001	
 2.08050000000000E+0003	 1.23406821022018E-0001	
 2.08250000000000E+0003	 1.23430598712893E-0001	
 2.08450000000000E+0003	 1.23452376403768E-0001	
 2.08650000000000E+0003	 1.23475154094643E-0001	
 2.08850000000000E+0003	 1.23478931785519E-0001	
 2.09050000000000E+0003	 1.23465209476394E-0001	
 2.09250000000000E+0003	 1.23459987167269E-0001	
 2.09450000000000E+0003	 1.23484764858144E-0001	
 2.09650000000000E+0003	 1.23514042549020E-0001	
 2.09850000000000E+0003	 1.23521320239895E-0001	
 2.10050000000000E+0003	 1.23518597930770E-0001	
 2.10250000000000E+0003	 1.23509875621645E-0001	
 2.10450000000000E+0003	 1.23498153312521E-0001	
 2.10650000000000E+0003	 1.23487931003396E-0001	
 2.10850000000000E+0003	 1.23470208694271E-0001	
 2.11050000000000E+0003	 1.23451986385146E-0001	
 2.11250000000000E+0003	 1.23431764076021E-0001	
 2.11450000000000E+0003	 1.23401541766897E-0001	
 2.11650000000000E+0003	 1.23363819457772E-0001	
 2.11850000000000E+0003	 1.23339597148647E-0001	
 2.12050000000000E+0003	 1.23325874839522E-0001	
 2.12250000000000E+0003	 1.23302152530398E-0001	
 2.12450000000000E+0003	 1.23268930221273E-0001	
 2.12650000000000E+0003	 1.23240707912148E-0001	
 2.12850000000000E+0003	 1.23212985603023E-0001	
 2.13050000000000E+0003	 1.23181763293899E-0001	
 2.13250000000000E+0003	 1.23149040984774E-0001	
 2.13450000000000E+0003	 1.23114818675649E-0001	
 2.13650000000000E+0003	 1.23071596366524E-0001	
 2.13850000000000E+0003	 1.23026874057399E-0001	
 2.14050000000000E+0003	 1.22985151748275E-0001	
 2.14250000000000E+0003	 1.22952929439150E-0001	
 2.14450000000000E+0003	 1.22914207130025E-0001	
 2.14650000000000E+0003	 1.22871984820900E-0001	
 2.14850000000000E+0003	 1.22824762511776E-0001	
 2.15050000000000E+0003	 1.22779040202651E-0001	
 2.15250000000000E+0003	 1.22726317893526E-0001	
 2.15450000000000E+0003	 1.22667095584401E-0001	
 2.15650000000000E+0003	 1.22607373275277E-0001	
 2.15850000000000E+0003	 1.22549650966152E-0001	
 2.16050000000000E+0003	 1.22481928657027E-0001	
 2.16250000000000E+0003	 1.22403206347902E-0001	
 2.16450000000000E+0003	 1.22323484038778E-0001	
 2.16650000000000E+0003	 1.22250761729653E-0001	
 2.16850000000000E+0003	 1.22188039420528E-0001	
 2.17050000000000E+0003	 1.22106817111403E-0001	
 2.17250000000000E+0003	 1.22007094802278E-0001	
 2.17450000000000E+0003	 1.21905372493154E-0001	
 2.17650000000000E+0003	 1.21812150184029E-0001	
 2.17850000000000E+0003	 1.21724927874904E-0001	
 2.18050000000000E+0003	 1.21639705565779E-0001	
 2.18250000000000E+0003	 1.21549483256655E-0001	
 2.18450000000000E+0003	 1.21458260947530E-0001	
 2.18650000000000E+0003	 1.21367538638405E-0001	
 2.18850000000000E+0003	 1.21274316329280E-0001	
 2.19050000000000E+0003	 1.21188094020156E-0001	
 2.19250000000000E+0003	 1.21103871711031E-0001	
 2.19450000000000E+0003	 1.21017149401906E-0001	
 2.19650000000000E+0003	 1.20928427092781E-0001	
 2.19850000000000E+0003	 1.20843204783656E-0001	
 2.20050000000000E+0003	 1.20753482474532E-0001	
 2.20250000000000E+0003	 1.20665760165407E-0001	
 2.20450000000000E+0003	 1.20576037856282E-0001	
 2.20650000000000E+0003	 1.20487815547157E-0001	
 2.20850000000000E+0003	 1.20400593238033E-0001	
 2.21050000000000E+0003	 1.20317370928908E-0001	
 2.21250000000000E+0003	 1.20234148619783E-0001	
 2.21450000000000E+0003	 1.20148926310658E-0001	
 2.21650000000000E+0003	 1.20065704001534E-0001	
 2.21850000000000E+0003	 1.19980481692409E-0001	
 2.22050000000000E+0003	 1.19896759383284E-0001	
 2.22250000000000E+0003	 1.19813537074159E-0001	
 2.22450000000000E+0003	 1.19733814765035E-0001	
 2.22650000000000E+0003	 1.19657092455910E-0001	
 2.22850000000000E+0003	 1.19587370146785E-0001	
 2.23050000000000E+0003	 1.19522147837660E-0001	
 2.23250000000000E+0003	 1.19457425528535E-0001	
 2.23450000000000E+0003	 1.19391703219411E-0001	
 2.23650000000000E+0003	 1.19328980910286E-0001	
 2.23850000000000E+0003	 1.19269258601161E-0001	
 2.24050000000000E+0003	 1.19210036292036E-0001	
 2.24250000000000E+0003	 1.19152313982912E-0001	
 2.24450000000000E+0003	 1.19097091673787E-0001	
 2.24650000000000E+0003	 1.19045369364662E-0001	
 2.24850000000000E+0003	 1.18995647055537E-0001	
 2.25050000000000E+0003	 1.18948924746413E-0001	
 2.25250000000000E+0003	 1.18899202437288E-0001	
 2.25450000000000E+0003	 1.18848980128163E-0001	
 2.25650000000000E+0003	 1.18798257819038E-0001	
 2.25850000000000E+0003	 1.18749535509913E-0001	
 2.26050000000000E+0003	 1.18704313200789E-0001	
 2.26250000000000E+0003	 1.18658090891664E-0001	
 2.26450000000000E+0003	 1.18610868582539E-0001	
 2.26650000000000E+0003	 1.18564146273414E-0001	
 2.26850000000000E+0003	 1.18523423964290E-0001	
 2.27050000000000E+0003	 1.18486201655165E-0001	
 2.27250000000000E+0003	 1.18454979346040E-0001	
 2.27450000000000E+0003	 1.18426257036915E-0001	
 2.27650000000000E+0003	 1.18401534727791E-0001	
 2.27850000000000E+0003	 1.18376812418666E-0001	
 2.28050000000000E+0003	 1.18355090109541E-0001	
 2.28250000000000E+0003	 1.18334367800416E-0001	
 2.28450000000000E+0003	 1.18326645491291E-0001	
 2.28650000000000E+0003	 1.18335423182167E-0001	
 2.28850000000000E+0003	 1.18354200873042E-0001	
 2.29050000000000E+0003	 1.18378978563917E-0001	
 2.29250000000000E+0003	 1.18409756254792E-0001	
 2.29450000000000E+0003	 1.18446533945668E-0001	
 2.29650000000000E+0003	 1.18481311636543E-0001	
 2.29850000000000E+0003	 1.18509089327418E-0001	
 2.30050000000000E+0003	 1.18520367018293E-0001	
 2.30250000000000E+0003	 1.18506144709169E-0001	
 2.30450000000000E+0003	 1.18501422400044E-0001	
 2.30650000000000E+0003	 1.18533200090919E-0001	
 2.30850000000000E+0003	 1.18566477781794E-0001	
 2.31050000000000E+0003	 1.18573755472670E-0001	
 2.31250000000000E+0003	 1.18538533163545E-0001	
 2.31450000000000E+0003	 1.18499310854420E-0001	
 2.31650000000000E+0003	 1.18519088545295E-0001	
 2.31850000000000E+0003	 1.18573366236170E-0001	
 2.32050000000000E+0003	 1.18648643927046E-0001	
 2.32250000000000E+0003	 1.18708921617921E-0001	
 2.32450000000000E+0003	 1.18724699308796E-0001	
 2.32650000000000E+0003	 1.18712476999671E-0001	
 2.32850000000000E+0003	 1.18680754690547E-0001	
 2.33050000000000E+0003	 1.18642532381422E-0001	
 2.33250000000000E+0003	 1.18609810072297E-0001	
 2.33450000000000E+0003	 1.18601587763172E-0001	
 2.33650000000000E+0003	 1.18660865454048E-0001	
 2.33850000000000E+0003	 1.18743643144923E-0001	
 2.34050000000000E+0003	 1.18850920835798E-0001	
 2.34250000000000E+0003	 1.18956198526673E-0001	
 2.34450000000000E+0003	 1.18923976217548E-0001	
 2.34650000000000E+0003	 1.18821253908424E-0001	
 2.34850000000000E+0003	 1.18863031599299E-0001	
 2.35050000000000E+0003	 1.18854309290174E-0001	
 2.35250000000000E+0003	 1.18770086981049E-0001	
 2.35450000000000E+0003	 1.18820364671925E-0001	
 2.35650000000000E+0003	 1.18955642362800E-0001	
 2.35850000000000E+0003	 1.19028420053675E-0001	
 2.36050000000000E+0003	 1.19030197744550E-0001	
 2.36250000000000E+0003	 1.19055475435426E-0001	
 2.36450000000000E+0003	 1.19129753126301E-0001	
 2.36650000000000E+0003	 1.19206030817176E-0001	
 2.36850000000000E+0003	 1.19270308508051E-0001	
 2.37050000000000E+0003	 1.19293586198926E-0001	
 2.37250000000000E+0003	 1.19248363889802E-0001	
 2.37450000000000E+0003	 1.19184641580677E-0001	
 2.37650000000000E+0003	 1.19242919271552E-0001	
 2.37850000000000E+0003	 1.19459696962427E-0001	
 2.38050000000000E+0003	 1.19704974653303E-0001	
 2.38250000000000E+0003	 1.19840252344178E-0001	
 2.38450000000000E+0003	 1.19862530035053E-0001	
 2.38650000000000E+0003	 1.19853307725928E-0001	
 2.38850000000000E+0003	 1.19868585416804E-0001	
 2.39050000000000E+0003	 1.19921363107679E-0001	
 2.39250000000000E+0003	 1.20003140798554E-0001	
 2.39450000000000E+0003	 1.20096918489429E-0001	
 2.39650000000000E+0003	 1.20199196180305E-0001	
 2.39850000000000E+0003	 1.20311973871180E-0001	
 2.40050000000000E+0003	 1.20428751562055E-0001	
 2.40250000000000E+0003	 1.20554029252930E-0001	
 2.40450000000000E+0003	 1.20685806943805E-0001	
 2.40650000000000E+0003	 1.20820584634681E-0001	
 2.40850000000000E+0003	 1.20957362325556E-0001	
 2.41050000000000E+0003	 1.21096140016431E-0001	
 2.41250000000000E+0003	 1.21246417707306E-0001	
 2.41450000000000E+0003	 1.21404695398182E-0001	
 2.41650000000000E+0003	 1.21565973089057E-0001	
 2.41850000000000E+0003	 1.21727250779932E-0001	
 2.42050000000000E+0003	 1.21892028470807E-0001	
 2.42250000000000E+0003	 1.22069306161683E-0001	
 2.42450000000000E+0003	 1.22254583852558E-0001	
 2.42650000000000E+0003	 1.22439861543433E-0001	
 2.42850000000000E+0003	 1.22626639234308E-0001	
 2.43050000000000E+0003	 1.22810416925183E-0001	
 2.43250000000000E+0003	 1.22997194616059E-0001	
 2.43450000000000E+0003	 1.23192972306934E-0001	
 2.43650000000000E+0003	 1.23398249997809E-0001	
 2.43850000000000E+0003	 1.23599527688684E-0001	
 2.44050000000000E+0003	 1.23798305379560E-0001	
 2.44250000000000E+0003	 1.23997083070435E-0001	
 2.44450000000000E+0003	 1.24196360761310E-0001	
 2.44650000000000E+0003	 1.24396638452185E-0001	
 2.44850000000000E+0003	 1.24602916143061E-0001	
 2.45050000000000E+0003	 1.24814693833936E-0001	
 2.45250000000000E+0003	 1.25025971524811E-0001	
 2.45450000000000E+0003	 1.25238749215686E-0001	
 2.45650000000000E+0003	 1.25458526906562E-0001	
 2.45850000000000E+0003	 1.25681304597437E-0001	
 2.46050000000000E+0003	 1.25908582288312E-0001	
 2.46250000000000E+0003	 1.26141859979187E-0001	
 2.46450000000000E+0003	 1.26378137670062E-0001	
 2.46650000000000E+0003	 1.26612915360938E-0001	
 2.46850000000000E+0003	 1.26850693051813E-0001	
 2.47050000000000E+0003	 1.27093470742688E-0001	
 2.47250000000000E+0003	 1.27337248433563E-0001	
 2.47450000000000E+0003	 1.27578026124439E-0001	
 2.47650000000000E+0003	 1.27824803815314E-0001	
 2.47850000000000E+0003	 1.28068581506189E-0001	
 2.48050000000000E+0003	 1.28309859197064E-0001	
 2.48250000000000E+0003	 1.28552136887940E-0001	
 2.48450000000000E+0003	 1.28793914578815E-0001	
 2.48650000000000E+0003	 1.29030192269690E-0001	
 2.48850000000000E+0003	 1.29263969960565E-0001	
 2.49050000000000E+0003	 1.29495247651440E-0001	
 2.49250000000000E+0003	 1.29723525342316E-0001	
 2.49450000000000E+0003	 1.29951803033191E-0001	
 2.49650000000000E+0003	 1.30184580724066E-0001	
 2.49850000000000E+0003	 1.30419358414941E-0001	
 2.50050000000000E+0003	 1.30652136105817E-0001	
 2.50250000000000E+0003	 1.30882413796692E-0001	
 2.50450000000000E+0003	 1.31113191487567E-0001	
 2.50650000000000E+0003	 1.31339469178442E-0001	
 2.50850000000000E+0003	 1.31560746869318E-0001	
 2.51050000000000E+0003	 1.31783024560193E-0001	
 2.51250000000000E+0003	 1.32001302251068E-0001	
 2.51450000000000E+0003	 1.32210579941943E-0001	
 2.51650000000000E+0003	 1.32415357632818E-0001	
 2.51850000000000E+0003	 1.32618135323694E-0001	
 2.52050000000000E+0003	 1.32820413014569E-0001	
 2.52250000000000E+0003	 1.33023690705444E-0001	
 2.52450000000000E+0003	 1.33228968396319E-0001	
 2.52650000000000E+0003	 1.33434746087195E-0001	
 2.52850000000000E+0003	 1.33642023778070E-0001	
 2.53050000000000E+0003	 1.33846801468945E-0001	
 2.53250000000000E+0003	 1.34060079159820E-0001	
 2.53450000000000E+0003	 1.34272356850696E-0001	
 2.53650000000000E+0003	 1.34476134541571E-0001	
 2.53850000000000E+0003	 1.34678412232446E-0001	
 2.54050000000000E+0003	 1.34893189923321E-0001	
 2.54250000000000E+0003	 1.35105967614197E-0001	
 2.54450000000000E+0003	 1.35319745305072E-0001	
 2.54650000000000E+0003	 1.35539522995947E-0001	
 2.54850000000000E+0003	 1.35760300686822E-0001	
 2.55050000000000E+0003	 1.35979578377697E-0001	
 2.55250000000000E+0003	 1.36204356068573E-0001	
 2.55450000000000E+0003	 1.36429133759448E-0001	
 2.55650000000000E+0003	 1.36653411450323E-0001	
 2.55850000000000E+0003	 1.36874189141198E-0001	
 2.56050000000000E+0003	 1.37094466832074E-0001	
 2.56250000000000E+0003	 1.37315744522949E-0001	
 2.56450000000000E+0003	 1.37537022213824E-0001	
 2.56650000000000E+0003	 1.37761799904699E-0001	
 2.56850000000000E+0003	 1.37992077595575E-0001	
 2.57050000000000E+0003	 1.38224855286450E-0001	
 2.57250000000000E+0003	 1.38461632977325E-0001	
 2.57450000000000E+0003	 1.38707410668200E-0001	
 2.57650000000000E+0003	 1.38967188359075E-0001	
 2.57850000000000E+0003	 1.39233966049951E-0001	
 2.58050000000000E+0003	 1.39511243740826E-0001	
 2.58250000000000E+0003	 1.39797021431701E-0001	
 2.58450000000000E+0003	 1.40084799122576E-0001	
 2.58650000000000E+0003	 1.40380576813452E-0001	
 2.58850000000000E+0003	 1.40687854504327E-0001	
 2.59050000000000E+0003	 1.40999632195202E-0001	
 2.59250000000000E+0003	 1.41318909886077E-0001	
 2.59450000000000E+0003	 1.41647687576953E-0001	
 2.59650000000000E+0003	 1.41980965267828E-0001	
 2.59850000000000E+0003	 1.42319242958703E-0001	
 2.60050000000000E+0003	 1.42662520649578E-0001	
 2.60250000000000E+0003	 1.43013298340454E-0001	
 2.60450000000000E+0003	 1.43369076031329E-0001	
 2.60650000000000E+0003	 1.43725353722204E-0001	
 2.60850000000000E+0003	 1.44086131413079E-0001	
 2.61050000000000E+0003	 1.44449909103954E-0001	
 2.61250000000000E+0003	 1.44815186794830E-0001	
 2.61450000000000E+0003	 1.45185464485705E-0001	
 2.61650000000000E+0003	 1.45561742176580E-0001	
 2.61850000000000E+0003	 1.45940019867455E-0001	
 2.62050000000000E+0003	 1.46316297558331E-0001	
 2.62250000000000E+0003	 1.46698575249206E-0001	
 2.62450000000000E+0003	 1.47090352940081E-0001	
 2.62650000000000E+0003	 1.47482130630956E-0001	
 2.62850000000000E+0003	 1.47877408321832E-0001	
 2.63050000000000E+0003	 1.48276686012707E-0001	
 2.63250000000000E+0003	 1.48675463703582E-0001	
 2.63450000000000E+0003	 1.49076241394457E-0001	
 2.63650000000000E+0003	 1.49487019085332E-0001	
 2.63850000000000E+0003	 1.49897796776208E-0001	
 2.64050000000000E+0003	 1.50305074467083E-0001	
 2.64250000000000E+0003	 1.50716852157958E-0001	
 2.64450000000000E+0003	 1.51140129848833E-0001	
 2.64650000000000E+0003	 1.51562907539709E-0001	
 2.64850000000000E+0003	 1.51984185230584E-0001	
 2.65050000000000E+0003	 1.52403962921459E-0001	
 2.65250000000000E+0003	 1.52828240612334E-0001	
 2.65450000000000E+0003	 1.53250018303210E-0001	
 2.65650000000000E+0003	 1.53673795994085E-0001	
 2.65850000000000E+0003	 1.54104073684960E-0001	
 2.66050000000000E+0003	 1.54535351375835E-0001	
 2.66250000000000E+0003	 1.54965129066710E-0001	
 2.66450000000000E+0003	 1.55396406757586E-0001	
 2.66650000000000E+0003	 1.55829184448461E-0001	
 2.66850000000000E+0003	 1.56260962139336E-0001	
 2.67050000000000E+0003	 1.56698739830211E-0001	
 2.67250000000000E+0003	 1.57136517521087E-0001	
 2.67450000000000E+0003	 1.57564795211962E-0001	
 2.67650000000000E+0003	 1.57991572902837E-0001	
 2.67850000000000E+0003	 1.58420350593712E-0001	
 2.68050000000000E+0003	 1.58847628284588E-0001	
 2.68250000000000E+0003	 1.59262905975463E-0001	
 2.68450000000000E+0003	 1.59672183666338E-0001	
 2.68650000000000E+0003	 1.60084961357213E-0001	
 2.68850000000000E+0003	 1.60500239048089E-0001	
 2.69050000000000E+0003	 1.60911016738964E-0001	
 2.69250000000000E+0003	 1.61320294429839E-0001	
 2.69450000000000E+0003	 1.61734072120714E-0001	
 2.69650000000000E+0003	 1.62158349811589E-0001	
 2.69850000000000E+0003	 1.62587627502465E-0001	
 2.70050000000000E+0003	 1.63024405193340E-0001	
 2.70250000000000E+0003	 1.63470682884215E-0001	
 2.70450000000000E+0003	 1.63931460575090E-0001	
 2.70650000000000E+0003	 1.64404738265966E-0001	
 2.70850000000000E+0003	 1.64894015956841E-0001	
 2.71050000000000E+0003	 1.65399293647716E-0001	
 2.71250000000000E+0003	 1.65916571338591E-0001	
 2.71450000000000E+0003	 1.66450349029467E-0001	
 2.71650000000000E+0003	 1.66998626720342E-0001	
 2.71850000000000E+0003	 1.67553404411217E-0001	
 2.72050000000000E+0003	 1.68114182102092E-0001	
 2.72250000000000E+0003	 1.68682959792967E-0001	
 2.72450000000000E+0003	 1.69251237483843E-0001	
 2.72650000000000E+0003	 1.69823015174718E-0001	
 2.72850000000000E+0003	 1.70382792865593E-0001	
 2.73050000000000E+0003	 1.70931570556468E-0001	
 2.73250000000000E+0003	 1.71481348247344E-0001	
 2.73450000000000E+0003	 1.72027625938219E-0001	
 2.73650000000000E+0003	 1.72567403629094E-0001	
 2.73850000000000E+0003	 1.73095681319969E-0001	
 2.74050000000000E+0003	 1.73614459010845E-0001	
 2.74250000000000E+0003	 1.74123736701720E-0001	
 2.74450000000000E+0003	 1.74625014392595E-0001	
 2.74650000000000E+0003	 1.75128292083470E-0001	
 2.74850000000000E+0003	 1.75636569774345E-0001	
 2.75050000000000E+0003	 1.76142347465221E-0001	
 2.75250000000000E+0003	 1.76650625156096E-0001	
 2.75450000000000E+0003	 1.77160902846971E-0001	
 2.75650000000000E+0003	 1.77683680537846E-0001	
 2.75850000000000E+0003	 1.78217458228722E-0001	
 2.76050000000000E+0003	 1.78763735919597E-0001	
 2.76250000000000E+0003	 1.79323513610472E-0001	
 2.76450000000000E+0003	 1.79889791301347E-0001	
 2.76650000000000E+0003	 1.80456568992223E-0001	
 2.76850000000000E+0003	 1.81029346683098E-0001	
 2.77050000000000E+0003	 1.81610624373973E-0001	
 2.77250000000000E+0003	 1.82203402064848E-0001	
 2.77450000000000E+0003	 1.82819679755724E-0001	
 2.77650000000000E+0003	 1.83446957446599E-0001	
 2.77850000000000E+0003	 1.84073235137474E-0001	
 2.78050000000000E+0003	 1.84719012828349E-0001	
 2.78250000000000E+0003	 1.85394290519224E-0001	
 2.78450000000000E+0003	 1.86085568210100E-0001	
 2.78650000000000E+0003	 1.86787345900975E-0001	
 2.78850000000000E+0003	 1.87513123591850E-0001	
 2.79050000000000E+0003	 1.88256401282725E-0001	
 2.79250000000000E+0003	 1.88999178973601E-0001	
 2.79450000000000E+0003	 1.89749456664476E-0001	
 2.79650000000000E+0003	 1.90521734355351E-0001	
 2.79850000000000E+0003	 1.91312012046226E-0001	
 2.80050000000000E+0003	 1.92108789737102E-0001	
 2.80250000000000E+0003	 1.92911067427977E-0001	
 2.80450000000000E+0003	 1.93732845118852E-0001	
 2.80650000000000E+0003	 1.94571622809727E-0001	
 2.80850000000000E+0003	 1.95431400500602E-0001	
 2.81050000000000E+0003	 1.96314678191478E-0001	
 2.81250000000000E+0003	 1.97204955882353E-0001	
 2.81450000000000E+0003	 1.98110733573228E-0001	
 2.81650000000000E+0003	 1.99041511264103E-0001	
 2.81850000000000E+0003	 1.99997288954979E-0001	
 2.82050000000000E+0003	 2.00975066645854E-0001	
 2.82250000000000E+0003	 2.01983344336729E-0001	
 2.82450000000000E+0003	 2.03027622027604E-0001	
 2.82650000000000E+0003	 2.04111899718480E-0001	
 2.82850000000000E+0003	 2.05241177409355E-0001	
 2.83050000000000E+0003	 2.06436455100230E-0001	
 2.83250000000000E+0003	 2.07720732791105E-0001	
 2.83450000000000E+0003	 2.09114510481981E-0001	
 2.83650000000000E+0003	 2.10662288172856E-0001	
 2.83850000000000E+0003	 2.12447565863731E-0001	
 2.84050000000000E+0003	 2.14536343554606E-0001	
 2.84250000000000E+0003	 2.17048621245481E-0001	
 2.84450000000000E+0003	 2.20155898936357E-0001	
 2.84650000000000E+0003	 2.23893676627232E-0001	
 2.84850000000000E+0003	 2.28072454318107E-0001	
 2.85050000000000E+0003	 2.32204732008982E-0001	
 2.85250000000000E+0003	 2.35635009699858E-0001	
 2.85450000000000E+0003	 2.37909287390733E-0001	
 2.85650000000000E+0003	 2.39123065081608E-0001	
 2.85850000000000E+0003	 2.39802842772483E-0001	
 2.86050000000000E+0003	 2.40481620463359E-0001	
 2.86250000000000E+0003	 2.41486898154234E-0001	
 2.86450000000000E+0003	 2.43004175845109E-0001	
 2.86650000000000E+0003	 2.45022453535984E-0001	
 2.86850000000000E+0003	 2.47355231226859E-0001	
 2.87050000000000E+0003	 2.49767508917735E-0001	
 2.87250000000000E+0003	 2.51955286608610E-0001	
 2.87450000000000E+0003	 2.53567564299485E-0001	
 2.87650000000000E+0003	 2.54506841990360E-0001	
 2.87850000000000E+0003	 2.54996619681236E-0001	
 2.88050000000000E+0003	 2.55276897372111E-0001	
 2.88250000000000E+0003	 2.55535675062986E-0001	
 2.88450000000000E+0003	 2.55922452753861E-0001	
 2.88650000000000E+0003	 2.56521730444737E-0001	
 2.88850000000000E+0003	 2.57360508135612E-0001	
 2.89050000000000E+0003	 2.58429285826487E-0001	
 2.89250000000000E+0003	 2.59706563517362E-0001	
 2.89450000000000E+0003	 2.61168341208237E-0001	
 2.89650000000000E+0003	 2.62766618899113E-0001	
 2.89850000000000E+0003	 2.64470396589988E-0001	
 2.90050000000000E+0003	 2.66328174280863E-0001	
 2.90250000000000E+0003	 2.68400951971738E-0001	
 2.90450000000000E+0003	 2.70728729662614E-0001	
 2.90650000000000E+0003	 2.73359507353489E-0001	
 2.90850000000000E+0003	 2.76357285044364E-0001	
 2.91050000000000E+0003	 2.79783562735239E-0001	
 2.91250000000000E+0003	 2.83672340426115E-0001	
 2.91450000000000E+0003	 2.87941618116990E-0001	
 2.91650000000000E+0003	 2.92415895807865E-0001	
 2.91850000000000E+0003	 2.96871673498740E-0001	
 2.92050000000000E+0003	 3.00969951189616E-0001	
 2.92250000000000E+0003	 3.04390728880491E-0001	
 2.92450000000000E+0003	 3.06943006571366E-0001	
 2.92650000000000E+0003	 3.08651284262241E-0001	
 2.92850000000000E+0003	 3.09677061953116E-0001	
 2.93050000000000E+0003	 3.10062339643992E-0001	
 2.93250000000000E+0003	 3.09806617334867E-0001	
 2.93450000000000E+0003	 3.08983895025742E-0001	
 2.93650000000000E+0003	 3.07563672716617E-0001	
 2.93850000000000E+0003	 3.05527950407493E-0001	
 2.94050000000000E+0003	 3.03032228098368E-0001	
 2.94250000000000E+0003	 3.00365505789243E-0001	
 2.94450000000000E+0003	 2.97768783480118E-0001	
 2.94650000000000E+0003	 2.95461561170994E-0001	
 2.94850000000000E+0003	 2.93681338861869E-0001	
 2.95050000000000E+0003	 2.92660116552744E-0001	
 2.95250000000000E+0003	 2.92397894243619E-0001	
 2.95450000000000E+0003	 2.92589671934494E-0001	
 2.95650000000000E+0003	 2.92947449625370E-0001	
 2.95850000000000E+0003	 2.93196727316245E-0001	
 2.96050000000000E+0003	 2.93052505007120E-0001	
 2.96250000000000E+0003	 2.92325282697995E-0001	
 2.96450000000000E+0003	 2.90940560388871E-0001	
 2.96650000000000E+0003	 2.88951838079746E-0001	
 2.96850000000000E+0003	 2.86486615770621E-0001	
 2.97050000000000E+0003	 2.83826393461496E-0001	
 2.97250000000000E+0003	 2.81263171152372E-0001	
 2.97450000000000E+0003	 2.78775948843247E-0001	
 2.97650000000000E+0003	 2.76288726534122E-0001	
 2.97850000000000E+0003	 2.73885004224997E-0001	
 2.98050000000000E+0003	 2.71573281915872E-0001	
 2.98250000000000E+0003	 2.69314559606748E-0001	
 2.98450000000000E+0003	 2.67180837297623E-0001	
 2.98650000000000E+0003	 2.65250114988498E-0001	
 2.98850000000000E+0003	 2.63534892679373E-0001	
 2.99050000000000E+0003	 2.62055670370249E-0001	
 2.99250000000000E+0003	 2.60792948061124E-0001	
 2.99450000000000E+0003	 2.59704725751999E-0001	
 2.99650000000000E+0003	 2.58878503442874E-0001	
 2.99850000000000E+0003	 2.58343281133750E-0001	
 3.00050000000000E+0003	 2.58057558824625E-0001	
 3.00250000000000E+0003	 2.58054836515500E-0001	
 3.00450000000000E+0003	 2.58306114206375E-0001	
 3.00650000000000E+0003	 2.58765391897251E-0001	
 3.00850000000000E+0003	 2.59445669588126E-0001	
 3.01050000000000E+0003	 2.60365947279001E-0001	
 3.01250000000000E+0003	 2.61436724969876E-0001	
 3.01450000000000E+0003	 2.62571502660751E-0001	
 3.01650000000000E+0003	 2.63788280351627E-0001	
 3.01850000000000E+0003	 2.65144058042502E-0001	
 3.02050000000000E+0003	 2.66637335733377E-0001	
 3.02250000000000E+0003	 2.68251613424252E-0001	
 3.02450000000000E+0003	 2.69984391115128E-0001	
 3.02650000000000E+0003	 2.71762168806003E-0001	
 3.02850000000000E+0003	 2.73553446496878E-0001	
 3.03050000000000E+0003	 2.75375724187753E-0001	
 3.03250000000000E+0003	 2.77216001878629E-0001	
 3.03450000000000E+0003	 2.79061779569504E-0001	
 3.03650000000000E+0003	 2.80890557260379E-0001	
 3.03850000000000E+0003	 2.82753334951254E-0001	
 3.04050000000000E+0003	 2.84713612642129E-0001	
 3.04250000000000E+0003	 2.86721390333005E-0001	
 3.04450000000000E+0003	 2.88713668023880E-0001	
 3.04650000000000E+0003	 2.90699945714755E-0001	
 3.04850000000000E+0003	 2.92716223405630E-0001	
 3.05050000000000E+0003	 2.94786501096506E-0001	
 3.05250000000000E+0003	 2.96861778787381E-0001	
 3.05450000000000E+0003	 2.98922056478256E-0001	
 3.05650000000000E+0003	 3.00967834169131E-0001	
 3.05850000000000E+0003	 3.02941111860007E-0001	
 3.06050000000000E+0003	 3.04821889550882E-0001	
 3.06250000000000E+0003	 3.06632667241757E-0001	
 3.06450000000000E+0003	 3.08366444932632E-0001	
 3.06650000000000E+0003	 3.10019722623508E-0001	
 3.06850000000000E+0003	 3.11581500314383E-0001	
 3.07050000000000E+0003	 3.13051278005258E-0001	
 3.07250000000000E+0003	 3.14482555696133E-0001	
 3.07450000000000E+0003	 3.15891833387008E-0001	
 3.07650000000000E+0003	 3.17293111077884E-0001	
 3.07850000000000E+0003	 3.18694388768759E-0001	
 3.08050000000000E+0003	 3.20052666459634E-0001	
 3.08250000000000E+0003	 3.21351944150509E-0001	
 3.08450000000000E+0003	 3.22636721841385E-0001	
 3.08650000000000E+0003	 3.23890499532260E-0001	
 3.08850000000000E+0003	 3.25097277223135E-0001	
 3.09050000000000E+0003	 3.26285054914010E-0001	
 3.09250000000000E+0003	 3.27439332604886E-0001	
 3.09450000000000E+0003	 3.28575110295761E-0001	
 3.09650000000000E+0003	 3.29718387986636E-0001	
 3.09850000000000E+0003	 3.30875165677511E-0001	
 3.10050000000000E+0003	 3.32061943368386E-0001	
 3.10250000000000E+0003	 3.33268221059262E-0001	
 3.10450000000000E+0003	 3.34492998750137E-0001	
 3.10650000000000E+0003	 3.35776276441012E-0001	
 3.10850000000000E+0003	 3.37139554131887E-0001	
 3.11050000000000E+0003	 3.38543331822763E-0001	
 3.11250000000000E+0003	 3.39994109513638E-0001	
 3.11450000000000E+0003	 3.41557387204513E-0001	
 3.11650000000000E+0003	 3.43220164895388E-0001	
 3.11850000000000E+0003	 3.44924942586264E-0001	
 3.12050000000000E+0003	 3.46650220277139E-0001	
 3.12250000000000E+0003	 3.48393997968014E-0001	
 3.12450000000000E+0003	 3.50207775658889E-0001	
 3.12650000000000E+0003	 3.52122053349764E-0001	
 3.12850000000000E+0003	 3.54125831040640E-0001	
 3.13050000000000E+0003	 3.56178108731515E-0001	
 3.13250000000000E+0003	 3.58256386422390E-0001	
 3.13450000000000E+0003	 3.60397164113265E-0001	
 3.13650000000000E+0003	 3.62630941804141E-0001	
 3.13850000000000E+0003	 3.64944719495016E-0001	
 3.14050000000000E+0003	 3.67232497185891E-0001	
 3.14250000000000E+0003	 3.69498774876766E-0001	
 3.14450000000000E+0003	 3.71848552567642E-0001	
 3.14650000000000E+0003	 3.74289830258517E-0001	
 3.14850000000000E+0003	 3.76820607949392E-0001	
 3.15050000000000E+0003	 3.79478385640267E-0001	
 3.15250000000000E+0003	 3.82158663331143E-0001	
 3.15450000000000E+0003	 3.84718441022018E-0001	
 3.15650000000000E+0003	 3.87279218712893E-0001	
 3.15850000000000E+0003	 3.89951496403768E-0001	
 3.16050000000000E+0003	 3.92697774094643E-0001	
 3.16250000000000E+0003	 3.95485051785519E-0001	
 3.16450000000000E+0003	 3.98303329476394E-0001	
 3.16650000000000E+0003	 4.01133607167269E-0001	
 3.16850000000000E+0003	 4.03971384858144E-0001	
 3.17050000000000E+0003	 4.06822662549020E-0001	
 3.17250000000000E+0003	 4.09682940239895E-0001	
 3.17450000000000E+0003	 4.12538217930770E-0001	
 3.17650000000000E+0003	 4.15395495621645E-0001	
 3.17850000000000E+0003	 4.18256273312521E-0001	
 3.18050000000000E+0003	 4.21089551003396E-0001	
 3.18250000000000E+0003	 4.23889828694271E-0001	
 3.18450000000000E+0003	 4.26681106385146E-0001	
 3.18650000000000E+0003	 4.29459384076021E-0001	
 3.18850000000000E+0003	 4.32206661766897E-0001	
 3.19050000000000E+0003	 4.34900439457772E-0001	
 3.19250000000000E+0003	 4.37543717148647E-0001	
 3.19450000000000E+0003	 4.40148494839522E-0001	
 3.19650000000000E+0003	 4.42723272530398E-0001	
 3.19850000000000E+0003	 4.45271550221273E-0001	
 3.20050000000000E+0003	 4.47781327912148E-0001	
 3.20250000000000E+0003	 4.50257605603023E-0001	
 3.20450000000000E+0003	 4.52712383293899E-0001	
 3.20650000000000E+0003	 4.55128160984774E-0001	
 3.20850000000000E+0003	 4.57507438675649E-0001	
 3.21050000000000E+0003	 4.59874216366524E-0001	
 3.21250000000000E+0003	 4.62244994057399E-0001	
 3.21450000000000E+0003	 4.64618771748275E-0001	
 3.21650000000000E+0003	 4.66984549439150E-0001	
 3.21850000000000E+0003	 4.69346327130025E-0001	
 3.22050000000000E+0003	 4.71701604820900E-0001	
 3.22250000000000E+0003	 4.74043382511776E-0001	
 3.22450000000000E+0003	 4.76411660202651E-0001	
 3.22650000000000E+0003	 4.78821437893526E-0001	
 3.22850000000000E+0003	 4.81275215584401E-0001	
 3.23050000000000E+0003	 4.83830493275277E-0001	
 3.23250000000000E+0003	 4.86483770966152E-0001	
 3.23450000000000E+0003	 4.89047048657027E-0001	
 3.23650000000000E+0003	 4.91520326347902E-0001	
 3.23850000000000E+0003	 4.94092104038778E-0001	
 3.24050000000000E+0003	 4.96790881729653E-0001	
 3.24250000000000E+0003	 4.99582159420528E-0001	
 3.24450000000000E+0003	 5.02484437111403E-0001	
 3.24650000000000E+0003	 5.05454714802278E-0001	
 3.24850000000000E+0003	 5.08376492493154E-0001	
 3.25050000000000E+0003	 5.11300770184029E-0001	
 3.25250000000000E+0003	 5.14340047874904E-0001	
 3.25450000000000E+0003	 5.17482825565779E-0001	
 3.25650000000000E+0003	 5.20632603256655E-0001	
 3.25850000000000E+0003	 5.23749880947530E-0001	
 3.26050000000000E+0003	 5.26884658638405E-0001	
 3.26250000000000E+0003	 5.30032936329280E-0001	
 3.26450000000000E+0003	 5.33153714020156E-0001	
 3.26650000000000E+0003	 5.36237991711031E-0001	
 3.26850000000000E+0003	 5.39300269401906E-0001	
 3.27050000000000E+0003	 5.42296047092781E-0001	
 3.27250000000000E+0003	 5.45129824783656E-0001	
 3.27450000000000E+0003	 5.47814602474532E-0001	
 3.27650000000000E+0003	 5.50399380165407E-0001	
 3.27850000000000E+0003	 5.52862157856282E-0001	
 3.28050000000000E+0003	 5.55196435547157E-0001	
 3.28250000000000E+0003	 5.57406213238033E-0001	
 3.28450000000000E+0003	 5.59496990928908E-0001	
 3.28650000000000E+0003	 5.61448268619783E-0001	
 3.28850000000000E+0003	 5.63266546310658E-0001	
 3.29050000000000E+0003	 5.64983824001534E-0001	
 3.29250000000000E+0003	 5.66580601692409E-0001	
 3.29450000000000E+0003	 5.68000879383284E-0001	
 3.29650000000000E+0003	 5.69271657074159E-0001	
 3.29850000000000E+0003	 5.70429434765035E-0001	
 3.30050000000000E+0003	 5.71504712455910E-0001	
 3.30250000000000E+0003	 5.72521990146785E-0001	
 3.30450000000000E+0003	 5.73497767837660E-0001	
 3.30650000000000E+0003	 5.74379045528535E-0001	
 3.30850000000000E+0003	 5.75139823219411E-0001	
 3.31050000000000E+0003	 5.75813100910286E-0001	
 3.31250000000000E+0003	 5.76451378601161E-0001	
 3.31450000000000E+0003	 5.77076656292036E-0001	
 3.31650000000000E+0003	 5.77678933982912E-0001	
 3.31850000000000E+0003	 5.78264711673787E-0001	
 3.32050000000000E+0003	 5.78862489364662E-0001	
 3.32250000000000E+0003	 5.79473267055537E-0001	
 3.32450000000000E+0003	 5.80102044746413E-0001	
 3.32650000000000E+0003	 5.80721822437288E-0001	
 3.32850000000000E+0003	 5.81312100128163E-0001	
 3.33050000000000E+0003	 5.81914877819038E-0001	
 3.33250000000000E+0003	 5.82556655509913E-0001	
 3.33450000000000E+0003	 5.83237933200789E-0001	
 3.33650000000000E+0003	 5.83977210891664E-0001	
 3.33850000000000E+0003	 5.84717988582539E-0001	
 3.34050000000000E+0003	 5.85406766273414E-0001	
 3.34250000000000E+0003	 5.86082043964290E-0001	
 3.34450000000000E+0003	 5.86767821655165E-0001	
 3.34650000000000E+0003	 5.87480599346040E-0001	
 3.34850000000000E+0003	 5.88268877036915E-0001	
 3.35050000000000E+0003	 5.89048654727791E-0001	
 3.35250000000000E+0003	 5.89720432418666E-0001	
 3.35450000000000E+0003	 5.90361710109541E-0001	
 3.35650000000000E+0003	 5.91073987800416E-0001	
 3.35850000000000E+0003	 5.91830765491291E-0001	
 3.36050000000000E+0003	 5.92582543182167E-0001	
 3.36250000000000E+0003	 5.93302320873042E-0001	
 3.36450000000000E+0003	 5.94082098563917E-0001	
 3.36650000000000E+0003	 5.94963876254792E-0001	
 3.36850000000000E+0003	 5.95797153945668E-0001	
 3.37050000000000E+0003	 5.96404931636543E-0001	
 3.37250000000000E+0003	 5.96899709327418E-0001	
 3.37450000000000E+0003	 5.97503987018293E-0001	
 3.37650000000000E+0003	 5.98198264709169E-0001	
 3.37850000000000E+0003	 5.98865542400044E-0001	
 3.38050000000000E+0003	 5.99500820090919E-0001	
 3.38250000000000E+0003	 6.00105597781794E-0001	
 3.38450000000000E+0003	 6.00716875472670E-0001	
 3.38650000000000E+0003	 6.01362653163545E-0001	
 3.38850000000000E+0003	 6.02125930854420E-0001	
 3.39050000000000E+0003	 6.02984708545295E-0001	
 3.39250000000000E+0003	 6.03624486236170E-0001	
 3.39450000000000E+0003	 6.03994263927046E-0001	
 3.39650000000000E+0003	 6.04479541617921E-0001	
 3.39850000000000E+0003	 6.05286819308796E-0001	
 3.40050000000000E+0003	 6.06021096999671E-0001	
 3.40250000000000E+0003	 6.06242374690547E-0001	
 3.40450000000000E+0003	 6.06290652381422E-0001	
 3.40650000000000E+0003	 6.06592430072297E-0001	
 3.40850000000000E+0003	 6.07037707763172E-0001	
 3.41050000000000E+0003	 6.07405985454048E-0001	
 3.41250000000000E+0003	 6.07654263144923E-0001	
 3.41450000000000E+0003	 6.07714540835798E-0001	
 3.41650000000000E+0003	 6.07713818526673E-0001	
 3.41850000000000E+0003	 6.07799596217548E-0001	
 3.42050000000000E+0003	 6.07884373908424E-0001	
 3.42250000000000E+0003	 6.07853651599299E-0001	
 3.42450000000000E+0003	 6.07786429290174E-0001	
 3.42650000000000E+0003	 6.07787706981049E-0001	
 3.42850000000000E+0003	 6.07817984671925E-0001	
 3.43050000000000E+0003	 6.07672762362800E-0001	
 3.43250000000000E+0003	 6.07457540053675E-0001	
 3.43450000000000E+0003	 6.07325317744550E-0001	
 3.43650000000000E+0003	 6.06925095435426E-0001	
 3.43850000000000E+0003	 6.06099873126301E-0001	
 3.44050000000000E+0003	 6.05217150817176E-0001	
 3.44250000000000E+0003	 6.04509928508051E-0001	
 3.44450000000000E+0003	 6.03900706198926E-0001	
 3.44650000000000E+0003	 6.03246483889802E-0001	
 3.44850000000000E+0003	 6.02455261580677E-0001	
 3.45050000000000E+0003	 6.01559539271552E-0001	
 3.45250000000000E+0003	 6.00649316962427E-0001	
 3.45450000000000E+0003	 5.99721094653303E-0001	
 3.45650000000000E+0003	 5.98816372344178E-0001	
 3.45850000000000E+0003	 5.97978150035053E-0001	
 3.46050000000000E+0003	 5.96980427725928E-0001	
 3.46250000000000E+0003	 5.95785705416804E-0001	
 3.46450000000000E+0003	 5.94818483107679E-0001	
 3.46650000000000E+0003	 5.94102260798554E-0001	
 3.46850000000000E+0003	 5.93020038489429E-0001	
 3.47050000000000E+0003	 5.91236316180305E-0001	
 3.47250000000000E+0003	 5.89313093871180E-0001	
 3.47450000000000E+0003	 5.87706371562055E-0001	
 3.47650000000000E+0003	 5.86379149252930E-0001	
 3.47850000000000E+0003	 5.85150926943805E-0001	
 3.48050000000000E+0003	 5.83593204634681E-0001	
 3.48250000000000E+0003	 5.81718482325556E-0001	
 3.48450000000000E+0003	 5.80042760016431E-0001	
 3.48650000000000E+0003	 5.78469037707306E-0001	
 3.48850000000000E+0003	 5.76697315398182E-0001	
 3.49050000000000E+0003	 5.74856593089057E-0001	
 3.49250000000000E+0003	 5.73127370779932E-0001	
 3.49450000000000E+0003	 5.71454148470807E-0001	
 3.49650000000000E+0003	 5.69726926161683E-0001	
 3.49850000000000E+0003	 5.67883703852558E-0001	
 3.50050000000000E+0003	 5.66122481543433E-0001	
 3.50250000000000E+0003	 5.64292259234308E-0001	
 3.50450000000000E+0003	 5.62032036925183E-0001	
 3.50650000000000E+0003	 5.59695814616059E-0001	
 3.50850000000000E+0003	 5.57572592306934E-0001	
 3.51050000000000E+0003	 5.55628369997809E-0001	
 3.51250000000000E+0003	 5.53782147688684E-0001	
 3.51450000000000E+0003	 5.51702925379560E-0001	
 3.51650000000000E+0003	 5.49381203070435E-0001	
 3.51850000000000E+0003	 5.47110980761310E-0001	
 3.52050000000000E+0003	 5.45086758452185E-0001	
 3.52250000000000E+0003	 5.43225536143061E-0001	
 3.52450000000000E+0003	 5.41019813833936E-0001	
 3.52650000000000E+0003	 5.38413091524811E-0001	
 3.52850000000000E+0003	 5.35874869215686E-0001	
 3.53050000000000E+0003	 5.33488146906562E-0001	
 3.53250000000000E+0003	 5.31185924597437E-0001	
 3.53450000000000E+0003	 5.29023202288312E-0001	
 3.53650000000000E+0003	 5.26687479979187E-0001	
 3.53850000000000E+0003	 5.24016757670062E-0001	
 3.54050000000000E+0003	 5.21524535360938E-0001	
 3.54250000000000E+0003	 5.19340813051813E-0001	
 3.54450000000000E+0003	 5.16991590742688E-0001	
 3.54650000000000E+0003	 5.14027868433563E-0001	
 3.54850000000000E+0003	 5.10815646124439E-0001	
 3.55050000000000E+0003	 5.07861923815314E-0001	
 3.55250000000000E+0003	 5.04918701506189E-0001	
 3.55450000000000E+0003	 5.01893479197064E-0001	
 3.55650000000000E+0003	 4.98950756887940E-0001	
 3.55850000000000E+0003	 4.96080534578815E-0001	
 3.56050000000000E+0003	 4.93172312269690E-0001	
 3.56250000000000E+0003	 4.90070589960565E-0001	
 3.56450000000000E+0003	 4.86887367651440E-0001	
 3.56650000000000E+0003	 4.83748145342316E-0001	
 3.56850000000000E+0003	 4.80577923033191E-0001	
 3.57050000000000E+0003	 4.77281200724066E-0001	
 3.57250000000000E+0003	 4.73856478414941E-0001	
 3.57450000000000E+0003	 4.70417256105817E-0001	
 3.57650000000000E+0003	 4.67019533796692E-0001	
 3.57850000000000E+0003	 4.63686811487567E-0001	
 3.58050000000000E+0003	 4.60451589178442E-0001	
 3.58250000000000E+0003	 4.57267366869318E-0001	
 3.58450000000000E+0003	 4.54021644560193E-0001	
 3.58650000000000E+0003	 4.50317422251068E-0001	
 3.58850000000000E+0003	 4.46243699941943E-0001	
 3.59050000000000E+0003	 4.42503977632818E-0001	
 3.59250000000000E+0003	 4.38953255323694E-0001	
 3.59450000000000E+0003	 4.35203033014569E-0001	
 3.59650000000000E+0003	 4.31492310705444E-0001	
 3.59850000000000E+0003	 4.27949088396319E-0001	
 3.60050000000000E+0003	 4.24261366087195E-0001	
 3.60250000000000E+0003	 4.20448643778070E-0001	
 3.60450000000000E+0003	 4.16710921468945E-0001	
 3.60650000000000E+0003	 4.12929199159820E-0001	
 3.60850000000000E+0003	 4.08961976850696E-0001	
 3.61050000000000E+0003	 4.05024754541571E-0001	
 3.61250000000000E+0003	 4.01227032232446E-0001	
 3.61450000000000E+0003	 3.97435809923321E-0001	
 3.61650000000000E+0003	 3.93619087614197E-0001	
 3.61850000000000E+0003	 3.89643365305072E-0001	
 3.62050000000000E+0003	 3.85726142995947E-0001	
 3.62250000000000E+0003	 3.82032920686822E-0001	
 3.62450000000000E+0003	 3.78336198377697E-0001	
 3.62650000000000E+0003	 3.74573976068573E-0001	
 3.62850000000000E+0003	 3.70432253759448E-0001	
 3.63050000000000E+0003	 3.66255531450323E-0001	
 3.63250000000000E+0003	 3.62675809141198E-0001	
 3.63450000000000E+0003	 3.59067586832074E-0001	
 3.63650000000000E+0003	 3.55245364522949E-0001	
 3.63850000000000E+0003	 3.51445142213824E-0001	
 3.64050000000000E+0003	 3.47709919904699E-0001	
 3.64250000000000E+0003	 3.44047197595575E-0001	
 3.64450000000000E+0003	 3.40523975286450E-0001	
 3.64650000000000E+0003	 3.37083752977325E-0001	
 3.64850000000000E+0003	 3.33505030668200E-0001	
 3.65050000000000E+0003	 3.29760808359075E-0001	
 3.65250000000000E+0003	 3.26145586049951E-0001	
 3.65450000000000E+0003	 3.22795863740826E-0001	
 3.65650000000000E+0003	 3.19467641431701E-0001	
 3.65850000000000E+0003	 3.16276919122576E-0001	
 3.66050000000000E+0003	 3.13141196813452E-0001	
 3.66250000000000E+0003	 3.09849474504327E-0001	
 3.66450000000000E+0003	 3.06650752195202E-0001	
 3.66650000000000E+0003	 3.03718529886077E-0001	
 3.66850000000000E+0003	 3.00839307576953E-0001	
 3.67050000000000E+0003	 2.97856585267828E-0001	
 3.67250000000000E+0003	 2.95276362958703E-0001	
 3.67450000000000E+0003	 2.92920140649578E-0001	
 3.67650000000000E+0003	 2.90328918340454E-0001	
 3.67850000000000E+0003	 2.87911696031329E-0001	
 3.68050000000000E+0003	 2.85700473722204E-0001	
 3.68250000000000E+0003	 2.83520751413079E-0001	
 3.68450000000000E+0003	 2.81464529103954E-0001	
 3.68650000000000E+0003	 2.79667306794830E-0001	
 3.68850000000000E+0003	 2.77819584485705E-0001	
 3.69050000000000E+0003	 2.75789362176580E-0001	
 3.69250000000000E+0003	 2.73967139867455E-0001	
 3.69450000000000E+0003	 2.72323417558331E-0001	
 3.69650000000000E+0003	 2.70709195249206E-0001	
 3.69850000000000E+0003	 2.69121972940081E-0001	
 3.70050000000000E+0003	 2.67615750630956E-0001	
 3.70250000000000E+0003	 2.66196528321832E-0001	
 3.70450000000000E+0003	 2.64887806012707E-0001	
 3.70650000000000E+0003	 2.63654083703582E-0001	
 3.70850000000000E+0003	 2.62496361394457E-0001	
 3.71050000000000E+0003	 2.61362139085332E-0001	
 3.71250000000000E+0003	 2.60219916776208E-0001	
 3.71450000000000E+0003	 2.59106194467083E-0001	
 3.71650000000000E+0003	 2.58019472157958E-0001	
 3.71850000000000E+0003	 2.56984749848833E-0001	
 3.72050000000000E+0003	 2.56042527539709E-0001	
 3.72250000000000E+0003	 2.55173805230584E-0001	
 3.72450000000000E+0003	 2.54328082921459E-0001	
 3.72650000000000E+0003	 2.53420860612334E-0001	
 3.72850000000000E+0003	 2.52459138303210E-0001	
 3.73050000000000E+0003	 2.51563915994085E-0001	
 3.73250000000000E+0003	 2.50837193684960E-0001	
 3.73450000000000E+0003	 2.50335471375835E-0001	
 3.73650000000000E+0003	 2.49858249066710E-0001	
 3.73850000000000E+0003	 2.49093526757586E-0001	
 3.74050000000000E+0003	 2.48127804448461E-0001	
 3.74250000000000E+0003	 2.47249582139336E-0001	
 3.74450000000000E+0003	 2.46429859830211E-0001	
 3.74650000000000E+0003	 2.45701637521087E-0001	
 3.74850000000000E+0003	 2.45100915211962E-0001	
 3.75050000000000E+0003	 2.44492692902837E-0001	
 3.75250000000000E+0003	 2.43906470593712E-0001	
 3.75450000000000E+0003	 2.43306248284588E-0001	
 3.75650000000000E+0003	 2.42703025975463E-0001	
 3.75850000000000E+0003	 2.42126303666338E-0001	
 3.76050000000000E+0003	 2.41542081357213E-0001	
 3.76250000000000E+0003	 2.40970359048089E-0001	
 3.76450000000000E+0003	 2.40408636738964E-0001	
 3.76650000000000E+0003	 2.39886914429839E-0001	
 3.76850000000000E+0003	 2.39407692120714E-0001	
 3.77050000000000E+0003	 2.38900469811589E-0001	
 3.77250000000000E+0003	 2.38364247502465E-0001	
 3.77450000000000E+0003	 2.37832025193340E-0001	
 3.77650000000000E+0003	 2.37407302884215E-0001	
 3.77850000000000E+0003	 2.37051080575090E-0001	
 3.78050000000000E+0003	 2.36602358265966E-0001	
 3.78250000000000E+0003	 2.36081635956841E-0001	
 3.78450000000000E+0003	 2.35587913647716E-0001	
 3.78650000000000E+0003	 2.35149191338591E-0001	
 3.78850000000000E+0003	 2.34741469029467E-0001	
 3.79050000000000E+0003	 2.34332746720342E-0001	
 3.79250000000000E+0003	 2.33915524411217E-0001	
 3.79450000000000E+0003	 2.33515802102092E-0001	
 3.79650000000000E+0003	 2.33086579792967E-0001	
 3.79850000000000E+0003	 2.32672357483843E-0001	
 3.80050000000000E+0003	 2.32293635174718E-0001	
 3.80250000000000E+0003	 2.31972412865593E-0001	
 3.80450000000000E+0003	 2.31695690556468E-0001	
 3.80650000000000E+0003	 2.31348468247344E-0001	
 3.80850000000000E+0003	 2.30989745938219E-0001	
 3.81050000000000E+0003	 2.30601523629094E-0001	
 3.81250000000000E+0003	 2.30229301319969E-0001	
 3.81450000000000E+0003	 2.29927579010845E-0001	
 3.81650000000000E+0003	 2.29632856701720E-0001	
 3.81850000000000E+0003	 2.29383634392595E-0001	
 3.82050000000000E+0003	 2.29121412083470E-0001	
 3.82250000000000E+0003	 2.28876189774345E-0001	
 3.82450000000000E+0003	 2.28598967465221E-0001	
 3.82650000000000E+0003	 2.28274245156096E-0001	
 3.82850000000000E+0003	 2.27979022846971E-0001	
 3.83050000000000E+0003	 2.27679800537846E-0001	
 3.83250000000000E+0003	 2.27368078228722E-0001	
 3.83450000000000E+0003	 2.27137355919597E-0001	
 3.83650000000000E+0003	 2.26945633610472E-0001	
 3.83850000000000E+0003	 2.26710911301347E-0001	
 3.84050000000000E+0003	 2.26513188992223E-0001	
 3.84250000000000E+0003	 2.26361966683098E-0001	
 3.84450000000000E+0003	 2.26167244373973E-0001	
 3.84650000000000E+0003	 2.25886522064848E-0001	
 3.84850000000000E+0003	 2.25485799755724E-0001	
 3.85050000000000E+0003	 2.25111077446599E-0001	
 3.85250000000000E+0003	 2.24734355137474E-0001	
 3.85450000000000E+0003	 2.24517132828349E-0001	
 3.85650000000000E+0003	 2.24543910519224E-0001	
 3.85850000000000E+0003	 2.24509188210100E-0001	
 3.86050000000000E+0003	 2.24333465900975E-0001	
 3.86250000000000E+0003	 2.24091243591850E-0001	
 3.86450000000000E+0003	 2.23858521282725E-0001	
 3.86650000000000E+0003	 2.23706298973601E-0001	
 3.86850000000000E+0003	 2.23567576664476E-0001	
 3.87050000000000E+0003	 2.23407354355351E-0001	
 3.87250000000000E+0003	 2.23258632046226E-0001	
 3.87450000000000E+0003	 2.23072909737102E-0001	
 3.87650000000000E+0003	 2.22915187427977E-0001	
 3.87850000000000E+0003	 2.22782965118852E-0001	
 3.88050000000000E+0003	 2.22624242809727E-0001	
 3.88250000000000E+0003	 2.22554520500602E-0001	
 3.88450000000000E+0003	 2.22528798191478E-0001	
 3.88650000000000E+0003	 2.22363575882353E-0001	
 3.88850000000000E+0003	 2.22088353573228E-0001	
 3.89050000000000E+0003	 2.21837131264103E-0001	
 3.89250000000000E+0003	 2.21673908954979E-0001	
 3.89450000000000E+0003	 2.21568686645854E-0001	
 3.89650000000000E+0003	 2.21457964336729E-0001	
 3.89850000000000E+0003	 2.21384742027604E-0001	
 3.90050000000000E+0003	 2.21399519718480E-0001	
 3.90250000000000E+0003	 2.21340297409355E-0001	
 3.90450000000000E+0003	 2.21125075100230E-0001	
 3.90650000000000E+0003	 2.20957352791105E-0001	
 3.90850000000000E+0003	 2.20847130481981E-0001	
 3.91050000000000E+0003	 2.20717408172856E-0001	
 3.91250000000000E+0003	 2.20610685863731E-0001	
 3.91450000000000E+0003	 2.20582963554606E-0001	
 3.91650000000000E+0003	 2.20594741245481E-0001	
 3.91850000000000E+0003	 2.20530018936357E-0001	
 3.92050000000000E+0003	 2.20390296627232E-0001	
 3.92250000000000E+0003	 2.20266574318107E-0001	
 3.92450000000000E+0003	 2.20142852008982E-0001	
 3.92650000000000E+0003	 2.20038629699858E-0001	
 3.92850000000000E+0003	 2.19989907390733E-0001	
 3.93050000000000E+0003	 2.20005185081608E-0001	
 3.93250000000000E+0003	 2.20025962772483E-0001	
 3.93450000000000E+0003	 2.19936240463359E-0001	
 3.93650000000000E+0003	 2.19759018154234E-0001	
 3.93850000000000E+0003	 2.19610295845109E-0001	
 3.94050000000000E+0003	 2.19533073535984E-0001	
 3.94250000000000E+0003	 2.19466351226859E-0001	
 3.94450000000000E+0003	 2.19417628917735E-0001	
 3.94650000000000E+0003	 2.19384906608610E-0001	
 3.94850000000000E+0003	 2.19303684299485E-0001	
 3.95050000000000E+0003	 2.19171961990360E-0001	
 3.95250000000000E+0003	 2.19049739681236E-0001	
 3.95450000000000E+0003	 2.18958017372111E-0001	
 3.95650000000000E+0003	 2.18879295062986E-0001	
 3.95850000000000E+0003	 2.18814572753861E-0001	
 3.96050000000000E+0003	 2.18762850444737E-0001	
 3.96250000000000E+0003	 2.18691628135612E-0001	
 3.96450000000000E+0003	 2.18596905826487E-0001	
 3.96650000000000E+0003	 2.18508183517362E-0001	
 3.96850000000000E+0003	 2.18435961208237E-0001	
 3.97050000000000E+0003	 2.18363738899113E-0001	
 3.97250000000000E+0003	 2.18298016589988E-0001	
 3.97450000000000E+0003	 2.18256794280863E-0001	
 3.97650000000000E+0003	 2.18211571971738E-0001	
 3.97850000000000E+0003	 2.18127849662614E-0001	
 3.98050000000000E+0003	 2.18051627353489E-0001	
 3.98250000000000E+0003	 2.18022905044364E-0001	
 3.98450000000000E+0003	 2.17980182735239E-0001	
 3.98650000000000E+0003	 2.17880960426115E-0001	
 3.98850000000000E+0003	 2.17780738116990E-0001	
 3.99050000000000E+0003	 2.17706515807865E-0001	
 3.99250000000000E+0003	 2.17637793498740E-0001	
 3.99450000000000E+0003	 2.17570571189616E-0001	
 3.99650000000000E+0003	 2.17512348880491E-0001	
 3.99850000000000E+0003	 2.17427683823529E-0001	

>1	DATALINE
