*CPCWIN*

>1	DATALINE
DATALINE
1
Operator:

Description:

Remarks:





15.9.2008
10:46


_x	_y
	
	
UNIT	UNIT
 4.50500000000000E+0002	 1.45563844746702E-0001	
 4.52500000000000E+0002	 1.45603514461695E-0001	
 4.54500000000000E+0002	 1.47129684176689E-0001	
 4.56500000000000E+0002	 1.47116353891683E-0001	
 4.58500000000000E+0002	 1.47616023606677E-0001	
 4.60500000000000E+0002	 1.48922693321671E-0001	
 4.62500000000000E+0002	 1.49974363036664E-0001	
 4.64500000000000E+0002	 1.50739532751658E-0001	
 4.66500000000000E+0002	 1.51232702466652E-0001	
 4.68500000000000E+0002	 1.51798872181646E-0001	
 4.70500000000000E+0002	 1.52178541896640E-0001	
 4.72500000000000E+0002	 1.52732211611634E-0001	
 4.74500000000000E+0002	 1.53583381326627E-0001	
 4.76500000000000E+0002	 1.54427051041621E-0001	
 4.78500000000000E+0002	 1.55047720756615E-0001	
 4.80500000000000E+0002	 1.55642890471609E-0001	
 4.82500000000000E+0002	 1.56221060186603E-0001	
 4.84500000000000E+0002	 1.56920729901596E-0001	
 4.86500000000000E+0002	 1.57599899616590E-0001	
 4.88500000000000E+0002	 1.58363069331584E-0001	
 4.90500000000000E+0002	 1.59083239046578E-0001	
 4.92500000000000E+0002	 1.59941408761572E-0001	
 4.94500000000000E+0002	 1.60837078476565E-0001	
 4.96500000000000E+0002	 1.61690748191559E-0001	
 4.98500000000000E+0002	 1.62456417906553E-0001	
 5.00500000000000E+0002	 1.63121587621547E-0001	
 5.02500000000000E+0002	 1.63945757336541E-0001	
 5.04500000000000E+0002	 1.65100427051534E-0001	
 5.06500000000000E+0002	 1.66212596766528E-0001	
 5.08500000000000E+0002	 1.67298266481522E-0001	
 5.10500000000000E+0002	 1.68419936196516E-0001	
 5.12500000000000E+0002	 1.69552105911510E-0001	
 5.14500000000000E+0002	 1.70596775626503E-0001	
 5.16500000000000E+0002	 1.71617945341497E-0001	
 5.18500000000000E+0002	 1.72739115056491E-0001	
 5.20500000000000E+0002	 1.73781284771485E-0001	
 5.22500000000000E+0002	 1.74566454486479E-0001	
 5.24500000000000E+0002	 1.75197624201472E-0001	
 5.26500000000000E+0002	 1.76040293916466E-0001	
 5.28500000000000E+0002	 1.77016463631460E-0001	
 5.30500000000000E+0002	 1.77652633346454E-0001	
 5.32500000000000E+0002	 1.78145303061448E-0001	
 5.34500000000000E+0002	 1.78645972776441E-0001	
 5.36500000000000E+0002	 1.79118142491435E-0001	
 5.38500000000000E+0002	 1.79377312206429E-0001	
 5.40500000000000E+0002	 1.79509481921423E-0001	
 5.42500000000000E+0002	 1.79501651636417E-0001	
 5.44500000000000E+0002	 1.79460821351410E-0001	
 5.46500000000000E+0002	 1.79453491066404E-0001	
 5.48500000000000E+0002	 1.79513660781398E-0001	
 5.50500000000000E+0002	 1.79585330496392E-0001	
 5.52500000000000E+0002	 1.79658000211386E-0001	
 5.54500000000000E+0002	 1.79639169926379E-0001	
 5.56500000000000E+0002	 1.79608339641373E-0001	
 5.58500000000000E+0002	 1.79571009356367E-0001	
 5.60500000000000E+0002	 1.79466679071361E-0001	
 5.62500000000000E+0002	 1.79218348786355E-0001	
 5.64500000000000E+0002	 1.78927018501348E-0001	
 5.66500000000000E+0002	 1.78648688216342E-0001	
 5.68500000000000E+0002	 1.78453857931336E-0001	
 5.70500000000000E+0002	 1.78272527646330E-0001	
 5.72500000000000E+0002	 1.78115697361324E-0001	
 5.74500000000000E+0002	 1.77893867076318E-0001	
 5.76500000000000E+0002	 1.77822536791311E-0001	
 5.78500000000000E+0002	 1.77874206506305E-0001	
 5.80500000000000E+0002	 1.77866876221299E-0001	
 5.82500000000000E+0002	 1.77750045936293E-0001	
 5.84500000000000E+0002	 1.77601215651287E-0001	
 5.86500000000000E+0002	 1.77452885366280E-0001	
 5.88500000000000E+0002	 1.77354555081274E-0001	
 5.90500000000000E+0002	 1.77273224796268E-0001	
 5.92500000000000E+0002	 1.77304394511262E-0001	
 5.94500000000000E+0002	 1.77454064226256E-0001	
 5.96500000000000E+0002	 1.77633733941249E-0001	
 5.98500000000000E+0002	 1.77724903656243E-0001	
 6.00500000000000E+0002	 1.77776073371237E-0001	
 6.02500000000000E+0002	 1.77827243086231E-0001	
 6.04500000000000E+0002	 1.77815912801225E-0001	
 6.06500000000000E+0002	 1.77743582516218E-0001	
 6.08500000000000E+0002	 1.77641752231212E-0001	
 6.10500000000000E+0002	 1.77530921946206E-0001	
 6.12500000000000E+0002	 1.77431591661200E-0001	
 6.14500000000000E+0002	 1.77340761376194E-0001	
 6.16500000000000E+0002	 1.77319431091187E-0001	
 6.18500000000000E+0002	 1.77162100806181E-0001	
 6.20500000000000E+0002	 1.76838770521175E-0001	
 6.22500000000000E+0002	 1.76462440236169E-0001	
 6.24500000000000E+0002	 1.76028609951163E-0001	
 6.26500000000000E+0002	 1.75613779666156E-0001	
 6.28500000000000E+0002	 1.75183949381150E-0001	
 6.30500000000000E+0002	 1.74717619096144E-0001	
 6.32500000000000E+0002	 1.74182288811138E-0001	
 6.34500000000000E+0002	 1.73652958526132E-0001	
 6.36500000000000E+0002	 1.73194128241125E-0001	
 6.38500000000000E+0002	 1.72823797956119E-0001	
 6.40500000000000E+0002	 1.72442467671113E-0001	
 6.42500000000000E+0002	 1.72036637386107E-0001	
 6.44500000000000E+0002	 1.71583307101101E-0001	
 6.46500000000000E+0002	 1.71150976816094E-0001	
 6.48500000000000E+0002	 1.70683646531088E-0001	
 6.50500000000000E+0002	 1.70135316246082E-0001	
 6.52500000000000E+0002	 1.69600985961076E-0001	
 6.54500000000000E+0002	 1.69171655676070E-0001	
 6.56500000000000E+0002	 1.68822325391063E-0001	
 6.58500000000000E+0002	 1.68465995106057E-0001	
 6.60500000000000E+0002	 1.68151664821051E-0001	
 6.62500000000000E+0002	 1.67780834536045E-0001	
 6.64500000000000E+0002	 1.67036004251039E-0001	
 6.66500000000000E+0002	 1.65291673966033E-0001	
 6.68500000000000E+0002	 1.64317343681026E-0001	
 6.70500000000000E+0002	 1.65260513396020E-0001	
 6.72500000000000E+0002	 1.65350183111014E-0001	
 6.74500000000000E+0002	 1.64796852826008E-0001	
 6.76500000000000E+0002	 1.64139022541002E-0001	
 6.78500000000000E+0002	 1.63489692255995E-0001	
 6.80500000000000E+0002	 1.62835861970989E-0001	
 6.82500000000000E+0002	 1.62213531685983E-0001	
 6.84500000000000E+0002	 1.61653201400977E-0001	
 6.86500000000000E+0002	 1.61134871115971E-0001	
 6.88500000000000E+0002	 1.60640540830964E-0001	
 6.90500000000000E+0002	 1.60215710545958E-0001	
 6.92500000000000E+0002	 1.59871880260952E-0001	
 6.94500000000000E+0002	 1.59580049975946E-0001	
 6.96500000000000E+0002	 1.59358219690940E-0001	
 6.98500000000000E+0002	 1.59088889405933E-0001	
 7.00500000000000E+0002	 1.58719059120927E-0001	
 7.02500000000000E+0002	 1.58127728835921E-0001	
 7.04500000000000E+0002	 1.57400398550915E-0001	
 7.06500000000000E+0002	 1.56568068265909E-0001	
 7.08500000000000E+0002	 1.55724237980902E-0001	
 7.10500000000000E+0002	 1.54931407695896E-0001	
 7.12500000000000E+0002	 1.54160577410890E-0001	
 7.14500000000000E+0002	 1.53308747125884E-0001	
 7.16500000000000E+0002	 1.52410916840878E-0001	
 7.18500000000000E+0002	 1.51564586555871E-0001	
 7.20500000000000E+0002	 1.50672756270865E-0001	
 7.22500000000000E+0002	 1.49598425985859E-0001	
 7.24500000000000E+0002	 1.48395595700853E-0001	
 7.26500000000000E+0002	 1.47050265415847E-0001	
 7.28500000000000E+0002	 1.45599435130840E-0001	
 7.30500000000000E+0002	 1.44140604845834E-0001	
 7.32500000000000E+0002	 1.42807774560828E-0001	
 7.34500000000000E+0002	 1.41642944275822E-0001	
 7.36500000000000E+0002	 1.40653113990816E-0001	
 7.38500000000000E+0002	 1.39783283705809E-0001	
 7.40500000000000E+0002	 1.39001953420803E-0001	
 7.42500000000000E+0002	 1.38247623135797E-0001	
 7.44500000000000E+0002	 1.37524292850791E-0001	
 7.46500000000000E+0002	 1.36803962565785E-0001	
 7.48500000000000E+0002	 1.36073632280778E-0001	
 7.50500000000000E+0002	 1.35368301995772E-0001	
 7.52500000000000E+0002	 1.34693971710766E-0001	
 7.54500000000000E+0002	 1.34104641425760E-0001	
 7.56500000000000E+0002	 1.33594311140754E-0001	
 7.58500000000000E+0002	 1.33147480855748E-0001	
 7.60500000000000E+0002	 1.32797650570741E-0001	
 7.62500000000000E+0002	 1.32567820285735E-0001	
 7.64500000000000E+0002	 1.32280490000729E-0001	
 7.66500000000000E+0002	 1.31663659715723E-0001	
 7.68500000000000E+0002	 1.30630329430717E-0001	
 7.70500000000000E+0002	 1.29395499145710E-0001	
 7.72500000000000E+0002	 1.28323168860704E-0001	
 7.74500000000000E+0002	 1.27660838575698E-0001	
 7.76500000000000E+0002	 1.27689508290692E-0001	
 7.78500000000000E+0002	 1.28127678005686E-0001	
 7.80500000000000E+0002	 1.28122847720679E-0001	
 7.82500000000000E+0002	 1.27245517435673E-0001	
 7.84500000000000E+0002	 1.26108687150667E-0001	
 7.86500000000000E+0002	 1.25085856865661E-0001	
 7.88500000000000E+0002	 1.24156026580655E-0001	
 7.90500000000000E+0002	 1.23341696295648E-0001	
 7.92500000000000E+0002	 1.22904366010642E-0001	
 7.94500000000000E+0002	 1.22841035725636E-0001	
 7.96500000000000E+0002	 1.22694705440630E-0001	
 7.98500000000000E+0002	 1.22139375155624E-0001	
 8.00500000000000E+0002	 1.21293544870617E-0001	
 8.02500000000000E+0002	 1.20424214585611E-0001	
 8.04500000000000E+0002	 1.19690384300605E-0001	
 8.06500000000000E+0002	 1.19105554015599E-0001	
 8.08500000000000E+0002	 1.18651223730593E-0001	
 8.10500000000000E+0002	 1.18202893445586E-0001	
 8.12500000000000E+0002	 1.17650063160580E-0001	
 8.14500000000000E+0002	 1.16937232875574E-0001	
 8.16500000000000E+0002	 1.16149402590568E-0001	
 8.18500000000000E+0002	 1.15348072305562E-0001	
 8.20500000000000E+0002	 1.14691742020555E-0001	
 8.22500000000000E+0002	 1.14166411735549E-0001	
 8.24500000000000E+0002	 1.13794081450543E-0001	
 8.26500000000000E+0002	 1.13454751165537E-0001	
 8.28500000000000E+0002	 1.13113920880531E-0001	
 8.30500000000000E+0002	 1.12718590595524E-0001	
 8.32500000000000E+0002	 1.12278260310518E-0001	
 8.34500000000000E+0002	 1.11747930025512E-0001	
 8.36500000000000E+0002	 1.11136099740506E-0001	
 8.38500000000000E+0002	 1.10442769455500E-0001	
 8.40500000000000E+0002	 1.09721439170493E-0001	
 8.42500000000000E+0002	 1.09014608885487E-0001	
 8.44500000000000E+0002	 1.08401278600481E-0001	
 8.46500000000000E+0002	 1.07908948315475E-0001	
 8.48500000000000E+0002	 1.07617618030469E-0001	
 8.50500000000000E+0002	 1.07528287745462E-0001	
 8.52500000000000E+0002	 1.07691957460456E-0001	
 8.54500000000000E+0002	 1.08009627175450E-0001	
 8.56500000000000E+0002	 1.08414796890444E-0001	
 8.58500000000000E+0002	 1.08766466605438E-0001	
 8.60500000000000E+0002	 1.08936136320432E-0001	
 8.62500000000000E+0002	 1.08824306035425E-0001	
 8.64500000000000E+0002	 1.08449475750419E-0001	
 8.66500000000000E+0002	 1.07870645465413E-0001	
 8.68500000000000E+0002	 1.07299315180407E-0001	
 8.70500000000000E+0002	 1.07016984895401E-0001	
 8.72500000000000E+0002	 1.06849654610394E-0001	
 8.74500000000000E+0002	 1.06350824325388E-0001	
 8.76500000000000E+0002	 1.05738494040382E-0001	
 8.78500000000000E+0002	 1.05323163755376E-0001	
 8.80500000000000E+0002	 1.05063333470370E-0001	
 8.82500000000000E+0002	 1.04817003185363E-0001	
 8.84500000000000E+0002	 1.04528172900357E-0001	
 8.86500000000000E+0002	 1.04141842615351E-0001	
 8.88500000000000E+0002	 1.03706012330345E-0001	
 8.90500000000000E+0002	 1.03207682045339E-0001	
 8.92500000000000E+0002	 1.02766851760332E-0001	
 8.94500000000000E+0002	 1.02370021475326E-0001	
 8.96500000000000E+0002	 1.02002691190320E-0001	
 8.98500000000000E+0002	 1.01631360905314E-0001	
 9.00500000000000E+0002	 1.01378530620308E-0001	
 9.02500000000000E+0002	 1.01311200335301E-0001	
 9.04500000000000E+0002	 1.01579870050295E-0001	
 9.06500000000000E+0002	 1.02245539765289E-0001	
 9.08500000000000E+0002	 1.03281209480283E-0001	
 9.10500000000000E+0002	 1.04503379195277E-0001	
 9.12500000000000E+0002	 1.05627048910270E-0001	
 9.14500000000000E+0002	 1.06364218625264E-0001	
 9.16500000000000E+0002	 1.06545388340258E-0001	
 9.18500000000000E+0002	 1.06142558055252E-0001	
 9.20500000000000E+0002	 1.05290227770246E-0001	
 9.22500000000000E+0002	 1.04175897485239E-0001	
 9.24500000000000E+0002	 1.03030567200233E-0001	
 9.26500000000000E+0002	 1.01957236915227E-0001	
 9.28500000000000E+0002	 1.01073406630221E-0001	
 9.30500000000000E+0002	 1.00381576345215E-0001	
 9.32500000000000E+0002	 9.99317460602085E-0002	
 9.34500000000000E+0002	 9.96314157752023E-0002	
 9.36500000000000E+0002	 9.94875854901961E-0002	
 9.38500000000000E+0002	 9.94507552051899E-0002	
 9.40500000000000E+0002	 9.95449249201837E-0002	
 9.42500000000000E+0002	 9.97340946351775E-0002	
 9.44500000000000E+0002	 1.00031764350171E-0001	
 9.46500000000000E+0002	 1.00414934065165E-0001	
 9.48500000000000E+0002	 1.00890603780159E-0001	
 9.50500000000000E+0002	 1.01465773495153E-0001	
 9.52500000000000E+0002	 1.02211943210147E-0001	
 9.54500000000000E+0002	 1.03222112925140E-0001	
 9.56500000000000E+0002	 1.04555282640134E-0001	
 9.58500000000000E+0002	 1.06158452355128E-0001	
 9.60500000000000E+0002	 1.07941122070122E-0001	
 9.62500000000000E+0002	 1.09780291785116E-0001	
 9.64500000000000E+0002	 1.11582461500109E-0001	
 9.66500000000000E+0002	 1.13245131215103E-0001	
 9.68500000000000E+0002	 1.14736300930097E-0001	
 9.70500000000000E+0002	 1.15969470645091E-0001	
 9.72500000000000E+0002	 1.16985140360085E-0001	
 9.74500000000000E+0002	 1.17885810075078E-0001	
 9.76500000000000E+0002	 1.18937479790072E-0001	
 9.78500000000000E+0002	 1.20409649505066E-0001	
 9.80500000000000E+0002	 1.22546319220060E-0001	
 9.82500000000000E+0002	 1.25363488935054E-0001	
 9.84500000000000E+0002	 1.28622658650047E-0001	
 9.86500000000000E+0002	 1.31909328365041E-0001	
 9.88500000000000E+0002	 1.34822498080035E-0001	
 9.90500000000000E+0002	 1.37128667795029E-0001	
 9.92500000000000E+0002	 1.38851837510023E-0001	
 9.94500000000000E+0002	 1.40226507225016E-0001	
 9.96500000000000E+0002	 1.41584176940010E-0001	
 9.98500000000000E+0002	 1.43214846655004E-0001	
 1.00050000000000E+0003	 1.45351516369998E-0001	
 1.00250000000000E+0003	 1.48026186084992E-0001	
 1.00450000000000E+0003	 1.51193855799985E-0001	
 1.00650000000000E+0003	 1.54742025514979E-0001	
 1.00850000000000E+0003	 1.58599195229973E-0001	
 1.01050000000000E+0003	 1.62615364944967E-0001	
 1.01250000000000E+0003	 1.66708034659961E-0001	
 1.01450000000000E+0003	 1.70740204374954E-0001	
 1.01650000000000E+0003	 1.74625374089948E-0001	
 1.01850000000000E+0003	 1.78234543804942E-0001	
 1.02050000000000E+0003	 1.81493213519936E-0001	
 1.02250000000000E+0003	 1.84423383234930E-0001	
 1.02450000000000E+0003	 1.87167052949923E-0001	
 1.02650000000000E+0003	 1.89883222664917E-0001	
 1.02850000000000E+0003	 1.92691392379911E-0001	
 1.03050000000000E+0003	 1.95580562094905E-0001	
 1.03250000000000E+0003	 1.98459231809899E-0001	
 1.03450000000000E+0003	 2.01169401524892E-0001	
 1.03650000000000E+0003	 2.03586571239886E-0001	
 1.03850000000000E+0003	 2.05555240954880E-0001	
 1.04050000000000E+0003	 2.07072410669874E-0001	
 1.04250000000000E+0003	 2.08271080384868E-0001	
 1.04450000000000E+0003	 2.09488250099862E-0001	
 1.04650000000000E+0003	 2.11024919814855E-0001	
 1.04850000000000E+0003	 2.13115089529849E-0001	
 1.05050000000000E+0003	 2.15642759244843E-0001	
 1.05250000000000E+0003	 2.18175428959837E-0001	
 1.05450000000000E+0003	 2.20237598674831E-0001	
 1.05650000000000E+0003	 2.21651268389824E-0001	
 1.05850000000000E+0003	 2.22458938104818E-0001	
 1.06050000000000E+0003	 2.22804107819812E-0001	
 1.06250000000000E+0003	 2.23026777534806E-0001	
 1.06450000000000E+0003	 2.23539947249800E-0001	
 1.06650000000000E+0003	 2.24617116964793E-0001	
 1.06850000000000E+0003	 2.26204786679787E-0001	
 1.07050000000000E+0003	 2.28060456394781E-0001	
 1.07250000000000E+0003	 2.29917626109775E-0001	
 1.07450000000000E+0003	 2.31569295824769E-0001	
 1.07650000000000E+0003	 2.32868965539762E-0001	
 1.07850000000000E+0003	 2.33665635254756E-0001	
 1.08050000000000E+0003	 2.33873304969750E-0001	
 1.08250000000000E+0003	 2.33337474684744E-0001	
 1.08450000000000E+0003	 2.31884644399738E-0001	
 1.08650000000000E+0003	 2.29251814114731E-0001	
 1.08850000000000E+0003	 2.25449983829725E-0001	
 1.09050000000000E+0003	 2.20935153544719E-0001	
 1.09250000000000E+0003	 2.16565823259713E-0001	
 1.09450000000000E+0003	 2.13060492974707E-0001	
 1.09650000000000E+0003	 2.10650662689700E-0001	
 1.09850000000000E+0003	 2.08964832404694E-0001	
 1.10050000000000E+0003	 2.07493502119688E-0001	
 1.10250000000000E+0003	 2.05859171834682E-0001	
 1.10450000000000E+0003	 2.03955841549676E-0001	
 1.10650000000000E+0003	 2.01911511264669E-0001	
 1.10850000000000E+0003	 2.00027180979663E-0001	
 1.11050000000000E+0003	 1.98523850694657E-0001	
 1.11250000000000E+0003	 1.97465020409651E-0001	
 1.11450000000000E+0003	 1.96610690124645E-0001	
 1.11650000000000E+0003	 1.95688859839638E-0001	
 1.11850000000000E+0003	 1.94457529554632E-0001	
 1.12050000000000E+0003	 1.92782699269626E-0001	
 1.12250000000000E+0003	 1.90571368984620E-0001	
 1.12450000000000E+0003	 1.87874538699614E-0001	
 1.12650000000000E+0003	 1.84795708414607E-0001	
 1.12850000000000E+0003	 1.81498378129601E-0001	
 1.13050000000000E+0003	 1.78100547844595E-0001	
 1.13250000000000E+0003	 1.74723717559589E-0001	
 1.13450000000000E+0003	 1.71489887274583E-0001	
 1.13650000000000E+0003	 1.68498556989577E-0001	
 1.13850000000000E+0003	 1.65859226704570E-0001	
 1.14050000000000E+0003	 1.63726896419564E-0001	
 1.14250000000000E+0003	 1.62200066134558E-0001	
 1.14450000000000E+0003	 1.61266735849552E-0001	
 1.14650000000000E+0003	 1.60708905564546E-0001	
 1.14850000000000E+0003	 1.60250575279539E-0001	
 1.15050000000000E+0003	 1.59590244994533E-0001	
 1.15250000000000E+0003	 1.58574914709527E-0001	
 1.15450000000000E+0003	 1.57150584424521E-0001	
 1.15650000000000E+0003	 1.55485254139515E-0001	
 1.15850000000000E+0003	 1.53680923854508E-0001	
 1.16050000000000E+0003	 1.51837593569502E-0001	
 1.16250000000000E+0003	 1.49865263284496E-0001	
 1.16450000000000E+0003	 1.47735932999490E-0001	
 1.16650000000000E+0003	 1.45453602714484E-0001	
 1.16850000000000E+0003	 1.43151272429477E-0001	
 1.17050000000000E+0003	 1.40881442144471E-0001	
 1.17250000000000E+0003	 1.38611111859465E-0001	
 1.17450000000000E+0003	 1.36265281574459E-0001	
 1.17650000000000E+0003	 1.33887451289453E-0001	
 1.17850000000000E+0003	 1.31587121004446E-0001	
 1.18050000000000E+0003	 1.29535790719440E-0001	
 1.18250000000000E+0003	 1.27870460434434E-0001	
 1.18450000000000E+0003	 1.26705130149428E-0001	
 1.18650000000000E+0003	 1.26065799864422E-0001	
 1.18850000000000E+0003	 1.25992969579415E-0001	
 1.19050000000000E+0003	 1.26449639294409E-0001	
 1.19250000000000E+0003	 1.27461309009403E-0001	
 1.19450000000000E+0003	 1.28962978724397E-0001	
 1.19650000000000E+0003	 1.30938648439391E-0001	
 1.19850000000000E+0003	 1.33250318154384E-0001	
 1.20050000000000E+0003	 1.35777487869378E-0001	
 1.20250000000000E+0003	 1.38345157584372E-0001	
 1.20450000000000E+0003	 1.40861827299366E-0001	
 1.20650000000000E+0003	 1.43198997014360E-0001	
 1.20850000000000E+0003	 1.45354666729353E-0001	
 1.21050000000000E+0003	 1.47470336444347E-0001	
 1.21250000000000E+0003	 1.49845506159341E-0001	
 1.21450000000000E+0003	 1.52679675874335E-0001	
 1.21650000000000E+0003	 1.55563845589329E-0001	
 1.21850000000000E+0003	 1.57536015304322E-0001	
 1.22050000000000E+0003	 1.58676685019316E-0001	
 1.22250000000000E+0003	 1.60115354734310E-0001	
 1.22450000000000E+0003	 1.62050024449304E-0001	
 1.22650000000000E+0003	 1.64004194164298E-0001	
 1.22850000000000E+0003	 1.65795863879291E-0001	
 1.23050000000000E+0003	 1.67310033594285E-0001	
 1.23250000000000E+0003	 1.68509203309279E-0001	
 1.23450000000000E+0003	 1.69331873024273E-0001	
 1.23650000000000E+0003	 1.69824542739267E-0001	
 1.23850000000000E+0003	 1.70019712454261E-0001	
 1.24050000000000E+0003	 1.69986882169254E-0001	
 1.24250000000000E+0003	 1.69696551884248E-0001	
 1.24450000000000E+0003	 1.69160721599242E-0001	
 1.24650000000000E+0003	 1.68323891314236E-0001	
 1.24850000000000E+0003	 1.67200561029230E-0001	
 1.25050000000000E+0003	 1.65810730744223E-0001	
 1.25250000000000E+0003	 1.64213900459217E-0001	
 1.25450000000000E+0003	 1.62473070174211E-0001	
 1.25650000000000E+0003	 1.60673239889205E-0001	
 1.25850000000000E+0003	 1.58850909604199E-0001	
 1.26050000000000E+0003	 1.57059579319192E-0001	
 1.26250000000000E+0003	 1.55276749034186E-0001	
 1.26450000000000E+0003	 1.53532918749180E-0001	
 1.26650000000000E+0003	 1.51861588464174E-0001	
 1.26850000000000E+0003	 1.50328758179168E-0001	
 1.27050000000000E+0003	 1.48959427894161E-0001	
 1.27250000000000E+0003	 1.47791097609155E-0001	
 1.27450000000000E+0003	 1.46763267324149E-0001	
 1.27650000000000E+0003	 1.45914937039143E-0001	
 1.27850000000000E+0003	 1.45245606754137E-0001	
 1.28050000000000E+0003	 1.44744276469130E-0001	
 1.28250000000000E+0003	 1.44265446184124E-0001	
 1.28450000000000E+0003	 1.43760615899118E-0001	
 1.28650000000000E+0003	 1.43276785614112E-0001	
 1.28850000000000E+0003	 1.42932955329106E-0001	
 1.29050000000000E+0003	 1.42719125044099E-0001	
 1.29250000000000E+0003	 1.42623294759093E-0001	
 1.29450000000000E+0003	 1.42618964474087E-0001	
 1.29650000000000E+0003	 1.42767134189081E-0001	
 1.29850000000000E+0003	 1.43056303904075E-0001	
 1.30050000000000E+0003	 1.43459473619068E-0001	
 1.30250000000000E+0003	 1.43877643334062E-0001	
 1.30450000000000E+0003	 1.44260813049056E-0001	
 1.30650000000000E+0003	 1.44543482764050E-0001	
 1.30850000000000E+0003	 1.44811652479044E-0001	
 1.31050000000000E+0003	 1.45010322194037E-0001	
 1.31250000000000E+0003	 1.45193491909031E-0001	
 1.31450000000000E+0003	 1.45313661624025E-0001	
 1.31650000000000E+0003	 1.45238331339019E-0001	
 1.31850000000000E+0003	 1.45032501054013E-0001	
 1.32050000000000E+0003	 1.44733670769006E-0001	
 1.32250000000000E+0003	 1.44252340484000E-0001	
 1.32450000000000E+0003	 1.43749010198994E-0001	
 1.32650000000000E+0003	 1.43302179913988E-0001	
 1.32850000000000E+0003	 1.42997349628982E-0001	
 1.33050000000000E+0003	 1.42849519343976E-0001	
 1.33250000000000E+0003	 1.42866189058969E-0001	
 1.33450000000000E+0003	 1.42886358773963E-0001	
 1.33650000000000E+0003	 1.42864028488957E-0001	
 1.33850000000000E+0003	 1.42908698203951E-0001	
 1.34050000000000E+0003	 1.43185867918945E-0001	
 1.34250000000000E+0003	 1.43204537633938E-0001	
 1.34450000000000E+0003	 1.43054207348932E-0001	
 1.34650000000000E+0003	 1.42896377063926E-0001	
 1.34850000000000E+0003	 1.42855546778920E-0001	
 1.35050000000000E+0003	 1.42963216493914E-0001	
 1.35250000000000E+0003	 1.43156886208907E-0001	
 1.35450000000000E+0003	 1.43417055923901E-0001	
 1.35650000000000E+0003	 1.43755725638895E-0001	
 1.35850000000000E+0003	 1.44125395353889E-0001	
 1.36050000000000E+0003	 1.44706065068883E-0001	
 1.36250000000000E+0003	 1.46037734783876E-0001	
 1.36450000000000E+0003	 1.48291404498870E-0001	
 1.36650000000000E+0003	 1.50480574213864E-0001	
 1.36850000000000E+0003	 1.52722243928858E-0001	
 1.37050000000000E+0003	 1.54824913643852E-0001	
 1.37250000000000E+0003	 1.56478583358845E-0001	
 1.37450000000000E+0003	 1.58347253073839E-0001	
 1.37650000000000E+0003	 1.60025922788833E-0001	
 1.37850000000000E+0003	 1.61142092503827E-0001	
 1.38050000000000E+0003	 1.61983262218821E-0001	
 1.38250000000000E+0003	 1.62604931933814E-0001	
 1.38450000000000E+0003	 1.62821601648808E-0001	
 1.38650000000000E+0003	 1.62624771363802E-0001	
 1.38850000000000E+0003	 1.62789441078796E-0001	
 1.39050000000000E+0003	 1.63241110793790E-0001	
 1.39250000000000E+0003	 1.63617280508783E-0001	
 1.39450000000000E+0003	 1.64051450223777E-0001	
 1.39650000000000E+0003	 1.64824619938771E-0001	
 1.39850000000000E+0003	 1.65613789653765E-0001	
 1.40050000000000E+0003	 1.66372959368759E-0001	
 1.40250000000000E+0003	 1.66458129083752E-0001	
 1.40450000000000E+0003	 1.66070298798746E-0001	
 1.40650000000000E+0003	 1.65492968513740E-0001	
 1.40850000000000E+0003	 1.64513638228734E-0001	
 1.41050000000000E+0003	 1.63407807943728E-0001	
 1.41250000000000E+0003	 1.62226477658721E-0001	
 1.41450000000000E+0003	 1.60887147373715E-0001	
 1.41650000000000E+0003	 1.59061317088709E-0001	
 1.41850000000000E+0003	 1.57222986803703E-0001	
 1.42050000000000E+0003	 1.55833656518697E-0001	
 1.42250000000000E+0003	 1.55057826233691E-0001	
 1.42450000000000E+0003	 1.54480495948684E-0001	
 1.42650000000000E+0003	 1.53310165663678E-0001	
 1.42850000000000E+0003	 1.51981835378672E-0001	
 1.43050000000000E+0003	 1.51374505093666E-0001	
 1.43250000000000E+0003	 1.51264174808660E-0001	
 1.43450000000000E+0003	 1.51014344523653E-0001	
 1.43650000000000E+0003	 1.50942514238647E-0001	
 1.43850000000000E+0003	 1.52489683953641E-0001	
 1.44050000000000E+0003	 1.54507853668635E-0001	
 1.44250000000000E+0003	 1.56082023383629E-0001	
 1.44450000000000E+0003	 1.56871693098622E-0001	
 1.44650000000000E+0003	 1.57435862813616E-0001	
 1.44850000000000E+0003	 1.58137032528610E-0001	
 1.45050000000000E+0003	 1.58869702243604E-0001	
 1.45250000000000E+0003	 1.59208871958598E-0001	
 1.45450000000000E+0003	 1.58179541673591E-0001	
 1.45650000000000E+0003	 1.55566211388585E-0001	
 1.45850000000000E+0003	 1.54317881103579E-0001	
 1.46050000000000E+0003	 1.53732050818573E-0001	
 1.46250000000000E+0003	 1.52621720533567E-0001	
 1.46450000000000E+0003	 1.50474390248560E-0001	
 1.46650000000000E+0003	 1.48856559963554E-0001	
 1.46850000000000E+0003	 1.47259729678548E-0001	
 1.47050000000000E+0003	 1.44458399393542E-0001	
 1.47250000000000E+0003	 1.40841569108536E-0001	
 1.47450000000000E+0003	 1.38144738823529E-0001	
 1.47650000000000E+0003	 1.36828908538523E-0001	
 1.47850000000000E+0003	 1.36296078253517E-0001	
 1.48050000000000E+0003	 1.35919247968511E-0001	
 1.48250000000000E+0003	 1.35962917683505E-0001	
 1.48450000000000E+0003	 1.35930587398498E-0001	
 1.48650000000000E+0003	 1.36029257113492E-0001	
 1.48850000000000E+0003	 1.36607926828486E-0001	
 1.49050000000000E+0003	 1.38500096543480E-0001	
 1.49250000000000E+0003	 1.40805266258474E-0001	
 1.49450000000000E+0003	 1.42958435973467E-0001	
 1.49650000000000E+0003	 1.45020605688461E-0001	
 1.49850000000000E+0003	 1.47942275403455E-0001	
 1.50050000000000E+0003	 1.51332945118449E-0001	
 1.50250000000000E+0003	 1.54571114833443E-0001	
 1.50450000000000E+0003	 1.56003284548436E-0001	
 1.50650000000000E+0003	 1.58806954263430E-0001	
 1.50850000000000E+0003	 1.65474123978424E-0001	
 1.51050000000000E+0003	 1.71988293693418E-0001	
 1.51250000000000E+0003	 1.78447963408412E-0001	
 1.51450000000000E+0003	 1.83918633123405E-0001	
 1.51650000000000E+0003	 1.89094302838399E-0001	
 1.51850000000000E+0003	 1.93415472553393E-0001	
 1.52050000000000E+0003	 1.96454142268387E-0001	
 1.52250000000000E+0003	 2.01228811983381E-0001	
 1.52450000000000E+0003	 2.06125981698375E-0001	
 1.52650000000000E+0003	 2.11991651413368E-0001	
 1.52850000000000E+0003	 2.17791821128362E-0001	
 1.53050000000000E+0003	 2.22488490843356E-0001	
 1.53250000000000E+0003	 2.26632160558350E-0001	
 1.53450000000000E+0003	 2.31876830273344E-0001	
 1.53650000000000E+0003	 2.35558499988337E-0001	
 1.53850000000000E+0003	 2.37673669703331E-0001	
 1.54050000000000E+0003	 2.41206839418325E-0001	
 1.54250000000000E+0003	 2.44693009133319E-0001	
 1.54450000000000E+0003	 2.48186178848313E-0001	
 1.54650000000000E+0003	 2.50284848563306E-0001	
 1.54850000000000E+0003	 2.50215518278300E-0001	
 1.55050000000000E+0003	 2.48758687993294E-0001	
 1.55250000000000E+0003	 2.45412857708288E-0001	
 1.55450000000000E+0003	 2.40430527423282E-0001	
 1.55650000000000E+0003	 2.34060197138275E-0001	
 1.55850000000000E+0003	 2.26810866853269E-0001	
 1.56050000000000E+0003	 2.21697536568263E-0001	
 1.56250000000000E+0003	 2.18639706283257E-0001	
 1.56450000000000E+0003	 2.16787875998251E-0001	
 1.56650000000000E+0003	 2.12925545713244E-0001	
 1.56850000000000E+0003	 2.08670215428238E-0001	
 1.57050000000000E+0003	 2.05074385143232E-0001	
 1.57250000000000E+0003	 2.01991054858226E-0001	
 1.57450000000000E+0003	 1.98788224573220E-0001	
 1.57650000000000E+0003	 1.95321894288213E-0001	
 1.57850000000000E+0003	 1.92604564003207E-0001	
 1.58050000000000E+0003	 1.91371733718201E-0001	
 1.58250000000000E+0003	 1.89837403433195E-0001	
 1.58450000000000E+0003	 1.88524073148189E-0001	
 1.58650000000000E+0003	 1.87704242863182E-0001	
 1.58850000000000E+0003	 1.87681912578176E-0001	
 1.59050000000000E+0003	 1.88272082293170E-0001	
 1.59250000000000E+0003	 1.89620252008164E-0001	
 1.59450000000000E+0003	 1.91482421723158E-0001	
 1.59650000000000E+0003	 1.94002591438151E-0001	
 1.59850000000000E+0003	 1.96704761153145E-0001	
 1.60050000000000E+0003	 1.99992430868139E-0001	
 1.60250000000000E+0003	 2.03802100583133E-0001	
 1.60450000000000E+0003	 2.08240770298127E-0001	
 1.60650000000000E+0003	 2.13019440013120E-0001	
 1.60850000000000E+0003	 2.18790609728114E-0001	
 1.61050000000000E+0003	 2.25312279443108E-0001	
 1.61250000000000E+0003	 2.32440449158102E-0001	
 1.61450000000000E+0003	 2.39145618873096E-0001	
 1.61650000000000E+0003	 2.47508288588090E-0001	
 1.61850000000000E+0003	 2.57446958303083E-0001	
 1.62050000000000E+0003	 2.67005128018077E-0001	
 1.62250000000000E+0003	 2.77304797733071E-0001	
 1.62450000000000E+0003	 2.88815467448065E-0001	
 1.62650000000000E+0003	 2.99684637163059E-0001	
 1.62850000000000E+0003	 3.11318806878052E-0001	
 1.63050000000000E+0003	 3.22515976593046E-0001	
 1.63250000000000E+0003	 3.31674146308040E-0001	
 1.63450000000000E+0003	 3.39417316023034E-0001	
 1.63650000000000E+0003	 3.48888985738028E-0001	
 1.63850000000000E+0003	 3.56854655453021E-0001	
 1.64050000000000E+0003	 3.63106325168015E-0001	
 1.64250000000000E+0003	 3.67644994883009E-0001	
 1.64450000000000E+0003	 3.70157664598003E-0001	
 1.64650000000000E+0003	 3.73137834312997E-0001	
 1.64850000000000E+0003	 3.77398504027990E-0001	
 1.65050000000000E+0003	 3.79442173742984E-0001	
 1.65250000000000E+0003	 3.79419843457978E-0001	
 1.65450000000000E+0003	 3.81064513172972E-0001	
 1.65650000000000E+0003	 3.81545682887966E-0001	
 1.65850000000000E+0003	 3.80590852602959E-0001	
 1.66050000000000E+0003	 3.75574022317953E-0001	
 1.66250000000000E+0003	 3.68421692032947E-0001	
 1.66450000000000E+0003	 3.60361861747941E-0001	
 1.66650000000000E+0003	 3.52233031462935E-0001	
 1.66850000000000E+0003	 3.43308701177928E-0001	
 1.67050000000000E+0003	 3.34203370892922E-0001	
 1.67250000000000E+0003	 3.25931040607916E-0001	
 1.67450000000000E+0003	 3.17732710322910E-0001	
 1.67650000000000E+0003	 3.09240380037904E-0001	
 1.67850000000000E+0003	 3.02021049752897E-0001	
 1.68050000000000E+0003	 2.94923219467891E-0001	
 1.68250000000000E+0003	 2.86290389182885E-0001	
 1.68450000000000E+0003	 2.77065058897879E-0001	
 1.68650000000000E+0003	 2.68354228612873E-0001	
 1.68850000000000E+0003	 2.62280898327866E-0001	
 1.69050000000000E+0003	 2.55696068042860E-0001	
 1.69250000000000E+0003	 2.47656737757854E-0001	
 1.69450000000000E+0003	 2.38849407472848E-0001	
 1.69650000000000E+0003	 2.29295577187842E-0001	
 1.69850000000000E+0003	 2.21042246902835E-0001	
 1.70050000000000E+0003	 2.13421416617829E-0001	
 1.70250000000000E+0003	 2.07701586332823E-0001	
 1.70450000000000E+0003	 2.04802256047817E-0001	
 1.70650000000000E+0003	 2.01323925762811E-0001	
 1.70850000000000E+0003	 1.97152595477805E-0001	
 1.71050000000000E+0003	 1.93460265192798E-0001	
 1.71250000000000E+0003	 1.89160434907792E-0001	
 1.71450000000000E+0003	 1.84370604622786E-0001	
 1.71650000000000E+0003	 1.79166274337780E-0001	
 1.71850000000000E+0003	 1.74185444052774E-0001	
 1.72050000000000E+0003	 1.70136613767767E-0001	
 1.72250000000000E+0003	 1.67200783482761E-0001	
 1.72450000000000E+0003	 1.63772453197755E-0001	
 1.72650000000000E+0003	 1.60033622912749E-0001	
 1.72850000000000E+0003	 1.56430292627743E-0001	
 1.73050000000000E+0003	 1.53230462342736E-0001	
 1.73250000000000E+0003	 1.49773132057730E-0001	
 1.73450000000000E+0003	 1.47322801772724E-0001	
 1.73650000000000E+0003	 1.46111971487718E-0001	
 1.73850000000000E+0003	 1.45896141202712E-0001	
 1.74050000000000E+0003	 1.44956810917705E-0001	
 1.74250000000000E+0003	 1.43447480632699E-0001	
 1.74450000000000E+0003	 1.42216650347693E-0001	
 1.74650000000000E+0003	 1.40302320062687E-0001	
 1.74850000000000E+0003	 1.37961489777681E-0001	
 1.75050000000000E+0003	 1.35465659492674E-0001	
 1.75250000000000E+0003	 1.33027329207668E-0001	
 1.75450000000000E+0003	 1.30954498922662E-0001	
 1.75650000000000E+0003	 1.28906168637656E-0001	
 1.75850000000000E+0003	 1.26640338352650E-0001	
 1.76050000000000E+0003	 1.24183008067643E-0001	
 1.76250000000000E+0003	 1.22217677782637E-0001	
 1.76450000000000E+0003	 1.20165347497631E-0001	
 1.76650000000000E+0003	 1.18240517212625E-0001	
 1.76850000000000E+0003	 1.16204686927619E-0001	
 1.77050000000000E+0003	 1.14261856642612E-0001	
 1.77250000000000E+0003	 1.13057026357606E-0001	
 1.77450000000000E+0003	 1.11991696072600E-0001	
 1.77650000000000E+0003	 1.11500365787594E-0001	
 1.77850000000000E+0003	 1.10947535502588E-0001	
 1.78050000000000E+0003	 1.10174705217581E-0001	
 1.78250000000000E+0003	 1.09396874932575E-0001	
 1.78450000000000E+0003	 1.08455544647569E-0001	
 1.78650000000000E+0003	 1.07862714362563E-0001	
 1.78850000000000E+0003	 1.06984884077557E-0001	
 1.79050000000000E+0003	 1.05848553792550E-0001	
 1.79250000000000E+0003	 1.05070223507544E-0001	
 1.79450000000000E+0003	 1.04572893222538E-0001	
 1.79650000000000E+0003	 1.04404562937532E-0001	
 1.79850000000000E+0003	 1.03995732652526E-0001	
 1.80050000000000E+0003	 1.03346902367519E-0001	
 1.80250000000000E+0003	 1.03090572082513E-0001	
 1.80450000000000E+0003	 1.02764741797507E-0001	
 1.80650000000000E+0003	 1.02377411512501E-0001	
 1.80850000000000E+0003	 1.01840581227495E-0001	
 1.81050000000000E+0003	 1.01441750942489E-0001	
 1.81250000000000E+0003	 1.01175420657482E-0001	
 1.81450000000000E+0003	 1.00791590372476E-0001	
 1.81650000000000E+0003	 1.00365260087470E-0001	
 1.81850000000000E+0003	 1.00074429802464E-0001	
 1.82050000000000E+0003	 9.96875995174575E-0002	
 1.82250000000000E+0003	 9.91077692324513E-0002	
 1.82450000000000E+0003	 9.85394389474451E-0002	
 1.82650000000000E+0003	 9.81786086624390E-0002	
 1.82850000000000E+0003	 9.76412783774328E-0002	
 1.83050000000000E+0003	 9.77524480924266E-0002	
 1.83250000000000E+0003	 9.75091178074204E-0002	
 1.83450000000000E+0003	 9.73797875224142E-0002	
 1.83650000000000E+0003	 9.73374572374080E-0002	
 1.83850000000000E+0003	 9.71621269524018E-0002	
 1.84050000000000E+0003	 9.66602966673956E-0002	
 1.84250000000000E+0003	 9.57339663823894E-0002	
 1.84450000000000E+0003	 9.52331360973832E-0002	
 1.84650000000000E+0003	 9.51908058123770E-0002	
 1.84850000000000E+0003	 9.56559755273708E-0002	
 1.85050000000000E+0003	 9.58791452423646E-0002	
 1.85250000000000E+0003	 9.57043149573584E-0002	
 1.85450000000000E+0003	 9.55604846723522E-0002	
 1.85650000000000E+0003	 9.53626543873460E-0002	
 1.85850000000000E+0003	 9.52058241023398E-0002	
 1.86050000000000E+0003	 9.50514938173336E-0002	
 1.86250000000000E+0003	 9.48811635323274E-0002	
 1.86450000000000E+0003	 9.45643332473212E-0002	
 1.86650000000000E+0003	 9.40950029623150E-0002	
 1.86850000000000E+0003	 9.39436726773088E-0002	
 1.87050000000000E+0003	 9.39643423923026E-0002	
 1.87250000000000E+0003	 9.39035121072965E-0002	
 1.87450000000000E+0003	 9.40611818222903E-0002	
 1.87650000000000E+0003	 9.40488515372841E-0002	
 1.87850000000000E+0003	 9.39505212522779E-0002	
 1.88050000000000E+0003	 9.38626909672717E-0002	
 1.88250000000000E+0003	 9.37413606822655E-0002	
 1.88450000000000E+0003	 9.36735303972593E-0002	
 1.88650000000000E+0003	 9.34527001122531E-0002	
 1.88850000000000E+0003	 9.32138698272469E-0002	
 1.89050000000000E+0003	 9.33065395422407E-0002	
 1.89250000000000E+0003	 9.31627092572345E-0002	
 1.89450000000000E+0003	 9.31403789722283E-0002	
 1.89650000000000E+0003	 9.32420486872221E-0002	
 1.89850000000000E+0003	 9.31332184022159E-0002	
 1.90050000000000E+0003	 9.30608881172097E-0002	
 1.90250000000000E+0003	 9.30040578322035E-0002	
 1.90450000000000E+0003	 9.29437275471973E-0002	
 1.90650000000000E+0003	 9.28173972621911E-0002	
 1.90850000000000E+0003	 9.27765669771849E-0002	
 1.91050000000000E+0003	 9.28342366921787E-0002	
 1.91250000000000E+0003	 9.27724064071725E-0002	
 1.91450000000000E+0003	 9.25645761221663E-0002	
 1.91650000000000E+0003	 9.22347458371601E-0002	
 1.91850000000000E+0003	 9.21884155521539E-0002	
 1.92050000000000E+0003	 9.21260852671478E-0002	
 1.92250000000000E+0003	 9.23397549821416E-0002	
 1.92450000000000E+0003	 9.26494246971354E-0002	
 1.92650000000000E+0003	 9.25415944121292E-0002	
 1.92850000000000E+0003	 9.25482641271230E-0002	
 1.93050000000000E+0003	 9.25464338421168E-0002	
 1.93250000000000E+0003	 9.25526035571106E-0002	
 1.93450000000000E+0003	 9.25572732721044E-0002	
 1.93650000000000E+0003	 9.25484429870982E-0002	
 1.93850000000000E+0003	 9.24891127020920E-0002	
 1.94050000000000E+0003	 9.22777824170858E-0002	
 1.94250000000000E+0003	 9.23534521320796E-0002	
 1.94450000000000E+0003	 9.25241218470734E-0002	
 1.94650000000000E+0003	 9.25392915620672E-0002	
 1.94850000000000E+0003	 9.26284612770610E-0002	
 1.95050000000000E+0003	 9.26311309920548E-0002	
 1.95250000000000E+0003	 9.26548007070486E-0002	
 1.95450000000000E+0003	 9.26799704220424E-0002	
 1.95650000000000E+0003	 9.27436401370362E-0002	
 1.95850000000000E+0003	 9.27603098520300E-0002	
 1.96050000000000E+0003	 9.27894795670238E-0002	
 1.96250000000000E+0003	 9.28151492820176E-0002	
 1.96450000000000E+0003	 9.27498189970114E-0002	
 1.96650000000000E+0003	 9.27914887120052E-0002	
 1.96850000000000E+0003	 9.29496584269991E-0002	
 1.97050000000000E+0003	 9.29378281419929E-0002	
 1.97250000000000E+0003	 9.29634978569867E-0002	
 1.97450000000000E+0003	 9.30211675719805E-0002	
 1.97650000000000E+0003	 9.30623372869743E-0002	
 1.97850000000000E+0003	 9.31030070019681E-0002	
 1.98050000000000E+0003	 9.31406767169619E-0002	
 1.98250000000000E+0003	 9.31798464319557E-0002	
 1.98450000000000E+0003	 9.32030161469495E-0002	
 1.98650000000000E+0003	 9.32101858619433E-0002	
 1.98850000000000E+0003	 9.32243555769371E-0002	
 1.99050000000000E+0003	 9.31760252919309E-0002	
 1.99250000000000E+0003	 9.33211950069247E-0002	
 1.99450000000000E+0003	 9.34333647219185E-0002	
 1.99650000000000E+0003	 9.34470344369123E-0002	
 1.99850000000000E+0003	 9.35442041519061E-0002	
 2.00050000000000E+0003	 9.36058738668999E-0002	
 2.00250000000000E+0003	 9.36610435818937E-0002	
 2.00450000000000E+0003	 9.37097132968875E-0002	
 2.00650000000000E+0003	 9.37683830118813E-0002	
 2.00850000000000E+0003	 9.38340527268751E-0002	
 2.01050000000000E+0003	 9.39052224418689E-0002	
 2.01250000000000E+0003	 9.39538921568627E-0002	
 2.01450000000000E+0003	 9.39560618718565E-0002	
 2.01650000000000E+0003	 9.40282315868504E-0002	
 2.01850000000000E+0003	 9.41904013018442E-0002	
 2.02050000000000E+0003	 9.42530710168380E-0002	
 2.02250000000000E+0003	 9.43222407318318E-0002	
 2.02450000000000E+0003	 9.44129104468256E-0002	
 2.02650000000000E+0003	 9.44945801618194E-0002	
 2.02850000000000E+0003	 9.45727498768132E-0002	
 2.03050000000000E+0003	 9.46404195918070E-0002	
 2.03250000000000E+0003	 9.47115893068008E-0002	
 2.03450000000000E+0003	 9.47822590217946E-0002	
 2.03650000000000E+0003	 9.48504287367884E-0002	
 2.03850000000000E+0003	 9.48960984517822E-0002	
 2.04050000000000E+0003	 9.49537681667760E-0002	
 2.04250000000000E+0003	 9.50594378817698E-0002	
 2.04450000000000E+0003	 9.51201075967636E-0002	
 2.04650000000000E+0003	 9.51727773117574E-0002	
 2.04850000000000E+0003	 9.52259470267512E-0002	
 2.05050000000000E+0003	 9.52776167417450E-0002	
 2.05250000000000E+0003	 9.53297864567388E-0002	
 2.05450000000000E+0003	 9.53814561717326E-0002	
 2.05650000000000E+0003	 9.54296258867264E-0002	
 2.05850000000000E+0003	 9.54662956017202E-0002	
 2.06050000000000E+0003	 9.55119653167140E-0002	
 2.06250000000000E+0003	 9.55241350317079E-0002	
 2.06450000000000E+0003	 9.55703047467017E-0002	
 2.06650000000000E+0003	 9.56584744616955E-0002	
 2.06850000000000E+0003	 9.56831441766893E-0002	
 2.07050000000000E+0003	 9.57138138916831E-0002	
 2.07250000000000E+0003	 9.57564836066769E-0002	
 2.07450000000000E+0003	 9.57976533216707E-0002	
 2.07650000000000E+0003	 9.58348230366645E-0002	
 2.07850000000000E+0003	 9.58684927516583E-0002	
 2.08050000000000E+0003	 9.59046624666521E-0002	
 2.08250000000000E+0003	 9.59338321816459E-0002	
 2.08450000000000E+0003	 9.59605018966397E-0002	
 2.08650000000000E+0003	 9.59811716116335E-0002	
 2.08850000000000E+0003	 9.60063413266273E-0002	
 2.09050000000000E+0003	 9.60520110416211E-0002	
 2.09250000000000E+0003	 9.60856807566149E-0002	
 2.09450000000000E+0003	 9.60983504716087E-0002	
 2.09650000000000E+0003	 9.61230201866025E-0002	
 2.09850000000000E+0003	 9.61386899015963E-0002	
 2.10050000000000E+0003	 9.61593596165901E-0002	
 2.10250000000000E+0003	 9.61745293315839E-0002	
 2.10450000000000E+0003	 9.61866990465777E-0002	
 2.10650000000000E+0003	 9.61988687615715E-0002	
 2.10850000000000E+0003	 9.62100384765653E-0002	
 2.11050000000000E+0003	 9.62167081915592E-0002	
 2.11250000000000E+0003	 9.62143779065530E-0002	
 2.11450000000000E+0003	 9.62205476215468E-0002	
 2.11650000000000E+0003	 9.62342173365406E-0002	
 2.11850000000000E+0003	 9.62363870515344E-0002	
 2.12050000000000E+0003	 9.62355567665282E-0002	
 2.12250000000000E+0003	 9.62342264815220E-0002	
 2.12450000000000E+0003	 9.62328961965158E-0002	
 2.12650000000000E+0003	 9.62280659115096E-0002	
 2.12850000000000E+0003	 9.62232356265034E-0002	
 2.13050000000000E+0003	 9.62109053414972E-0002	
 2.13250000000000E+0003	 9.62015750564910E-0002	
 2.13450000000000E+0003	 9.61827447714848E-0002	
 2.13650000000000E+0003	 9.61754144864786E-0002	
 2.13850000000000E+0003	 9.61570842014724E-0002	
 2.14050000000000E+0003	 9.61382539164662E-0002	
 2.14250000000000E+0003	 9.61209236314600E-0002	
 2.14450000000000E+0003	 9.61030933464538E-0002	
 2.14650000000000E+0003	 9.60812630614476E-0002	
 2.14850000000000E+0003	 9.60534327764414E-0002	
 2.15050000000000E+0003	 9.60251024914352E-0002	
 2.15250000000000E+0003	 9.59967722064290E-0002	
 2.15450000000000E+0003	 9.59744419214228E-0002	
 2.15650000000000E+0003	 9.59451116364166E-0002	
 2.15850000000000E+0003	 9.59067813514105E-0002	
 2.16050000000000E+0003	 9.58679510664043E-0002	
 2.16250000000000E+0003	 9.58331207813981E-0002	
 2.16450000000000E+0003	 9.58002904963919E-0002	
 2.16650000000000E+0003	 9.57624602113857E-0002	
 2.16850000000000E+0003	 9.57296299263795E-0002	
 2.17050000000000E+0003	 9.56892996413733E-0002	
 2.17250000000000E+0003	 9.56434693563671E-0002	
 2.17450000000000E+0003	 9.55931390713609E-0002	
 2.17650000000000E+0003	 9.55553087863547E-0002	
 2.17850000000000E+0003	 9.55154785013485E-0002	
 2.18050000000000E+0003	 9.54801482163423E-0002	
 2.18250000000000E+0003	 9.54428179313361E-0002	
 2.18450000000000E+0003	 9.54029876463299E-0002	
 2.18650000000000E+0003	 9.53641573613237E-0002	
 2.18850000000000E+0003	 9.53233270763175E-0002	
 2.19050000000000E+0003	 9.52864967913113E-0002	
 2.19250000000000E+0003	 9.52511665063051E-0002	
 2.19450000000000E+0003	 9.52198362212989E-0002	
 2.19650000000000E+0003	 9.51820059362927E-0002	
 2.19850000000000E+0003	 9.51416756512865E-0002	
 2.20050000000000E+0003	 9.51058453662803E-0002	
 2.20250000000000E+0003	 9.50695150812741E-0002	
 2.20450000000000E+0003	 9.50361847962679E-0002	
 2.20650000000000E+0003	 9.50013545112618E-0002	
 2.20850000000000E+0003	 9.49720242262556E-0002	
 2.21050000000000E+0003	 9.49396939412494E-0002	
 2.21250000000000E+0003	 9.49103636562432E-0002	
 2.21450000000000E+0003	 9.48740333712370E-0002	
 2.21650000000000E+0003	 9.48397030862308E-0002	
 2.21850000000000E+0003	 9.48058728012246E-0002	
 2.22050000000000E+0003	 9.47750425162184E-0002	
 2.22250000000000E+0003	 9.47402122312122E-0002	
 2.22450000000000E+0003	 9.47088819462060E-0002	
 2.22650000000000E+0003	 9.46760516611998E-0002	
 2.22850000000000E+0003	 9.46452213761936E-0002	
 2.23050000000000E+0003	 9.46143910911874E-0002	
 2.23250000000000E+0003	 9.45845608061812E-0002	
 2.23450000000000E+0003	 9.45562305211750E-0002	
 2.23650000000000E+0003	 9.45359002361688E-0002	
 2.23850000000000E+0003	 9.45120699511626E-0002	
 2.24050000000000E+0003	 9.44927396661564E-0002	
 2.24250000000000E+0003	 9.44684093811502E-0002	
 2.24450000000000E+0003	 9.44460790961440E-0002	
 2.24650000000000E+0003	 9.44242488111378E-0002	
 2.24850000000000E+0003	 9.44079185261316E-0002	
 2.25050000000000E+0003	 9.43885882411254E-0002	
 2.25250000000000E+0003	 9.43737579561193E-0002	
 2.25450000000000E+0003	 9.43574276711131E-0002	
 2.25650000000000E+0003	 9.43420973861069E-0002	
 2.25850000000000E+0003	 9.43222671011007E-0002	
 2.26050000000000E+0003	 9.43024368160945E-0002	
 2.26250000000000E+0003	 9.42856065310883E-0002	
 2.26450000000000E+0003	 9.42672762460821E-0002	
 2.26650000000000E+0003	 9.42469459610759E-0002	
 2.26850000000000E+0003	 9.42306156760697E-0002	
 2.27050000000000E+0003	 9.42172853910635E-0002	
 2.27250000000000E+0003	 9.42049551060573E-0002	
 2.27450000000000E+0003	 9.41906248210511E-0002	
 2.27650000000000E+0003	 9.41802945360449E-0002	
 2.27850000000000E+0003	 9.41669642510387E-0002	
 2.28050000000000E+0003	 9.41551339660325E-0002	
 2.28250000000000E+0003	 9.41368036810263E-0002	
 2.28450000000000E+0003	 9.41364733960201E-0002	
 2.28650000000000E+0003	 9.41536431110139E-0002	
 2.28850000000000E+0003	 9.41888128260077E-0002	
 2.29050000000000E+0003	 9.42254825410015E-0002	
 2.29250000000000E+0003	 9.42661522559953E-0002	
 2.29450000000000E+0003	 9.43093219709891E-0002	
 2.29650000000000E+0003	 9.43484916859829E-0002	
 2.29850000000000E+0003	 9.43776614009767E-0002	
 2.30050000000000E+0003	 9.43958311159706E-0002	
 2.30250000000000E+0003	 9.43890008309644E-0002	
 2.30450000000000E+0003	 9.43656705459582E-0002	
 2.30650000000000E+0003	 9.43758402609520E-0002	
 2.30850000000000E+0003	 9.44095099759458E-0002	
 2.31050000000000E+0003	 9.43981796909396E-0002	
 2.31250000000000E+0003	 9.43513494059334E-0002	
 2.31450000000000E+0003	 9.43455191209272E-0002	
 2.31650000000000E+0003	 9.43951888359210E-0002	
 2.31850000000000E+0003	 9.44048585509148E-0002	
 2.32050000000000E+0003	 9.44275282659086E-0002	
 2.32250000000000E+0003	 9.44706979809024E-0002	
 2.32450000000000E+0003	 9.45123676958962E-0002	
 2.32650000000000E+0003	 9.45240374108900E-0002	
 2.32850000000000E+0003	 9.44497071258838E-0002	
 2.33050000000000E+0003	 9.43223768408776E-0002	
 2.33250000000000E+0003	 9.42675465558714E-0002	
 2.33450000000000E+0003	 9.43037162708652E-0002	
 2.33650000000000E+0003	 9.43843859858590E-0002	
 2.33850000000000E+0003	 9.44660557008528E-0002	
 2.34050000000000E+0003	 9.45897254158466E-0002	
 2.34250000000000E+0003	 9.46578951308404E-0002	
 2.34450000000000E+0003	 9.44770648458342E-0002	
 2.34650000000000E+0003	 9.43302345608280E-0002	
 2.34850000000000E+0003	 9.44369042758219E-0002	
 2.35050000000000E+0003	 9.43950739908157E-0002	
 2.35250000000000E+0003	 9.42462437058095E-0002	
 2.35450000000000E+0003	 9.42689134208033E-0002	
 2.35650000000000E+0003	 9.44420831357971E-0002	
 2.35850000000000E+0003	 9.45387528507909E-0002	
 2.36050000000000E+0003	 9.45174225657847E-0002	
 2.36250000000000E+0003	 9.45045922807785E-0002	
 2.36450000000000E+0003	 9.45332619957723E-0002	
 2.36650000000000E+0003	 9.45574317107661E-0002	
 2.36850000000000E+0003	 9.46001014257599E-0002	
 2.37050000000000E+0003	 9.46062711407537E-0002	
 2.37250000000000E+0003	 9.45224408557475E-0002	
 2.37450000000000E+0003	 9.44171105707413E-0002	
 2.37650000000000E+0003	 9.44432802857351E-0002	
 2.37850000000000E+0003	 9.46384500007289E-0002	
 2.38050000000000E+0003	 9.48611197157227E-0002	
 2.38250000000000E+0003	 9.49752894307165E-0002	
 2.38450000000000E+0003	 9.49944591457103E-0002	
 2.38650000000000E+0003	 9.49841288607041E-0002	
 2.38850000000000E+0003	 9.49957985756979E-0002	
 2.39050000000000E+0003	 9.50284682906917E-0002	
 2.39250000000000E+0003	 9.50791380056855E-0002	
 2.39450000000000E+0003	 9.51323077206793E-0002	
 2.39650000000000E+0003	 9.51884774356732E-0002	
 2.39850000000000E+0003	 9.52446471506670E-0002	
 2.40050000000000E+0003	 9.53068168656608E-0002	
 2.40250000000000E+0003	 9.53704865806546E-0002	
 2.40450000000000E+0003	 9.54376562956484E-0002	
 2.40650000000000E+0003	 9.55043260106422E-0002	
 2.40850000000000E+0003	 9.55724957256360E-0002	
 2.41050000000000E+0003	 9.56391654406298E-0002	
 2.41250000000000E+0003	 9.57063351556236E-0002	
 2.41450000000000E+0003	 9.57790048706174E-0002	
 2.41650000000000E+0003	 9.58536745856112E-0002	
 2.41850000000000E+0003	 9.59293443006050E-0002	
 2.42050000000000E+0003	 9.60105140155988E-0002	
 2.42250000000000E+0003	 9.60941837305926E-0002	
 2.42450000000000E+0003	 9.61793534455864E-0002	
 2.42650000000000E+0003	 9.62625231605802E-0002	
 2.42850000000000E+0003	 9.63496928755740E-0002	
 2.43050000000000E+0003	 9.64358625905678E-0002	
 2.43250000000000E+0003	 9.65255323055616E-0002	
 2.43450000000000E+0003	 9.66132020205554E-0002	
 2.43650000000000E+0003	 9.67043717355492E-0002	
 2.43850000000000E+0003	 9.67935414505430E-0002	
 2.44050000000000E+0003	 9.68847111655368E-0002	
 2.44250000000000E+0003	 9.69753808805307E-0002	
 2.44450000000000E+0003	 9.70680505955245E-0002	
 2.44650000000000E+0003	 9.71582203105183E-0002	
 2.44850000000000E+0003	 9.72503900255121E-0002	
 2.45050000000000E+0003	 9.73390597405059E-0002	
 2.45250000000000E+0003	 9.74292294554997E-0002	
 2.45450000000000E+0003	 9.75223991704935E-0002	
 2.45650000000000E+0003	 9.76200688854873E-0002	
 2.45850000000000E+0003	 9.77172386004811E-0002	
 2.46050000000000E+0003	 9.78164083154749E-0002	
 2.46250000000000E+0003	 9.79155780304687E-0002	
 2.46450000000000E+0003	 9.80227477454625E-0002	
 2.46650000000000E+0003	 9.81284174604563E-0002	
 2.46850000000000E+0003	 9.82345871754501E-0002	
 2.47050000000000E+0003	 9.83427568904439E-0002	
 2.47250000000000E+0003	 9.84514266054377E-0002	
 2.47450000000000E+0003	 9.85595963204315E-0002	
 2.47650000000000E+0003	 9.86727660354253E-0002	
 2.47850000000000E+0003	 9.87859357504191E-0002	
 2.48050000000000E+0003	 9.88936054654129E-0002	
 2.48250000000000E+0003	 9.90012751804067E-0002	
 2.48450000000000E+0003	 9.91124448954005E-0002	
 2.48650000000000E+0003	 9.92201146103943E-0002	
 2.48850000000000E+0003	 9.93257843253881E-0002	
 2.49050000000000E+0003	 9.94314540403820E-0002	
 2.49250000000000E+0003	 9.95406237553758E-0002	
 2.49450000000000E+0003	 9.96462934703696E-0002	
 2.49650000000000E+0003	 9.97529631853634E-0002	
 2.49850000000000E+0003	 9.98576329003572E-0002	
 2.50050000000000E+0003	 9.99658026153510E-0002	
 2.50250000000000E+0003	 1.00070472330345E-0001	
 2.50450000000000E+0003	 1.00176142045339E-0001	
 2.50650000000000E+0003	 1.00280811760332E-0001	
 2.50850000000000E+0003	 1.00386481475326E-0001	
 2.51050000000000E+0003	 1.00489151190320E-0001	
 2.51250000000000E+0003	 1.00589820905314E-0001	
 2.51450000000000E+0003	 1.00687490620308E-0001	
 2.51650000000000E+0003	 1.00785660335301E-0001	
 2.51850000000000E+0003	 1.00876830050295E-0001	
 2.52050000000000E+0003	 1.00967499765289E-0001	
 2.52250000000000E+0003	 1.01060669480283E-0001	
 2.52450000000000E+0003	 1.01156339195277E-0001	
 2.52650000000000E+0003	 1.01248008910270E-0001	
 2.52850000000000E+0003	 1.01340178625264E-0001	
 2.53050000000000E+0003	 1.01433348340258E-0001	
 2.53250000000000E+0003	 1.01527018055252E-0001	
 2.53450000000000E+0003	 1.01616187770246E-0001	
 2.53650000000000E+0003	 1.01709357485239E-0001	
 2.53850000000000E+0003	 1.01803527200233E-0001	
 2.54050000000000E+0003	 1.01899196915227E-0001	
 2.54250000000000E+0003	 1.01994366630221E-0001	
 2.54450000000000E+0003	 1.02088536345215E-0001	
 2.54650000000000E+0003	 1.02181706060208E-0001	
 2.54850000000000E+0003	 1.02278875775202E-0001	
 2.55050000000000E+0003	 1.02376545490196E-0001	
 2.55250000000000E+0003	 1.02474715205190E-0001	
 2.55450000000000E+0003	 1.02573884920184E-0001	
 2.55650000000000E+0003	 1.02673054635177E-0001	
 2.55850000000000E+0003	 1.02768724350171E-0001	
 2.56050000000000E+0003	 1.02867394065165E-0001	
 2.56250000000000E+0003	 1.02967063780159E-0001	
 2.56450000000000E+0003	 1.03064233495153E-0001	
 2.56650000000000E+0003	 1.03158403210147E-0001	
 2.56850000000000E+0003	 1.03256572925140E-0001	
 2.57050000000000E+0003	 1.03354242640134E-0001	
 2.57250000000000E+0003	 1.03460912355128E-0001	
 2.57450000000000E+0003	 1.03568582070122E-0001	
 2.57650000000000E+0003	 1.03681751785116E-0001	
 2.57850000000000E+0003	 1.03796421500109E-0001	
 2.58050000000000E+0003	 1.03917591215103E-0001	
 2.58250000000000E+0003	 1.04045260930097E-0001	
 2.58450000000000E+0003	 1.04176430645091E-0001	
 2.58650000000000E+0003	 1.04305600360085E-0001	
 2.58850000000000E+0003	 1.04436270075078E-0001	
 2.59050000000000E+0003	 1.04565439790072E-0001	
 2.59250000000000E+0003	 1.04702109505066E-0001	
 2.59450000000000E+0003	 1.04842279220060E-0001	
 2.59650000000000E+0003	 1.04986948935054E-0001	
 2.59850000000000E+0003	 1.05129118650047E-0001	
 2.60050000000000E+0003	 1.05276288365041E-0001	
 2.60250000000000E+0003	 1.05424458080035E-0001	
 2.60450000000000E+0003	 1.05573627795029E-0001	
 2.60650000000000E+0003	 1.05721297510023E-0001	
 2.60850000000000E+0003	 1.05875967225016E-0001	
 2.61050000000000E+0003	 1.06031136940010E-0001	
 2.61250000000000E+0003	 1.06182806655004E-0001	
 2.61450000000000E+0003	 1.06331476369998E-0001	
 2.61650000000000E+0003	 1.06484146084992E-0001	
 2.61850000000000E+0003	 1.06638315799985E-0001	
 2.62050000000000E+0003	 1.06790985514979E-0001	
 2.62250000000000E+0003	 1.06943155229973E-0001	
 2.62450000000000E+0003	 1.07093824944967E-0001	
 2.62650000000000E+0003	 1.07244494659961E-0001	
 2.62850000000000E+0003	 1.07399664374954E-0001	
 2.63050000000000E+0003	 1.07555334089948E-0001	
 2.63250000000000E+0003	 1.07707503804942E-0001	
 2.63450000000000E+0003	 1.07857673519936E-0001	
 2.63650000000000E+0003	 1.08013343234930E-0001	
 2.63850000000000E+0003	 1.08168012949923E-0001	
 2.64050000000000E+0003	 1.08321182664917E-0001	
 2.64250000000000E+0003	 1.08472352379911E-0001	
 2.64450000000000E+0003	 1.08630522094905E-0001	
 2.64650000000000E+0003	 1.08785691809899E-0001	
 2.64850000000000E+0003	 1.08942861524892E-0001	
 2.65050000000000E+0003	 1.09099031239886E-0001	
 2.65250000000000E+0003	 1.09256700954880E-0001	
 2.65450000000000E+0003	 1.09412870669874E-0001	
 2.65650000000000E+0003	 1.09568040384868E-0001	
 2.65850000000000E+0003	 1.09724210099862E-0001	
 2.66050000000000E+0003	 1.09880879814855E-0001	
 2.66250000000000E+0003	 1.10036549529849E-0001	
 2.66450000000000E+0003	 1.10196219244843E-0001	
 2.66650000000000E+0003	 1.10358388959837E-0001	
 2.66850000000000E+0003	 1.10521058674831E-0001	
 2.67050000000000E+0003	 1.10685728389824E-0001	
 2.67250000000000E+0003	 1.10853398104818E-0001	
 2.67450000000000E+0003	 1.11019567819812E-0001	
 2.67650000000000E+0003	 1.11184237534806E-0001	
 2.67850000000000E+0003	 1.11350407249800E-0001	
 2.68050000000000E+0003	 1.11522076964793E-0001	
 2.68250000000000E+0003	 1.11693246679787E-0001	
 2.68450000000000E+0003	 1.11867916394781E-0001	
 2.68650000000000E+0003	 1.12038086109775E-0001	
 2.68850000000000E+0003	 1.12207755824769E-0001	
 2.69050000000000E+0003	 1.12378925539762E-0001	
 2.69250000000000E+0003	 1.12554595254756E-0001	
 2.69450000000000E+0003	 1.12730264969750E-0001	
 2.69650000000000E+0003	 1.12911434684744E-0001	
 2.69850000000000E+0003	 1.13101104399738E-0001	
 2.70050000000000E+0003	 1.13296274114731E-0001	
 2.70250000000000E+0003	 1.13492943829725E-0001	
 2.70450000000000E+0003	 1.13695113544719E-0001	
 2.70650000000000E+0003	 1.13906783259713E-0001	
 2.70850000000000E+0003	 1.14124952974707E-0001	
 2.71050000000000E+0003	 1.14349122689700E-0001	
 2.71250000000000E+0003	 1.14587792404694E-0001	
 2.71450000000000E+0003	 1.14832962119688E-0001	
 2.71650000000000E+0003	 1.15085131834682E-0001	
 2.71850000000000E+0003	 1.15342301549676E-0001	
 2.72050000000000E+0003	 1.15602971264669E-0001	
 2.72250000000000E+0003	 1.15865640979663E-0001	
 2.72450000000000E+0003	 1.16129310694657E-0001	
 2.72650000000000E+0003	 1.16400980409651E-0001	
 2.72850000000000E+0003	 1.16676650124645E-0001	
 2.73050000000000E+0003	 1.16940319839638E-0001	
 2.73250000000000E+0003	 1.17199989554632E-0001	
 2.73450000000000E+0003	 1.17453659269626E-0001	
 2.73650000000000E+0003	 1.17703828984620E-0001	
 2.73850000000000E+0003	 1.17950498699614E-0001	
 2.74050000000000E+0003	 1.18195168414607E-0001	
 2.74250000000000E+0003	 1.18433838129601E-0001	
 2.74450000000000E+0003	 1.18664507844595E-0001	
 2.74650000000000E+0003	 1.18886677559589E-0001	
 2.74850000000000E+0003	 1.19118847274583E-0001	
 2.75050000000000E+0003	 1.19353516989577E-0001	
 2.75250000000000E+0003	 1.19590186704570E-0001	
 2.75450000000000E+0003	 1.19823356419564E-0001	
 2.75650000000000E+0003	 1.20065026134558E-0001	
 2.75850000000000E+0003	 1.20315195849552E-0001	
 2.76050000000000E+0003	 1.20567865564546E-0001	
 2.76250000000000E+0003	 1.20823535279539E-0001	
 2.76450000000000E+0003	 1.21081204994533E-0001	
 2.76650000000000E+0003	 1.21339874709527E-0001	
 2.76850000000000E+0003	 1.21602544424521E-0001	
 2.77050000000000E+0003	 1.21869214139515E-0001	
 2.77250000000000E+0003	 1.22127383854508E-0001	
 2.77450000000000E+0003	 1.22398553569502E-0001	
 2.77650000000000E+0003	 1.22693223284496E-0001	
 2.77850000000000E+0003	 1.22984392999490E-0001	
 2.78050000000000E+0003	 1.23277062714484E-0001	
 2.78250000000000E+0003	 1.23581232429477E-0001	
 2.78450000000000E+0003	 1.23897902144471E-0001	
 2.78650000000000E+0003	 1.24208071859465E-0001	
 2.78850000000000E+0003	 1.24531241574459E-0001	
 2.79050000000000E+0003	 1.24873411289453E-0001	
 2.79250000000000E+0003	 1.25220581004446E-0001	
 2.79450000000000E+0003	 1.25563750719440E-0001	
 2.79650000000000E+0003	 1.25911420434434E-0001	
 2.79850000000000E+0003	 1.26277590149428E-0001	
 2.80050000000000E+0003	 1.26654259864422E-0001	
 2.80250000000000E+0003	 1.27026429579415E-0001	
 2.80450000000000E+0003	 1.27407599294409E-0001	
 2.80650000000000E+0003	 1.27792769009403E-0001	
 2.80850000000000E+0003	 1.28177938724397E-0001	
 2.81050000000000E+0003	 1.28577608439391E-0001	
 2.81250000000000E+0003	 1.28988778154384E-0001	
 2.81450000000000E+0003	 1.29403447869378E-0001	
 2.81650000000000E+0003	 1.29829117584372E-0001	
 2.81850000000000E+0003	 1.30265287299366E-0001	
 2.82050000000000E+0003	 1.30708957014360E-0001	
 2.82250000000000E+0003	 1.31163626729353E-0001	
 2.82450000000000E+0003	 1.31639796444347E-0001	
 2.82650000000000E+0003	 1.32130466159341E-0001	
 2.82850000000000E+0003	 1.32641135874335E-0001	
 2.83050000000000E+0003	 1.33182305589329E-0001	
 2.83250000000000E+0003	 1.33766475304322E-0001	
 2.83450000000000E+0003	 1.34407145019316E-0001	
 2.83650000000000E+0003	 1.35113314734310E-0001	
 2.83850000000000E+0003	 1.35928484449304E-0001	
 2.84050000000000E+0003	 1.36907154164298E-0001	
 2.84250000000000E+0003	 1.38100323879291E-0001	
 2.84450000000000E+0003	 1.39603993594285E-0001	
 2.84650000000000E+0003	 1.41455663309279E-0001	
 2.84850000000000E+0003	 1.43599333024273E-0001	
 2.85050000000000E+0003	 1.45808502739267E-0001	
 2.85250000000000E+0003	 1.47746672454261E-0001	
 2.85450000000000E+0003	 1.49136842169254E-0001	
 2.85650000000000E+0003	 1.49953511884248E-0001	
 2.85850000000000E+0003	 1.50417181599242E-0001	
 2.86050000000000E+0003	 1.50825351314236E-0001	
 2.86250000000000E+0003	 1.51376521029230E-0001	
 2.86450000000000E+0003	 1.52188690744223E-0001	
 2.86650000000000E+0003	 1.53274860459217E-0001	
 2.86850000000000E+0003	 1.54546030174211E-0001	
 2.87050000000000E+0003	 1.55847199889205E-0001	
 2.87250000000000E+0003	 1.57029869604199E-0001	
 2.87450000000000E+0003	 1.57932539319192E-0001	
 2.87650000000000E+0003	 1.58456209034186E-0001	
 2.87850000000000E+0003	 1.58683378749180E-0001	
 2.88050000000000E+0003	 1.58760048464174E-0001	
 2.88250000000000E+0003	 1.58806218179168E-0001	
 2.88450000000000E+0003	 1.58926887894161E-0001	
 2.88650000000000E+0003	 1.59186557609155E-0001	
 2.88850000000000E+0003	 1.59608227324149E-0001	
 2.89050000000000E+0003	 1.60183897039143E-0001	
 2.89250000000000E+0003	 1.60895066754137E-0001	
 2.89450000000000E+0003	 1.61724736469130E-0001	
 2.89650000000000E+0003	 1.62664906184124E-0001	
 2.89850000000000E+0003	 1.63675075899118E-0001	
 2.90050000000000E+0003	 1.64753245614112E-0001	
 2.90250000000000E+0003	 1.65925415329106E-0001	
 2.90450000000000E+0003	 1.67231585044099E-0001	
 2.90650000000000E+0003	 1.68700254759093E-0001	
 2.90850000000000E+0003	 1.70361424474087E-0001	
 2.91050000000000E+0003	 1.72256094189081E-0001	
 2.91250000000000E+0003	 1.74417263904075E-0001	
 2.91450000000000E+0003	 1.76825933619068E-0001	
 2.91650000000000E+0003	 1.79390103334062E-0001	
 2.91850000000000E+0003	 1.82016773049056E-0001	
 2.92050000000000E+0003	 1.84537442764050E-0001	
 2.92250000000000E+0003	 1.86751612479044E-0001	
 2.92450000000000E+0003	 1.88528782194037E-0001	
 2.92650000000000E+0003	 1.89835951909031E-0001	
 2.92850000000000E+0003	 1.90744621624025E-0001	
 2.93050000000000E+0003	 1.91317291339019E-0001	
 2.93250000000000E+0003	 1.91555961054013E-0001	
 2.93450000000000E+0003	 1.91480130769006E-0001	
 2.93650000000000E+0003	 1.91067300484000E-0001	
 2.93850000000000E+0003	 1.90288470198994E-0001	
 2.94050000000000E+0003	 1.89205139913988E-0001	
 2.94250000000000E+0003	 1.87979809628982E-0001	
 2.94450000000000E+0003	 1.86794979343976E-0001	
 2.94650000000000E+0003	 1.85799149058969E-0001	
 2.94850000000000E+0003	 1.85126818773963E-0001	
 2.95050000000000E+0003	 1.84873488488957E-0001	
 2.95250000000000E+0003	 1.85075158203951E-0001	
 2.95450000000000E+0003	 1.85591327918945E-0001	
 2.95650000000000E+0003	 1.86230497633938E-0001	
 2.95850000000000E+0003	 1.86801667348932E-0001	
 2.96050000000000E+0003	 1.87125837063926E-0001	
 2.96250000000000E+0003	 1.87095006778920E-0001	
 2.96450000000000E+0003	 1.86690676493914E-0001	
 2.96650000000000E+0003	 1.86001346208907E-0001	
 2.96850000000000E+0003	 1.85139515923901E-0001	
 2.97050000000000E+0003	 1.83968185638895E-0001	
 2.97250000000000E+0003	 1.82384355353889E-0001	
 2.97450000000000E+0003	 1.80715025068883E-0001	
 2.97650000000000E+0003	 1.79204694783876E-0001	
 2.97850000000000E+0003	 1.77832364498870E-0001	
 2.98050000000000E+0003	 1.76556034213864E-0001	
 2.98250000000000E+0003	 1.75338703928858E-0001	
 2.98450000000000E+0003	 1.74184373643852E-0001	
 2.98650000000000E+0003	 1.73118043358845E-0001	
 2.98850000000000E+0003	 1.72149213073839E-0001	
 2.99050000000000E+0003	 1.71283882788833E-0001	
 2.99250000000000E+0003	 1.70548552503827E-0001	
 2.99450000000000E+0003	 1.69920722218821E-0001	
 2.99650000000000E+0003	 1.69433891933814E-0001	
 2.99850000000000E+0003	 1.69120561648808E-0001	
 3.00050000000000E+0003	 1.68940731363802E-0001	
 3.00250000000000E+0003	 1.68894401078796E-0001	
 3.00450000000000E+0003	 1.68990570793790E-0001	
 3.00650000000000E+0003	 1.69197240508783E-0001	
 3.00850000000000E+0003	 1.69498410223777E-0001	
 3.01050000000000E+0003	 1.69917579938771E-0001	
 3.01250000000000E+0003	 1.70459749653765E-0001	
 3.01450000000000E+0003	 1.71088419368759E-0001	
 3.01650000000000E+0003	 1.71756589083752E-0001	
 3.01850000000000E+0003	 1.72454758798746E-0001	
 3.02050000000000E+0003	 1.73232928513740E-0001	
 3.02250000000000E+0003	 1.74109598228734E-0001	
 3.02450000000000E+0003	 1.75081267943728E-0001	
 3.02650000000000E+0003	 1.76093437658721E-0001	
 3.02850000000000E+0003	 1.77093607373715E-0001	
 3.03050000000000E+0003	 1.78080277088709E-0001	
 3.03250000000000E+0003	 1.79059446803703E-0001	
 3.03450000000000E+0003	 1.80066616518697E-0001	
 3.03650000000000E+0003	 1.81091786233691E-0001	
 3.03850000000000E+0003	 1.82110955948684E-0001	
 3.04050000000000E+0003	 1.83176125663678E-0001	
 3.04250000000000E+0003	 1.84297295378672E-0001	
 3.04450000000000E+0003	 1.85444965093666E-0001	
 3.04650000000000E+0003	 1.86611134808660E-0001	
 3.04850000000000E+0003	 1.87782304523653E-0001	
 3.05050000000000E+0003	 1.88997474238647E-0001	
 3.05250000000000E+0003	 1.90243643953641E-0001	
 3.05450000000000E+0003	 1.91476313668635E-0001	
 3.05650000000000E+0003	 1.92710983383629E-0001	
 3.05850000000000E+0003	 1.93928653098622E-0001	
 3.06050000000000E+0003	 1.95087822813616E-0001	
 3.06250000000000E+0003	 1.96180492528610E-0001	
 3.06450000000000E+0003	 1.97209662243604E-0001	
 3.06650000000000E+0003	 1.98206831958598E-0001	
 3.06850000000000E+0003	 1.99187001673591E-0001	
 3.07050000000000E+0003	 2.00108671388585E-0001	
 3.07250000000000E+0003	 2.00982341103579E-0001	
 3.07450000000000E+0003	 2.01803010818573E-0001	
 3.07650000000000E+0003	 2.02586680533567E-0001	
 3.07850000000000E+0003	 2.03377850248560E-0001	
 3.08050000000000E+0003	 2.04169019963554E-0001	
 3.08250000000000E+0003	 2.04918689678548E-0001	
 3.08450000000000E+0003	 2.05655359393542E-0001	
 3.08650000000000E+0003	 2.06367029108536E-0001	
 3.08850000000000E+0003	 2.07026698823529E-0001	
 3.09050000000000E+0003	 2.07676868538523E-0001	
 3.09250000000000E+0003	 2.08312538253517E-0001	
 3.09450000000000E+0003	 2.08910207968511E-0001	
 3.09650000000000E+0003	 2.09487877683505E-0001	
 3.09850000000000E+0003	 2.10065047398498E-0001	
 3.10050000000000E+0003	 2.10686717113492E-0001	
 3.10250000000000E+0003	 2.11344386828486E-0001	
 3.10450000000000E+0003	 2.12001556543480E-0001	
 3.10650000000000E+0003	 2.12658726258474E-0001	
 3.10850000000000E+0003	 2.13378395973467E-0001	
 3.11050000000000E+0003	 2.14156065688461E-0001	
 3.11250000000000E+0003	 2.14933235403455E-0001	
 3.11450000000000E+0003	 2.15756405118449E-0001	
 3.11650000000000E+0003	 2.16676074833443E-0001	
 3.11850000000000E+0003	 2.17652744548436E-0001	
 3.12050000000000E+0003	 2.18687914263430E-0001	
 3.12250000000000E+0003	 2.19765083978424E-0001	
 3.12450000000000E+0003	 2.20877253693418E-0001	
 3.12650000000000E+0003	 2.22051923408412E-0001	
 3.12850000000000E+0003	 2.23284593123405E-0001	
 3.13050000000000E+0003	 2.24567262838399E-0001	
 3.13250000000000E+0003	 2.25886432553393E-0001	
 3.13450000000000E+0003	 2.27249602268387E-0001	
 3.13650000000000E+0003	 2.28656771983381E-0001	
 3.13850000000000E+0003	 2.30130441698375E-0001	
 3.14050000000000E+0003	 2.31650611413368E-0001	
 3.14250000000000E+0003	 2.33181781128362E-0001	
 3.14450000000000E+0003	 2.34759950843356E-0001	
 3.14650000000000E+0003	 2.36401120558350E-0001	
 3.14850000000000E+0003	 2.38091790273344E-0001	
 3.15050000000000E+0003	 2.39856959988337E-0001	
 3.15250000000000E+0003	 2.41689629703331E-0001	
 3.15450000000000E+0003	 2.43508299418325E-0001	
 3.15650000000000E+0003	 2.45342469133319E-0001	
 3.15850000000000E+0003	 2.47244638848313E-0001	
 3.16050000000000E+0003	 2.49202808563306E-0001	
 3.16250000000000E+0003	 2.51205478278300E-0001	
 3.16450000000000E+0003	 2.53241147993294E-0001	
 3.16650000000000E+0003	 2.55305817708288E-0001	
 3.16850000000000E+0003	 2.57393487423282E-0001	
 3.17050000000000E+0003	 2.59509157138275E-0001	
 3.17250000000000E+0003	 2.61645326853269E-0001	
 3.17450000000000E+0003	 2.63786496568263E-0001	
 3.17650000000000E+0003	 2.65929666283257E-0001	
 3.17850000000000E+0003	 2.68088835998251E-0001	
 3.18050000000000E+0003	 2.70255505713244E-0001	
 3.18250000000000E+0003	 2.72410675428238E-0001	
 3.18450000000000E+0003	 2.74559345143232E-0001	
 3.18650000000000E+0003	 2.76705514858226E-0001	
 3.18850000000000E+0003	 2.78831184573220E-0001	
 3.19050000000000E+0003	 2.80926854288213E-0001	
 3.19250000000000E+0003	 2.83003524003207E-0001	
 3.19450000000000E+0003	 2.85054193718201E-0001	
 3.19650000000000E+0003	 2.87079863433195E-0001	
 3.19850000000000E+0003	 2.89096533148189E-0001	
 3.20050000000000E+0003	 2.91102202863182E-0001	
 3.20250000000000E+0003	 2.93077872578176E-0001	
 3.20450000000000E+0003	 2.95028542293170E-0001	
 3.20650000000000E+0003	 2.96963212008164E-0001	
 3.20850000000000E+0003	 2.98886381723158E-0001	
 3.21050000000000E+0003	 3.00806551438151E-0001	
 3.21250000000000E+0003	 3.02726221153145E-0001	
 3.21450000000000E+0003	 3.04653890868139E-0001	
 3.21650000000000E+0003	 3.06584060583133E-0001	
 3.21850000000000E+0003	 3.08518730298127E-0001	
 3.22050000000000E+0003	 3.10468900013120E-0001	
 3.22250000000000E+0003	 3.12429069728114E-0001	
 3.22450000000000E+0003	 3.14406239443108E-0001	
 3.22650000000000E+0003	 3.16408909158102E-0001	
 3.22850000000000E+0003	 3.18437578873096E-0001	
 3.23050000000000E+0003	 3.20503248588090E-0001	
 3.23250000000000E+0003	 3.22632418303083E-0001	
 3.23450000000000E+0003	 3.24773088018077E-0001	
 3.23650000000000E+0003	 3.26895257733071E-0001	
 3.23850000000000E+0003	 3.29064927448065E-0001	
 3.24050000000000E+0003	 3.31302097163059E-0001	
 3.24250000000000E+0003	 3.33579766878052E-0001	
 3.24450000000000E+0003	 3.35910436593046E-0001	
 3.24650000000000E+0003	 3.38309606308040E-0001	
 3.24850000000000E+0003	 3.40737776023034E-0001	
 3.25050000000000E+0003	 3.43169445738028E-0001	
 3.25250000000000E+0003	 3.45634615453021E-0001	
 3.25450000000000E+0003	 3.48157285168015E-0001	
 3.25650000000000E+0003	 3.50730954883009E-0001	
 3.25850000000000E+0003	 3.53309624598003E-0001	
 3.26050000000000E+0003	 3.55889794312997E-0001	
 3.26250000000000E+0003	 3.58472464027990E-0001	
 3.26450000000000E+0003	 3.61037133742984E-0001	
 3.26650000000000E+0003	 3.63559303457978E-0001	
 3.26850000000000E+0003	 3.66033473172972E-0001	
 3.27050000000000E+0003	 3.68474642887966E-0001	
 3.27250000000000E+0003	 3.70834812602959E-0001	
 3.27450000000000E+0003	 3.73087482317953E-0001	
 3.27650000000000E+0003	 3.75263652032947E-0001	
 3.27850000000000E+0003	 3.77337321747941E-0001	
 3.28050000000000E+0003	 3.79304991462935E-0001	
 3.28250000000000E+0003	 3.81166161177928E-0001	
 3.28450000000000E+0003	 3.82924330892922E-0001	
 3.28650000000000E+0003	 3.84563500607916E-0001	
 3.28850000000000E+0003	 3.86075670322910E-0001	
 3.29050000000000E+0003	 3.87484340037904E-0001	
 3.29250000000000E+0003	 3.88821509752897E-0001	
 3.29450000000000E+0003	 3.90051179467891E-0001	
 3.29650000000000E+0003	 3.91194349182885E-0001	
 3.29850000000000E+0003	 3.92258018897879E-0001	
 3.30050000000000E+0003	 3.93230688612873E-0001	
 3.30250000000000E+0003	 3.94118358327866E-0001	
 3.30450000000000E+0003	 3.94968528042860E-0001	
 3.30650000000000E+0003	 3.95778197757854E-0001	
 3.30850000000000E+0003	 3.96533867472848E-0001	
 3.31050000000000E+0003	 3.97248037187842E-0001	
 3.31250000000000E+0003	 3.97936206902835E-0001	
 3.31450000000000E+0003	 3.98606376617829E-0001	
 3.31650000000000E+0003	 3.99270546332823E-0001	
 3.31850000000000E+0003	 3.99932716047817E-0001	
 3.32050000000000E+0003	 4.00600885762811E-0001	
 3.32250000000000E+0003	 4.01272555477805E-0001	
 3.32450000000000E+0003	 4.01974725192798E-0001	
 3.32650000000000E+0003	 4.02707394907792E-0001	
 3.32850000000000E+0003	 4.03449064622786E-0001	
 3.33050000000000E+0003	 4.04199234337780E-0001	
 3.33250000000000E+0003	 4.04971404052774E-0001	
 3.33450000000000E+0003	 4.05767573767767E-0001	
 3.33650000000000E+0003	 4.06609743482761E-0001	
 3.33850000000000E+0003	 4.07491913197755E-0001	
 3.34050000000000E+0003	 4.08367582912749E-0001	
 3.34250000000000E+0003	 4.09240752627743E-0001	
 3.34450000000000E+0003	 4.10136922342736E-0001	
 3.34650000000000E+0003	 4.11043592057730E-0001	
 3.34850000000000E+0003	 4.11993761772724E-0001	
 3.35050000000000E+0003	 4.12974431487718E-0001	
 3.35250000000000E+0003	 4.13902601202712E-0001	
 3.35450000000000E+0003	 4.14799770917705E-0001	
 3.35650000000000E+0003	 4.15736440632699E-0001	
 3.35850000000000E+0003	 4.16695610347693E-0001	
 3.36050000000000E+0003	 4.17666280062687E-0001	
 3.36250000000000E+0003	 4.18621449777681E-0001	
 3.36450000000000E+0003	 4.19601119492674E-0001	
 3.36650000000000E+0003	 4.20641289207668E-0001	
 3.36850000000000E+0003	 4.21676458922662E-0001	
 3.37050000000000E+0003	 4.22588628637656E-0001	
 3.37250000000000E+0003	 4.23417298352650E-0001	
 3.37450000000000E+0003	 4.24288968067643E-0001	
 3.37650000000000E+0003	 4.25208637782637E-0001	
 3.37850000000000E+0003	 4.26118807497631E-0001	
 3.38050000000000E+0003	 4.27007977212625E-0001	
 3.38250000000000E+0003	 4.27868646927619E-0001	
 3.38450000000000E+0003	 4.28731816642612E-0001	
 3.38650000000000E+0003	 4.29606986357606E-0001	
 3.38850000000000E+0003	 4.30535656072600E-0001	
 3.39050000000000E+0003	 4.31519825787594E-0001	
 3.39250000000000E+0003	 4.32374495502588E-0001	
 3.39450000000000E+0003	 4.33033165217581E-0001	
 3.39650000000000E+0003	 4.33754334932575E-0001	
 3.39850000000000E+0003	 4.34669504647569E-0001	
 3.40050000000000E+0003	 4.35542174362563E-0001	
 3.40250000000000E+0003	 4.36088844077557E-0001	
 3.40450000000000E+0003	 4.36502013792550E-0001	
 3.40650000000000E+0003	 4.37043683507544E-0001	
 3.40850000000000E+0003	 4.37665353222538E-0001	
 3.41050000000000E+0003	 4.38225022937532E-0001	
 3.41250000000000E+0003	 4.38705692652526E-0001	
 3.41450000000000E+0003	 4.39069362367519E-0001	
 3.41650000000000E+0003	 4.39364032082513E-0001	
 3.41850000000000E+0003	 4.39670701797507E-0001	
 3.42050000000000E+0003	 4.39982871512501E-0001	
 3.42250000000000E+0003	 4.40223041227495E-0001	
 3.42450000000000E+0003	 4.40413710942489E-0001	
 3.42650000000000E+0003	 4.40614380657482E-0001	
 3.42850000000000E+0003	 4.40819550372476E-0001	
 3.43050000000000E+0003	 4.40921720087470E-0001	
 3.43250000000000E+0003	 4.40965389802464E-0001	
 3.43450000000000E+0003	 4.41023059517458E-0001	
 3.43650000000000E+0003	 4.40917229232451E-0001	
 3.43850000000000E+0003	 4.40540898947445E-0001	
 3.44050000000000E+0003	 4.40104068662439E-0001	
 3.44250000000000E+0003	 4.39736238377433E-0001	
 3.44450000000000E+0003	 4.39377408092427E-0001	
 3.44650000000000E+0003	 4.38995077807420E-0001	
 3.44850000000000E+0003	 4.38547247522414E-0001	
 3.45050000000000E+0003	 4.38006417237408E-0001	
 3.45250000000000E+0003	 4.37428586952402E-0001	
 3.45450000000000E+0003	 4.36801256667396E-0001	
 3.45650000000000E+0003	 4.36142926382389E-0001	
 3.45850000000000E+0003	 4.35474096097383E-0001	
 3.46050000000000E+0003	 4.34721765812377E-0001	
 3.46250000000000E+0003	 4.33846935527371E-0001	
 3.46450000000000E+0003	 4.33032605242365E-0001	
 3.46650000000000E+0003	 4.32330774957358E-0001	
 3.46850000000000E+0003	 4.31445444672352E-0001	
 3.47050000000000E+0003	 4.30167614387346E-0001	
 3.47250000000000E+0003	 4.28774284102340E-0001	
 3.47450000000000E+0003	 4.27513953817334E-0001	
 3.47650000000000E+0003	 4.26356123532327E-0001	
 3.47850000000000E+0003	 4.25210293247321E-0001	
 3.48050000000000E+0003	 4.23895962962315E-0001	
 3.48250000000000E+0003	 4.22407632677309E-0001	
 3.48450000000000E+0003	 4.20986802392303E-0001	
 3.48650000000000E+0003	 4.19606472107296E-0001	
 3.48850000000000E+0003	 4.18131141822290E-0001	
 3.49050000000000E+0003	 4.16606311537284E-0001	
 3.49250000000000E+0003	 4.15106481252278E-0001	
 3.49450000000000E+0003	 4.13603150967272E-0001	
 3.49650000000000E+0003	 4.12073820682265E-0001	
 3.49850000000000E+0003	 4.10457990397259E-0001	
 3.50050000000000E+0003	 4.08826660112253E-0001	
 3.50250000000000E+0003	 4.07178829827247E-0001	
 3.50450000000000E+0003	 4.05365499542241E-0001	
 3.50650000000000E+0003	 4.03486169257234E-0001	
 3.50850000000000E+0003	 4.01688838972228E-0001	
 3.51050000000000E+0003	 3.99970008687222E-0001	
 3.51250000000000E+0003	 3.98302178402216E-0001	
 3.51450000000000E+0003	 3.96517848117210E-0001	
 3.51650000000000E+0003	 3.94582517832204E-0001	
 3.51850000000000E+0003	 3.92650687547197E-0001	
 3.52050000000000E+0003	 3.90780357262191E-0001	
 3.52250000000000E+0003	 3.88930026977185E-0001	
 3.52450000000000E+0003	 3.86916696692179E-0001	
 3.52650000000000E+0003	 3.84773866407173E-0001	
 3.52850000000000E+0003	 3.82736036122166E-0001	
 3.53050000000000E+0003	 3.80743205837160E-0001	
 3.53250000000000E+0003	 3.78738375552154E-0001	
 3.53450000000000E+0003	 3.76758045267148E-0001	
 3.53650000000000E+0003	 3.74706714982142E-0001	
 3.53850000000000E+0003	 3.72482884697135E-0001	
 3.54050000000000E+0003	 3.70286554412129E-0001	
 3.54250000000000E+0003	 3.68167224127123E-0001	
 3.54450000000000E+0003	 3.65923393842117E-0001	
 3.54650000000000E+0003	 3.63441063557111E-0001	
 3.54850000000000E+0003	 3.60946233272104E-0001	
 3.55050000000000E+0003	 3.58589402987098E-0001	
 3.55250000000000E+0003	 3.56209572702092E-0001	
 3.55450000000000E+0003	 3.53748742417086E-0001	
 3.55650000000000E+0003	 3.51315912132080E-0001	
 3.55850000000000E+0003	 3.48875581847073E-0001	
 3.56050000000000E+0003	 3.46363751562067E-0001	
 3.56250000000000E+0003	 3.43728421277061E-0001	
 3.56450000000000E+0003	 3.40954590992055E-0001	
 3.56650000000000E+0003	 3.38144260707049E-0001	
 3.56850000000000E+0003	 3.35532430422042E-0001	
 3.57050000000000E+0003	 3.33055600137036E-0001	
 3.57250000000000E+0003	 3.30471269852030E-0001	
 3.57450000000000E+0003	 3.27765939567024E-0001	
 3.57650000000000E+0003	 3.25044609282018E-0001	
 3.57850000000000E+0003	 3.22323778997011E-0001	
 3.58050000000000E+0003	 3.19601948712005E-0001	
 3.58250000000000E+0003	 3.16878118426999E-0001	
 3.58450000000000E+0003	 3.14106788141993E-0001	
 3.58650000000000E+0003	 3.11118457856987E-0001	
 3.58850000000000E+0003	 3.07964627571980E-0001	
 3.59050000000000E+0003	 3.05006297286974E-0001	
 3.59250000000000E+0003	 3.02234967001968E-0001	
 3.59450000000000E+0003	 2.99363636716962E-0001	
 3.59650000000000E+0003	 2.96450806431956E-0001	
 3.59850000000000E+0003	 2.93585476146949E-0001	
 3.60050000000000E+0003	 2.90684145861943E-0001	
 3.60250000000000E+0003	 2.87735815576937E-0001	
 3.60450000000000E+0003	 2.84757985291931E-0001	
 3.60650000000000E+0003	 2.81672155006925E-0001	
 3.60850000000000E+0003	 2.78509324721919E-0001	
 3.61050000000000E+0003	 2.75435494436912E-0001	
 3.61250000000000E+0003	 2.72498664151906E-0001	
 3.61450000000000E+0003	 2.69582333866900E-0001	
 3.61650000000000E+0003	 2.66721003581894E-0001	
 3.61850000000000E+0003	 2.63951673296888E-0001	
 3.62050000000000E+0003	 2.60997343011881E-0001	
 3.62250000000000E+0003	 2.57863512726875E-0001	
 3.62450000000000E+0003	 2.54876182441869E-0001	
 3.62650000000000E+0003	 2.51946852156863E-0001	
 3.62850000000000E+0003	 2.48905021871857E-0001	
 3.63050000000000E+0003	 2.45758191586850E-0001	
 3.63250000000000E+0003	 2.42833861301844E-0001	
 3.63450000000000E+0003	 2.40089531016838E-0001	
 3.63650000000000E+0003	 2.37255700731832E-0001	
 3.63850000000000E+0003	 2.34451370446826E-0001	
 3.64050000000000E+0003	 2.31620040161819E-0001	
 3.64250000000000E+0003	 2.28778709876813E-0001	
 3.64450000000000E+0003	 2.25956879591807E-0001	
 3.64650000000000E+0003	 2.23173049306801E-0001	
 3.64850000000000E+0003	 2.20403219021795E-0001	
 3.65050000000000E+0003	 2.17724388736788E-0001	
 3.65250000000000E+0003	 2.15140558451782E-0001	
 3.65450000000000E+0003	 2.12687728166776E-0001	
 3.65650000000000E+0003	 2.10300897881770E-0001	
 3.65850000000000E+0003	 2.07906567596764E-0001	
 3.66050000000000E+0003	 2.05629237311757E-0001	
 3.66250000000000E+0003	 2.03318407026751E-0001	
 3.66450000000000E+0003	 2.01042576741745E-0001	
 3.66650000000000E+0003	 1.98946246456739E-0001	
 3.66850000000000E+0003	 1.96899916171733E-0001	
 3.67050000000000E+0003	 1.94890585886726E-0001	
 3.67250000000000E+0003	 1.92891755601720E-0001	
 3.67450000000000E+0003	 1.91035925316714E-0001	
 3.67650000000000E+0003	 1.89263595031708E-0001	
 3.67850000000000E+0003	 1.87576764746702E-0001	
 3.68050000000000E+0003	 1.86106934461695E-0001	
 3.68250000000000E+0003	 1.84633104176689E-0001	
 3.68450000000000E+0003	 1.83294273891683E-0001	
 3.68650000000000E+0003	 1.81975943606677E-0001	
 3.68850000000000E+0003	 1.80772113321671E-0001	
 3.69050000000000E+0003	 1.79568783036664E-0001	
 3.69250000000000E+0003	 1.78275452751658E-0001	
 3.69450000000000E+0003	 1.77107622466652E-0001	
 3.69650000000000E+0003	 1.76087292181646E-0001	
 3.69850000000000E+0003	 1.75104461896640E-0001	
 3.70050000000000E+0003	 1.74172631611634E-0001	
 3.70250000000000E+0003	 1.73303801326627E-0001	
 3.70450000000000E+0003	 1.72394971041621E-0001	
 3.70650000000000E+0003	 1.71507640756615E-0001	
 3.70850000000000E+0003	 1.70658810471609E-0001	
 3.71050000000000E+0003	 1.69859980186603E-0001	
 3.71250000000000E+0003	 1.69171149901596E-0001	
 3.71450000000000E+0003	 1.68543319616590E-0001	
 3.71650000000000E+0003	 1.67949489331584E-0001	
 3.71850000000000E+0003	 1.67351659046578E-0001	
 3.72050000000000E+0003	 1.66714828761572E-0001	
 3.72250000000000E+0003	 1.66115998476565E-0001	
 3.72450000000000E+0003	 1.65508168191559E-0001	
 3.72650000000000E+0003	 1.64963337906553E-0001	
 3.72850000000000E+0003	 1.64482507621547E-0001	
 3.73050000000000E+0003	 1.63960677336541E-0001	
 3.73250000000000E+0003	 1.63499347051534E-0001	
 3.73450000000000E+0003	 1.62995516766528E-0001	
 3.73650000000000E+0003	 1.62477686481522E-0001	
 3.73850000000000E+0003	 1.61980856196516E-0001	
 3.74050000000000E+0003	 1.61689525911510E-0001	
 3.74250000000000E+0003	 1.61184195626503E-0001	
 3.74450000000000E+0003	 1.60703865341497E-0001	
 3.74650000000000E+0003	 1.60293035056491E-0001	
 3.74850000000000E+0003	 1.59836704771485E-0001	
 3.75050000000000E+0003	 1.59458874486479E-0001	
 3.75250000000000E+0003	 1.59208544201472E-0001	
 3.75450000000000E+0003	 1.58971213916466E-0001	
 3.75650000000000E+0003	 1.58716383631460E-0001	
 3.75850000000000E+0003	 1.58423053346454E-0001	
 3.76050000000000E+0003	 1.58169223061448E-0001	
 3.76250000000000E+0003	 1.57843892776441E-0001	
 3.76450000000000E+0003	 1.57519562491435E-0001	
 3.76650000000000E+0003	 1.57242232206429E-0001	
 3.76850000000000E+0003	 1.56910401921423E-0001	
 3.77050000000000E+0003	 1.56700571636417E-0001	
 3.77250000000000E+0003	 1.56466241351410E-0001	
 3.77450000000000E+0003	 1.56210411066404E-0001	
 3.77650000000000E+0003	 1.55900580781398E-0001	
 3.77850000000000E+0003	 1.55622250496392E-0001	
 3.78050000000000E+0003	 1.55434420211386E-0001	
 3.78250000000000E+0003	 1.55149089926379E-0001	
 3.78450000000000E+0003	 1.54908259641373E-0001	
 3.78650000000000E+0003	 1.54697429356367E-0001	
 3.78850000000000E+0003	 1.54482099071361E-0001	
 3.79050000000000E+0003	 1.54265268786355E-0001	
 3.79250000000000E+0003	 1.54026438501348E-0001	
 3.79450000000000E+0003	 1.53702608216342E-0001	
 3.79650000000000E+0003	 1.53511777931336E-0001	
 3.79850000000000E+0003	 1.53334447646330E-0001	
 3.80050000000000E+0003	 1.53053117361324E-0001	
 3.80250000000000E+0003	 1.52914287076318E-0001	
 3.80450000000000E+0003	 1.52638456791311E-0001	
 3.80650000000000E+0003	 1.52486126506305E-0001	
 3.80850000000000E+0003	 1.52383796221299E-0001	
 3.81050000000000E+0003	 1.52204965936293E-0001	
 3.81250000000000E+0003	 1.52039635651287E-0001	
 3.81450000000000E+0003	 1.51738805366280E-0001	
 3.81650000000000E+0003	 1.51601975081274E-0001	
 3.81850000000000E+0003	 1.51417644796268E-0001	
 3.82050000000000E+0003	 1.51320814511262E-0001	
 3.82250000000000E+0003	 1.51238984226256E-0001	
 3.82450000000000E+0003	 1.50947653941249E-0001	
 3.82650000000000E+0003	 1.50806823656243E-0001	
 3.82850000000000E+0003	 1.50657993371237E-0001	
 3.83050000000000E+0003	 1.50501163086231E-0001	
 3.83250000000000E+0003	 1.50454332801225E-0001	
 3.83450000000000E+0003	 1.50417502516218E-0001	
 3.83650000000000E+0003	 1.50284672231212E-0001	
 3.83850000000000E+0003	 1.50075341946206E-0001	
 3.84050000000000E+0003	 1.49866011661200E-0001	
 3.84250000000000E+0003	 1.49692681376194E-0001	
 3.84450000000000E+0003	 1.49598851091187E-0001	
 3.84650000000000E+0003	 1.49440020806181E-0001	
 3.84850000000000E+0003	 1.49310190521175E-0001	
 3.85050000000000E+0003	 1.49203360236169E-0001	
 3.85250000000000E+0003	 1.49224529951163E-0001	
 3.85450000000000E+0003	 1.49401699666156E-0001	
 3.85650000000000E+0003	 1.49124369381150E-0001	
 3.85850000000000E+0003	 1.48789039096144E-0001	
 3.86050000000000E+0003	 1.48597208811138E-0001	
 3.86250000000000E+0003	 1.48546878526132E-0001	
 3.86450000000000E+0003	 1.48557548241125E-0001	
 3.86650000000000E+0003	 1.48464717956119E-0001	
 3.86850000000000E+0003	 1.48252387671113E-0001	
 3.87050000000000E+0003	 1.48243557386107E-0001	
 3.87250000000000E+0003	 1.48135727101101E-0001	
 3.87450000000000E+0003	 1.48103396816094E-0001	
 3.87650000000000E+0003	 1.47970066531088E-0001	
 3.87850000000000E+0003	 1.47773736246082E-0001	
 3.88050000000000E+0003	 1.47772905961076E-0001	
 3.88250000000000E+0003	 1.47711575676070E-0001	
 3.88450000000000E+0003	 1.47551745391063E-0001	
 3.88650000000000E+0003	 1.47534415106057E-0001	
 3.88850000000000E+0003	 1.47457584821051E-0001	
 3.89050000000000E+0003	 1.47521754536045E-0001	
 3.89250000000000E+0003	 1.47560924251039E-0001	
 3.89450000000000E+0003	 1.47382593966033E-0001	
 3.89650000000000E+0003	 1.47204763681026E-0001	
 3.89850000000000E+0003	 1.47095933396020E-0001	
 3.90050000000000E+0003	 1.46944603111014E-0001	
 3.90250000000000E+0003	 1.46863772826008E-0001	
 3.90450000000000E+0003	 1.47059942541002E-0001	
 3.90650000000000E+0003	 1.47098612255995E-0001	
 3.90850000000000E+0003	 1.46950781970989E-0001	
 3.91050000000000E+0003	 1.46854951685983E-0001	
 3.91250000000000E+0003	 1.46795621400977E-0001	
 3.91450000000000E+0003	 1.46676291115971E-0001	
 3.91650000000000E+0003	 1.46565460830964E-0001	
 3.91850000000000E+0003	 1.46524630545958E-0001	
 3.92050000000000E+0003	 1.46544800260952E-0001	
 3.92250000000000E+0003	 1.46531469975946E-0001	
 3.92450000000000E+0003	 1.46557139690940E-0001	
 3.92650000000000E+0003	 1.46542309405933E-0001	
 3.92850000000000E+0003	 1.46430979120927E-0001	
 3.93050000000000E+0003	 1.46305148835921E-0001	
 3.93250000000000E+0003	 1.46216818550915E-0001	
 3.93450000000000E+0003	 1.46211488265909E-0001	
 3.93650000000000E+0003	 1.46214657980902E-0001	
 3.93850000000000E+0003	 1.46192327695896E-0001	
 3.94050000000000E+0003	 1.46125497410890E-0001	
 3.94250000000000E+0003	 1.46109167125884E-0001	
 3.94450000000000E+0003	 1.46040336840878E-0001	
 3.94650000000000E+0003	 1.45907506555871E-0001	
 3.94850000000000E+0003	 1.45872676270865E-0001	
 3.95050000000000E+0003	 1.45909845985859E-0001	
 3.95250000000000E+0003	 1.45902515700853E-0001	
 3.95450000000000E+0003	 1.45847685415847E-0001	
 3.95650000000000E+0003	 1.45791855130840E-0001	
 3.95850000000000E+0003	 1.45739024845834E-0001	
 3.96050000000000E+0003	 1.45675694560828E-0001	
 3.96250000000000E+0003	 1.45631864275822E-0001	
 3.96450000000000E+0003	 1.45606033990816E-0001	
 3.96650000000000E+0003	 1.45581203705809E-0001	
 3.96850000000000E+0003	 1.45539873420803E-0001	
 3.97050000000000E+0003	 1.45496543135797E-0001	
 3.97250000000000E+0003	 1.45452712850791E-0001	
 3.97450000000000E+0003	 1.45404882565785E-0001	
 3.97650000000000E+0003	 1.45358552280778E-0001	
 3.97850000000000E+0003	 1.45328221995772E-0001	
 3.98050000000000E+0003	 1.45299891710766E-0001	
 3.98250000000000E+0003	 1.45273061425760E-0001	
 3.98450000000000E+0003	 1.45242231140754E-0001	
 3.98650000000000E+0003	 1.45195900855748E-0001	
 3.98850000000000E+0003	 1.45135570570741E-0001	
 3.99050000000000E+0003	 1.45091382352941E-0001	
 3.99250000000000E+0003	 1.45006382352941E-0001	
 3.99450000000000E+0003	 1.44929382352941E-0001	
 3.99650000000000E+0003	 1.44852882352941E-0001	
 3.99850000000000E+0003	 1.44767882352941E-0001	

>1	DATALINE
