*CPCWIN*

>1	DATALINE
DATALINE
1
Operator:

Description:

Remarks:





15.9.2008
10:52


_x	_y
	
	
UNIT	UNIT
 4.50500000000000E+0002	 1.56036327219240E-0001	
 4.52500000000000E+0002	 1.56139555528779E-0001	
 4.54500000000000E+0002	 1.57213783838317E-0001	
 4.56500000000000E+0002	 1.57239012147856E-0001	
 4.58500000000000E+0002	 1.57460240457395E-0001	
 4.60500000000000E+0002	 1.58430968766933E-0001	
 4.62500000000000E+0002	 1.59352197076472E-0001	
 4.64500000000000E+0002	 1.60216425386010E-0001	
 4.66500000000000E+0002	 1.60720153695549E-0001	
 4.68500000000000E+0002	 1.61185382005088E-0001	
 4.70500000000000E+0002	 1.61696610314626E-0001	
 4.72500000000000E+0002	 1.62412838624165E-0001	
 4.74500000000000E+0002	 1.63256566933703E-0001	
 4.76500000000000E+0002	 1.64047295243242E-0001	
 4.78500000000000E+0002	 1.64814023552781E-0001	
 4.80500000000000E+0002	 1.65635251862319E-0001	
 4.82500000000000E+0002	 1.66492480171858E-0001	
 4.84500000000000E+0002	 1.67402208481396E-0001	
 4.86500000000000E+0002	 1.68331936790935E-0001	
 4.88500000000000E+0002	 1.69370165100473E-0001	
 4.90500000000000E+0002	 1.70380393410012E-0001	
 4.92500000000000E+0002	 1.71457121719551E-0001	
 4.94500000000000E+0002	 1.72528850029089E-0001	
 4.96500000000000E+0002	 1.73482078338628E-0001	
 4.98500000000000E+0002	 1.74371806648166E-0001	
 5.00500000000000E+0002	 1.75116034957705E-0001	
 5.02500000000000E+0002	 1.75923263267244E-0001	
 5.04500000000000E+0002	 1.77064491576782E-0001	
 5.06500000000000E+0002	 1.78180219886321E-0001	
 5.08500000000000E+0002	 1.79215948195859E-0001	
 5.10500000000000E+0002	 1.80248676505398E-0001	
 5.12500000000000E+0002	 1.81300904814937E-0001	
 5.14500000000000E+0002	 1.82236633124475E-0001	
 5.16500000000000E+0002	 1.83183861434014E-0001	
 5.18500000000000E+0002	 1.84436089743552E-0001	
 5.20500000000000E+0002	 1.85773818053091E-0001	
 5.22500000000000E+0002	 1.86995046362629E-0001	
 5.24500000000000E+0002	 1.88026274672168E-0001	
 5.26500000000000E+0002	 1.89189002981707E-0001	
 5.28500000000000E+0002	 1.90578231291245E-0001	
 5.30500000000000E+0002	 1.91698959600784E-0001	
 5.32500000000000E+0002	 1.92340187910322E-0001	
 5.34500000000000E+0002	 1.92584416219861E-0001	
 5.36500000000000E+0002	 1.92512144529400E-0001	
 5.38500000000000E+0002	 1.92223372838938E-0001	
 5.40500000000000E+0002	 1.91917601148477E-0001	
 5.42500000000000E+0002	 1.91686829458015E-0001	
 5.44500000000000E+0002	 1.91540557767554E-0001	
 5.46500000000000E+0002	 1.91483786077093E-0001	
 5.48500000000000E+0002	 1.91523514386631E-0001	
 5.50500000000000E+0002	 1.91624742696170E-0001	
 5.52500000000000E+0002	 1.91718971005708E-0001	
 5.54500000000000E+0002	 1.91691199315247E-0001	
 5.56500000000000E+0002	 1.91545427624785E-0001	
 5.58500000000000E+0002	 1.91243155934324E-0001	
 5.60500000000000E+0002	 1.90753884243863E-0001	
 5.62500000000000E+0002	 1.90088112553401E-0001	
 5.64500000000000E+0002	 1.89389340862940E-0001	
 5.66500000000000E+0002	 1.88738069172478E-0001	
 5.68500000000000E+0002	 1.88214297482017E-0001	
 5.70500000000000E+0002	 1.87726525791556E-0001	
 5.72500000000000E+0002	 1.87342754101094E-0001	
 5.74500000000000E+0002	 1.86986482410633E-0001	
 5.76500000000000E+0002	 1.86754210720171E-0001	
 5.78500000000000E+0002	 1.86660439029710E-0001	
 5.80500000000000E+0002	 1.86570667339249E-0001	
 5.82500000000000E+0002	 1.86437895648787E-0001	
 5.84500000000000E+0002	 1.86260123958326E-0001	
 5.86500000000000E+0002	 1.86078352267864E-0001	
 5.88500000000000E+0002	 1.85975080577403E-0001	
 5.90500000000000E+0002	 1.85891808886941E-0001	
 5.92500000000000E+0002	 1.85977537196480E-0001	
 5.94500000000000E+0002	 1.86247265506019E-0001	
 5.96500000000000E+0002	 1.86601493815557E-0001	
 5.98500000000000E+0002	 1.86943222125096E-0001	
 6.00500000000000E+0002	 1.87308950434634E-0001	
 6.02500000000000E+0002	 1.87605678744173E-0001	
 6.04500000000000E+0002	 1.87749907053712E-0001	
 6.06500000000000E+0002	 1.87662135363250E-0001	
 6.08500000000000E+0002	 1.87343363672789E-0001	
 6.10500000000000E+0002	 1.86851591982327E-0001	
 6.12500000000000E+0002	 1.86358820291866E-0001	
 6.14500000000000E+0002	 1.85852048601405E-0001	
 6.16500000000000E+0002	 1.85318276910943E-0001	
 6.18500000000000E+0002	 1.84879505220482E-0001	
 6.20500000000000E+0002	 1.84533733530020E-0001	
 6.22500000000000E+0002	 1.84059461839559E-0001	
 6.24500000000000E+0002	 1.83587690149098E-0001	
 6.26500000000000E+0002	 1.83167918458636E-0001	
 6.28500000000000E+0002	 1.82786646768175E-0001	
 6.30500000000000E+0002	 1.82324875077713E-0001	
 6.32500000000000E+0002	 1.81792603387252E-0001	
 6.34500000000000E+0002	 1.81129331696790E-0001	
 6.36500000000000E+0002	 1.80490060006329E-0001	
 6.38500000000000E+0002	 1.79853788315868E-0001	
 6.40500000000000E+0002	 1.79278516625406E-0001	
 6.42500000000000E+0002	 1.78731244934945E-0001	
 6.44500000000000E+0002	 1.78231473244483E-0001	
 6.46500000000000E+0002	 1.77702701554022E-0001	
 6.48500000000000E+0002	 1.77227929863561E-0001	
 6.50500000000000E+0002	 1.76756658173099E-0001	
 6.52500000000000E+0002	 1.76340886482638E-0001	
 6.54500000000000E+0002	 1.75932614792176E-0001	
 6.56500000000000E+0002	 1.75579343101715E-0001	
 6.58500000000000E+0002	 1.75179071411254E-0001	
 6.60500000000000E+0002	 1.74770299720792E-0001	
 6.62500000000000E+0002	 1.74411528030331E-0001	
 6.64500000000000E+0002	 1.74321256339869E-0001	
 6.66500000000000E+0002	 1.75598984649408E-0001	
 6.68500000000000E+0002	 1.75822712958946E-0001	
 6.70500000000000E+0002	 1.72733441268485E-0001	
 6.72500000000000E+0002	 1.71766169578024E-0001	
 6.74500000000000E+0002	 1.71185397887562E-0001	
 6.76500000000000E+0002	 1.70593626197101E-0001	
 6.78500000000000E+0002	 1.69919854506639E-0001	
 6.80500000000000E+0002	 1.69242082816178E-0001	
 6.82500000000000E+0002	 1.68602811125717E-0001	
 6.84500000000000E+0002	 1.68045539435255E-0001	
 6.86500000000000E+0002	 1.67475267744794E-0001	
 6.88500000000000E+0002	 1.66931996054332E-0001	
 6.90500000000000E+0002	 1.66433724363871E-0001	
 6.92500000000000E+0002	 1.66033452673410E-0001	
 6.94500000000000E+0002	 1.65662180982948E-0001	
 6.96500000000000E+0002	 1.65415909292487E-0001	
 6.98500000000000E+0002	 1.65158137602025E-0001	
 7.00500000000000E+0002	 1.64851865911564E-0001	
 7.02500000000000E+0002	 1.64391094221102E-0001	
 7.04500000000000E+0002	 1.63857822530641E-0001	
 7.06500000000000E+0002	 1.63281050840180E-0001	
 7.08500000000000E+0002	 1.62700779149718E-0001	
 7.10500000000000E+0002	 1.62067007459257E-0001	
 7.12500000000000E+0002	 1.61402735768795E-0001	
 7.14500000000000E+0002	 1.60596964078334E-0001	
 7.16500000000000E+0002	 1.59685692387873E-0001	
 7.18500000000000E+0002	 1.58615420697411E-0001	
 7.20500000000000E+0002	 1.57501649006950E-0001	
 7.22500000000000E+0002	 1.56470877316488E-0001	
 7.24500000000000E+0002	 1.55275105626027E-0001	
 7.26500000000000E+0002	 1.53784333935566E-0001	
 7.28500000000000E+0002	 1.52145062245104E-0001	
 7.30500000000000E+0002	 1.50478790554643E-0001	
 7.32500000000000E+0002	 1.48951518864181E-0001	
 7.34500000000000E+0002	 1.47608247173720E-0001	
 7.36500000000000E+0002	 1.46457975483258E-0001	
 7.38500000000000E+0002	 1.45445203792797E-0001	
 7.40500000000000E+0002	 1.44545432102336E-0001	
 7.42500000000000E+0002	 1.43715160411874E-0001	
 7.44500000000000E+0002	 1.42957888721413E-0001	
 7.46500000000000E+0002	 1.42244617030951E-0001	
 7.48500000000000E+0002	 1.41575845340490E-0001	
 7.50500000000000E+0002	 1.40963073650029E-0001	
 7.52500000000000E+0002	 1.40551801959567E-0001	
 7.54500000000000E+0002	 1.40393030269106E-0001	
 7.56500000000000E+0002	 1.40479258578644E-0001	
 7.58500000000000E+0002	 1.40774486888183E-0001	
 7.60500000000000E+0002	 1.41317215197722E-0001	
 7.62500000000000E+0002	 1.41918943507260E-0001	
 7.64500000000000E+0002	 1.42186671816799E-0001	
 7.66500000000000E+0002	 1.41621900126337E-0001	
 7.68500000000000E+0002	 1.40181128435876E-0001	
 7.70500000000000E+0002	 1.38278856745414E-0001	
 7.72500000000000E+0002	 1.36564585054953E-0001	
 7.74500000000000E+0002	 1.35477813364492E-0001	
 7.76500000000000E+0002	 1.35306041674030E-0001	
 7.78500000000000E+0002	 1.35717769983569E-0001	
 7.80500000000000E+0002	 1.35810498293107E-0001	
 7.82500000000000E+0002	 1.35085726602646E-0001	
 7.84500000000000E+0002	 1.34032454912185E-0001	
 7.86500000000000E+0002	 1.32915683221723E-0001	
 7.88500000000000E+0002	 1.31729411531262E-0001	
 7.90500000000000E+0002	 1.30537139840800E-0001	
 7.92500000000000E+0002	 1.29668368150339E-0001	
 7.94500000000000E+0002	 1.29131596459878E-0001	
 7.96500000000000E+0002	 1.28612824769416E-0001	
 7.98500000000000E+0002	 1.27776053078955E-0001	
 8.00500000000000E+0002	 1.26808281388493E-0001	
 8.02500000000000E+0002	 1.25894509698032E-0001	
 8.04500000000000E+0002	 1.25248738007571E-0001	
 8.06500000000000E+0002	 1.24791466317109E-0001	
 8.08500000000000E+0002	 1.24444694626648E-0001	
 8.10500000000000E+0002	 1.24008922936186E-0001	
 8.12500000000000E+0002	 1.23455651245725E-0001	
 8.14500000000000E+0002	 1.22707379555263E-0001	
 8.16500000000000E+0002	 1.21868607864802E-0001	
 8.18500000000000E+0002	 1.21024836174341E-0001	
 8.20500000000000E+0002	 1.20390564483879E-0001	
 8.22500000000000E+0002	 1.19922792793418E-0001	
 8.24500000000000E+0002	 1.19681521102956E-0001	
 8.26500000000000E+0002	 1.19558749412495E-0001	
 8.28500000000000E+0002	 1.19559977722034E-0001	
 8.30500000000000E+0002	 1.19611706031572E-0001	
 8.32500000000000E+0002	 1.19789934341111E-0001	
 8.34500000000000E+0002	 1.19998162650649E-0001	
 8.36500000000000E+0002	 1.20232890960188E-0001	
 8.38500000000000E+0002	 1.20384619269727E-0001	
 8.40500000000000E+0002	 1.20457847579265E-0001	
 8.42500000000000E+0002	 1.20361575888804E-0001	
 8.44500000000000E+0002	 1.20176304198342E-0001	
 8.46500000000000E+0002	 1.19926532507881E-0001	
 8.48500000000000E+0002	 1.19742260817419E-0001	
 8.50500000000000E+0002	 1.19639989126958E-0001	
 8.52500000000000E+0002	 1.19664217436497E-0001	
 8.54500000000000E+0002	 1.19761945746035E-0001	
 8.56500000000000E+0002	 1.19915174055574E-0001	
 8.58500000000000E+0002	 1.19961902365112E-0001	
 8.60500000000000E+0002	 1.19814130674651E-0001	
 8.62500000000000E+0002	 1.19347358984190E-0001	
 8.64500000000000E+0002	 1.18602087293728E-0001	
 8.66500000000000E+0002	 1.17610315603267E-0001	
 8.68500000000000E+0002	 1.16543543912805E-0001	
 8.70500000000000E+0002	 1.15576772222344E-0001	
 8.72500000000000E+0002	 1.14797500531883E-0001	
 8.74500000000000E+0002	 1.14129228841421E-0001	
 8.76500000000000E+0002	 1.13666457150960E-0001	
 8.78500000000000E+0002	 1.13458685460498E-0001	
 8.80500000000000E+0002	 1.13441913770037E-0001	
 8.82500000000000E+0002	 1.13478642079575E-0001	
 8.84500000000000E+0002	 1.13504870389114E-0001	
 8.86500000000000E+0002	 1.13474098698653E-0001	
 8.88500000000000E+0002	 1.13364327008191E-0001	
 8.90500000000000E+0002	 1.13125055317730E-0001	
 8.92500000000000E+0002	 1.12801283627268E-0001	
 8.94500000000000E+0002	 1.12431511936807E-0001	
 8.96500000000000E+0002	 1.12006240246346E-0001	
 8.98500000000000E+0002	 1.11613968555884E-0001	
 9.00500000000000E+0002	 1.11431696865423E-0001	
 9.02500000000000E+0002	 1.11600925174961E-0001	
 9.04500000000000E+0002	 1.12233653484500E-0001	
 9.06500000000000E+0002	 1.13397881794039E-0001	
 9.08500000000000E+0002	 1.14976610103577E-0001	
 9.10500000000000E+0002	 1.16730838413116E-0001	
 9.12500000000000E+0002	 1.18362566722654E-0001	
 9.14500000000000E+0002	 1.19576795032193E-0001	
 9.16500000000000E+0002	 1.20181523341731E-0001	
 9.18500000000000E+0002	 1.20153751651270E-0001	
 9.20500000000000E+0002	 1.19535479960809E-0001	
 9.22500000000000E+0002	 1.18459708270347E-0001	
 9.24500000000000E+0002	 1.17141436579886E-0001	
 9.26500000000000E+0002	 1.15712164889424E-0001	
 9.28500000000000E+0002	 1.14296393198963E-0001	
 9.30500000000000E+0002	 1.13015121508502E-0001	
 9.32500000000000E+0002	 1.11965849818040E-0001	
 9.34500000000000E+0002	 1.11180578127579E-0001	
 9.36500000000000E+0002	 1.10628306437117E-0001	
 9.38500000000000E+0002	 1.10252034746656E-0001	
 9.40500000000000E+0002	 1.10048763056195E-0001	
 9.42500000000000E+0002	 1.10026491365733E-0001	
 9.44500000000000E+0002	 1.10250219675272E-0001	
 9.46500000000000E+0002	 1.10736447984810E-0001	
 9.48500000000000E+0002	 1.11532676294349E-0001	
 9.50500000000000E+0002	 1.12597404603887E-0001	
 9.52500000000000E+0002	 1.13956132913426E-0001	
 9.54500000000000E+0002	 1.15590861222965E-0001	
 9.56500000000000E+0002	 1.17523589532503E-0001	
 9.58500000000000E+0002	 1.19659817842042E-0001	
 9.60500000000000E+0002	 1.21951046151580E-0001	
 9.62500000000000E+0002	 1.24275274461119E-0001	
 9.64500000000000E+0002	 1.26588002770658E-0001	
 9.66500000000000E+0002	 1.28801731080196E-0001	
 9.68500000000000E+0002	 1.31007959389735E-0001	
 9.70500000000000E+0002	 1.33227187699273E-0001	
 9.72500000000000E+0002	 1.35653416008812E-0001	
 9.74500000000000E+0002	 1.38493144318351E-0001	
 9.76500000000000E+0002	 1.42099872627889E-0001	
 9.78500000000000E+0002	 1.46714100937428E-0001	
 9.80500000000000E+0002	 1.52526329246966E-0001	
 9.82500000000000E+0002	 1.59308557556505E-0001	
 9.84500000000000E+0002	 1.66608785866044E-0001	
 9.86500000000000E+0002	 1.73682514175582E-0001	
 9.88500000000000E+0002	 1.79972742485121E-0001	
 9.90500000000000E+0002	 1.85108470794659E-0001	
 9.92500000000000E+0002	 1.89281699104198E-0001	
 9.94500000000000E+0002	 1.92956927413736E-0001	
 9.96500000000000E+0002	 1.96826655723275E-0001	
 9.98500000000000E+0002	 2.01368884032814E-0001	
 1.00050000000000E+0003	 2.06878112342352E-0001	
 1.00250000000000E+0003	 2.13154840651891E-0001	
 1.00450000000000E+0003	 2.19874568961429E-0001	
 1.00650000000000E+0003	 2.26591297270968E-0001	
 1.00850000000000E+0003	 2.33068525580507E-0001	
 1.01050000000000E+0003	 2.39112253890045E-0001	
 1.01250000000000E+0003	 2.44750982199584E-0001	
 1.01450000000000E+0003	 2.49930210509122E-0001	
 1.01650000000000E+0003	 2.54561938818661E-0001	
 1.01850000000000E+0003	 2.58373167128200E-0001	
 1.02050000000000E+0003	 2.61277395437738E-0001	
 1.02250000000000E+0003	 2.63337123747277E-0001	
 1.02450000000000E+0003	 2.64904352056815E-0001	
 1.02650000000000E+0003	 2.66334580366354E-0001	
 1.02850000000000E+0003	 2.67891808675892E-0001	
 1.03050000000000E+0003	 2.69534536985431E-0001	
 1.03250000000000E+0003	 2.71138765294970E-0001	
 1.03450000000000E+0003	 2.72582493604508E-0001	
 1.03650000000000E+0003	 2.73705221914047E-0001	
 1.03850000000000E+0003	 2.74337950223585E-0001	
 1.04050000000000E+0003	 2.74676678533124E-0001	
 1.04250000000000E+0003	 2.75053906842663E-0001	
 1.04450000000000E+0003	 2.75840635152201E-0001	
 1.04650000000000E+0003	 2.77207863461740E-0001	
 1.04850000000000E+0003	 2.79127591771278E-0001	
 1.05050000000000E+0003	 2.81237820080817E-0001	
 1.05250000000000E+0003	 2.82935548390356E-0001	
 1.05450000000000E+0003	 2.83725776699894E-0001	
 1.05650000000000E+0003	 2.83508505009433E-0001	
 1.05850000000000E+0003	 2.82443233318971E-0001	
 1.06050000000000E+0003	 2.80864461628510E-0001	
 1.06250000000000E+0003	 2.79273189938048E-0001	
 1.06450000000000E+0003	 2.78305418247587E-0001	
 1.06650000000000E+0003	 2.78541646557126E-0001	
 1.06850000000000E+0003	 2.80225874866664E-0001	
 1.07050000000000E+0003	 2.83160103176203E-0001	
 1.07250000000000E+0003	 2.86823831485741E-0001	
 1.07450000000000E+0003	 2.90530059795280E-0001	
 1.07650000000000E+0003	 2.93638288104819E-0001	
 1.07850000000000E+0003	 2.95712516414357E-0001	
 1.08050000000000E+0003	 2.96475744723896E-0001	
 1.08250000000000E+0003	 2.95828973033434E-0001	
 1.08450000000000E+0003	 2.93639701342973E-0001	
 1.08650000000000E+0003	 2.89748929652512E-0001	
 1.08850000000000E+0003	 2.84207657962050E-0001	
 1.09050000000000E+0003	 2.77642886271589E-0001	
 1.09250000000000E+0003	 2.71119614581127E-0001	
 1.09450000000000E+0003	 2.65611342890666E-0001	
 1.09650000000000E+0003	 2.61418071200204E-0001	
 1.09850000000000E+0003	 2.58221299509743E-0001	
 1.10050000000000E+0003	 2.55447027819282E-0001	
 1.10250000000000E+0003	 2.52639756128820E-0001	
 1.10450000000000E+0003	 2.49563484438359E-0001	
 1.10650000000000E+0003	 2.46254212747897E-0001	
 1.10850000000000E+0003	 2.42918441057436E-0001	
 1.11050000000000E+0003	 2.39780669366975E-0001	
 1.11250000000000E+0003	 2.36900897676513E-0001	
 1.11450000000000E+0003	 2.34188625986052E-0001	
 1.11650000000000E+0003	 2.31498854295590E-0001	
 1.11850000000000E+0003	 2.28727582605129E-0001	
 1.12050000000000E+0003	 2.25826810914668E-0001	
 1.12250000000000E+0003	 2.22771539224206E-0001	
 1.12450000000000E+0003	 2.19566767533745E-0001	
 1.12650000000000E+0003	 2.16253995843283E-0001	
 1.12850000000000E+0003	 2.12898724152822E-0001	
 1.13050000000000E+0003	 2.09541452462360E-0001	
 1.13250000000000E+0003	 2.06333180771899E-0001	
 1.13450000000000E+0003	 2.03414909081438E-0001	
 1.13650000000000E+0003	 2.00906637390976E-0001	
 1.13850000000000E+0003	 1.98938865700515E-0001	
 1.14050000000000E+0003	 1.97663594010053E-0001	
 1.14250000000000E+0003	 1.97106322319592E-0001	
 1.14450000000000E+0003	 1.97098550629131E-0001	
 1.14650000000000E+0003	 1.97262778938669E-0001	
 1.14850000000000E+0003	 1.97124507248208E-0001	
 1.15050000000000E+0003	 1.96204235557746E-0001	
 1.15250000000000E+0003	 1.94251963867285E-0001	
 1.15450000000000E+0003	 1.91311192176824E-0001	
 1.15650000000000E+0003	 1.87750420486362E-0001	
 1.15850000000000E+0003	 1.83932148795901E-0001	
 1.16050000000000E+0003	 1.80062877105439E-0001	
 1.16250000000000E+0003	 1.76099605414978E-0001	
 1.16450000000000E+0003	 1.71986833724516E-0001	
 1.16650000000000E+0003	 1.67709562034055E-0001	
 1.16850000000000E+0003	 1.63426290343594E-0001	
 1.17050000000000E+0003	 1.59296518653132E-0001	
 1.17250000000000E+0003	 1.55414246962671E-0001	
 1.17450000000000E+0003	 1.51768475272209E-0001	
 1.17650000000000E+0003	 1.48433203581748E-0001	
 1.17850000000000E+0003	 1.45485931891287E-0001	
 1.18050000000000E+0003	 1.43080660200825E-0001	
 1.18250000000000E+0003	 1.41275388510364E-0001	
 1.18450000000000E+0003	 1.40141116819902E-0001	
 1.18650000000000E+0003	 1.39673845129441E-0001	
 1.18850000000000E+0003	 1.39909073438980E-0001	
 1.19050000000000E+0003	 1.40783801748518E-0001	
 1.19250000000000E+0003	 1.42266030058057E-0001	
 1.19450000000000E+0003	 1.44240258367595E-0001	
 1.19650000000000E+0003	 1.46616986677134E-0001	
 1.19850000000000E+0003	 1.49203714986673E-0001	
 1.20050000000000E+0003	 1.51852443296211E-0001	
 1.20250000000000E+0003	 1.54389171605750E-0001	
 1.20450000000000E+0003	 1.56757399915288E-0001	
 1.20650000000000E+0003	 1.58862128224827E-0001	
 1.20850000000000E+0003	 1.60745856534365E-0001	
 1.21050000000000E+0003	 1.62470584843904E-0001	
 1.21250000000000E+0003	 1.64233813153443E-0001	
 1.21450000000000E+0003	 1.66094041462981E-0001	
 1.21650000000000E+0003	 1.68098769772520E-0001	
 1.21850000000000E+0003	 1.70165498082058E-0001	
 1.22050000000000E+0003	 1.72142726391597E-0001	
 1.22250000000000E+0003	 1.73779454701136E-0001	
 1.22450000000000E+0003	 1.75133183010674E-0001	
 1.22650000000000E+0003	 1.76310911320213E-0001	
 1.22850000000000E+0003	 1.77386639629751E-0001	
 1.23050000000000E+0003	 1.78270867939290E-0001	
 1.23250000000000E+0003	 1.78945596248829E-0001	
 1.23450000000000E+0003	 1.79333824558367E-0001	
 1.23650000000000E+0003	 1.79458052867906E-0001	
 1.23850000000000E+0003	 1.79291281177444E-0001	
 1.24050000000000E+0003	 1.78912509486983E-0001	
 1.24250000000000E+0003	 1.78305237796521E-0001	
 1.24450000000000E+0003	 1.77541966106060E-0001	
 1.24650000000000E+0003	 1.76593194415599E-0001	
 1.24850000000000E+0003	 1.75503422725137E-0001	
 1.25050000000000E+0003	 1.74253151034676E-0001	
 1.25250000000000E+0003	 1.72898879344214E-0001	
 1.25450000000000E+0003	 1.71441607653753E-0001	
 1.25650000000000E+0003	 1.69964335963292E-0001	
 1.25850000000000E+0003	 1.68463064272830E-0001	
 1.26050000000000E+0003	 1.67002292582369E-0001	
 1.26250000000000E+0003	 1.65511520891907E-0001	
 1.26450000000000E+0003	 1.64022749201446E-0001	
 1.26650000000000E+0003	 1.62562977510985E-0001	
 1.26850000000000E+0003	 1.61215205820523E-0001	
 1.27050000000000E+0003	 1.60001434130062E-0001	
 1.27250000000000E+0003	 1.58970162439600E-0001	
 1.27450000000000E+0003	 1.58025890749139E-0001	
 1.27650000000000E+0003	 1.57207619058677E-0001	
 1.27850000000000E+0003	 1.56513847368216E-0001	
 1.28050000000000E+0003	 1.55918575677755E-0001	
 1.28250000000000E+0003	 1.55277803987293E-0001	
 1.28450000000000E+0003	 1.54580032296832E-0001	
 1.28650000000000E+0003	 1.53888260606370E-0001	
 1.28850000000000E+0003	 1.53351488915909E-0001	
 1.29050000000000E+0003	 1.52996717225448E-0001	
 1.29250000000000E+0003	 1.52809945534986E-0001	
 1.29450000000000E+0003	 1.52731173844525E-0001	
 1.29650000000000E+0003	 1.52823402154063E-0001	
 1.29850000000000E+0003	 1.53133130463602E-0001	
 1.30050000000000E+0003	 1.53638858773141E-0001	
 1.30250000000000E+0003	 1.54235087082679E-0001	
 1.30450000000000E+0003	 1.54870315392218E-0001	
 1.30650000000000E+0003	 1.55499043701756E-0001	
 1.30850000000000E+0003	 1.56144272011295E-0001	
 1.31050000000000E+0003	 1.56702500320833E-0001	
 1.31250000000000E+0003	 1.57155228630372E-0001	
 1.31450000000000E+0003	 1.57468956939911E-0001	
 1.31650000000000E+0003	 1.57500185249449E-0001	
 1.31850000000000E+0003	 1.57317413558988E-0001	
 1.32050000000000E+0003	 1.57020641868526E-0001	
 1.32250000000000E+0003	 1.56602370178065E-0001	
 1.32450000000000E+0003	 1.56274098487604E-0001	
 1.32650000000000E+0003	 1.56129326797142E-0001	
 1.32850000000000E+0003	 1.56230055106681E-0001	
 1.33050000000000E+0003	 1.56566283416219E-0001	
 1.33250000000000E+0003	 1.57084511725758E-0001	
 1.33450000000000E+0003	 1.57556740035297E-0001	
 1.33650000000000E+0003	 1.57849968344835E-0001	
 1.33850000000000E+0003	 1.58065196654374E-0001	
 1.34050000000000E+0003	 1.58441424963912E-0001	
 1.34250000000000E+0003	 1.58560653273451E-0001	
 1.34450000000000E+0003	 1.58382881582989E-0001	
 1.34650000000000E+0003	 1.58112109892528E-0001	
 1.34850000000000E+0003	 1.57943838202067E-0001	
 1.35050000000000E+0003	 1.57974066511605E-0001	
 1.35250000000000E+0003	 1.58181794821144E-0001	
 1.35450000000000E+0003	 1.58563523130682E-0001	
 1.35650000000000E+0003	 1.59065251440221E-0001	
 1.35850000000000E+0003	 1.59490979749760E-0001	
 1.36050000000000E+0003	 1.59826708059298E-0001	
 1.36250000000000E+0003	 1.60523436368837E-0001	
 1.36450000000000E+0003	 1.61843164678375E-0001	
 1.36650000000000E+0003	 1.63328892987914E-0001	
 1.36850000000000E+0003	 1.64903621297453E-0001	
 1.37050000000000E+0003	 1.66036849606991E-0001	
 1.37250000000000E+0003	 1.66746077916530E-0001	
 1.37450000000000E+0003	 1.67595306226068E-0001	
 1.37650000000000E+0003	 1.68410534535607E-0001	
 1.37850000000000E+0003	 1.68941762845146E-0001	
 1.38050000000000E+0003	 1.69489991154684E-0001	
 1.38250000000000E+0003	 1.70062719464223E-0001	
 1.38450000000000E+0003	 1.70518447773761E-0001	
 1.38650000000000E+0003	 1.70694176083300E-0001	
 1.38850000000000E+0003	 1.70900904392838E-0001	
 1.39050000000000E+0003	 1.71463132702377E-0001	
 1.39250000000000E+0003	 1.72391361011916E-0001	
 1.39450000000000E+0003	 1.73106089321454E-0001	
 1.39650000000000E+0003	 1.74028817630993E-0001	
 1.39850000000000E+0003	 1.75297545940531E-0001	
 1.40050000000000E+0003	 1.76455774250070E-0001	
 1.40250000000000E+0003	 1.77028002559609E-0001	
 1.40450000000000E+0003	 1.77324230869147E-0001	
 1.40650000000000E+0003	 1.77238959178686E-0001	
 1.40850000000000E+0003	 1.76799687488224E-0001	
 1.41050000000000E+0003	 1.76246915797763E-0001	
 1.41250000000000E+0003	 1.75593144107302E-0001	
 1.41450000000000E+0003	 1.74698372416840E-0001	
 1.41650000000000E+0003	 1.73480600726379E-0001	
 1.41850000000000E+0003	 1.72194829035917E-0001	
 1.42050000000000E+0003	 1.70410057345456E-0001	
 1.42250000000000E+0003	 1.69254785654994E-0001	
 1.42450000000000E+0003	 1.68860013964533E-0001	
 1.42650000000000E+0003	 1.67507242274072E-0001	
 1.42850000000000E+0003	 1.66016970583610E-0001	
 1.43050000000000E+0003	 1.64947698893149E-0001	
 1.43250000000000E+0003	 1.64134927202687E-0001	
 1.43450000000000E+0003	 1.63655155512226E-0001	
 1.43650000000000E+0003	 1.63070883821765E-0001	
 1.43850000000000E+0003	 1.62987612131303E-0001	
 1.44050000000000E+0003	 1.64319840440842E-0001	
 1.44250000000000E+0003	 1.65712568750380E-0001	
 1.44450000000000E+0003	 1.66188297059919E-0001	
 1.44650000000000E+0003	 1.66542525369458E-0001	
 1.44850000000000E+0003	 1.66908753678996E-0001	
 1.45050000000000E+0003	 1.67279481988535E-0001	
 1.45250000000000E+0003	 1.67514710298073E-0001	
 1.45450000000000E+0003	 1.67027438607612E-0001	
 1.45650000000000E+0003	 1.64867166917150E-0001	
 1.45850000000000E+0003	 1.62390395226689E-0001	
 1.46050000000000E+0003	 1.60880123536228E-0001	
 1.46250000000000E+0003	 1.60070851845766E-0001	
 1.46450000000000E+0003	 1.57947080155305E-0001	
 1.46650000000000E+0003	 1.55398308464843E-0001	
 1.46850000000000E+0003	 1.53094536774382E-0001	
 1.47050000000000E+0003	 1.50476765083921E-0001	
 1.47250000000000E+0003	 1.46525493393459E-0001	
 1.47450000000000E+0003	 1.42611221702998E-0001	
 1.47650000000000E+0003	 1.40279950012536E-0001	
 1.47850000000000E+0003	 1.39087178322075E-0001	
 1.48050000000000E+0003	 1.38244906631614E-0001	
 1.48250000000000E+0003	 1.37752134941152E-0001	
 1.48450000000000E+0003	 1.37257863250691E-0001	
 1.48650000000000E+0003	 1.37094091560229E-0001	
 1.48850000000000E+0003	 1.37337319869768E-0001	
 1.49050000000000E+0003	 1.38614548179306E-0001	
 1.49250000000000E+0003	 1.40080276488845E-0001	
 1.49450000000000E+0003	 1.42241504798384E-0001	
 1.49650000000000E+0003	 1.44222233107922E-0001	
 1.49850000000000E+0003	 1.46204961417461E-0001	
 1.50050000000000E+0003	 1.48653689726999E-0001	
 1.50250000000000E+0003	 1.51519918036538E-0001	
 1.50450000000000E+0003	 1.53805146346077E-0001	
 1.50650000000000E+0003	 1.56072874655615E-0001	
 1.50850000000000E+0003	 1.60346102965154E-0001	
 1.51050000000000E+0003	 1.65294331274692E-0001	
 1.51250000000000E+0003	 1.71165059584231E-0001	
 1.51450000000000E+0003	 1.75981287893770E-0001	
 1.51650000000000E+0003	 1.80674016203308E-0001	
 1.51850000000000E+0003	 1.84590744512847E-0001	
 1.52050000000000E+0003	 1.87335472822385E-0001	
 1.52250000000000E+0003	 1.90751201131924E-0001	
 1.52450000000000E+0003	 1.94444429441462E-0001	
 1.52650000000000E+0003	 1.99458157751001E-0001	
 1.52850000000000E+0003	 2.04338386060540E-0001	
 1.53050000000000E+0003	 2.08657114370078E-0001	
 1.53250000000000E+0003	 2.12853342679617E-0001	
 1.53450000000000E+0003	 2.17509070989155E-0001	
 1.53650000000000E+0003	 2.21008299298694E-0001	
 1.53850000000000E+0003	 2.24485527608233E-0001	
 1.54050000000000E+0003	 2.28062755917771E-0001	
 1.54250000000000E+0003	 2.30419984227310E-0001	
 1.54450000000000E+0003	 2.33156212536848E-0001	
 1.54650000000000E+0003	 2.35288940846387E-0001	
 1.54850000000000E+0003	 2.35706169155926E-0001	
 1.55050000000000E+0003	 2.34824397465464E-0001	
 1.55250000000000E+0003	 2.32347125775003E-0001	
 1.55450000000000E+0003	 2.28182854084541E-0001	
 1.55650000000000E+0003	 2.23284582394080E-0001	
 1.55850000000000E+0003	 2.17775810703619E-0001	
 1.56050000000000E+0003	 2.11576039013157E-0001	
 1.56250000000000E+0003	 2.06665767322696E-0001	
 1.56450000000000E+0003	 2.06136495632234E-0001	
 1.56650000000000E+0003	 2.03319223941773E-0001	
 1.56850000000000E+0003	 2.00002452251311E-0001	
 1.57050000000000E+0003	 1.96707680560850E-0001	
 1.57250000000000E+0003	 1.93438908870389E-0001	
 1.57450000000000E+0003	 1.91463637179927E-0001	
 1.57650000000000E+0003	 1.88512365489466E-0001	
 1.57850000000000E+0003	 1.84789093799004E-0001	
 1.58050000000000E+0003	 1.83503322108543E-0001	
 1.58250000000000E+0003	 1.82310550418082E-0001	
 1.58450000000000E+0003	 1.80983778727620E-0001	
 1.58650000000000E+0003	 1.80054007037159E-0001	
 1.58850000000000E+0003	 1.79829735346697E-0001	
 1.59050000000000E+0003	 1.80172963656236E-0001	
 1.59250000000000E+0003	 1.81204191965775E-0001	
 1.59450000000000E+0003	 1.82726920275313E-0001	
 1.59650000000000E+0003	 1.84790148584852E-0001	
 1.59850000000000E+0003	 1.86994876894390E-0001	
 1.60050000000000E+0003	 1.89739605203929E-0001	
 1.60250000000000E+0003	 1.92986833513467E-0001	
 1.60450000000000E+0003	 1.96755061823006E-0001	
 1.60650000000000E+0003	 2.00817290132545E-0001	
 1.60850000000000E+0003	 2.05753018442083E-0001	
 1.61050000000000E+0003	 2.11277246751622E-0001	
 1.61250000000000E+0003	 2.17206975061160E-0001	
 1.61450000000000E+0003	 2.23390203370699E-0001	
 1.61650000000000E+0003	 2.30872931680238E-0001	
 1.61850000000000E+0003	 2.38164159989776E-0001	
 1.62050000000000E+0003	 2.45938388299315E-0001	
 1.62250000000000E+0003	 2.55563116608853E-0001	
 1.62450000000000E+0003	 2.65523844918392E-0001	
 1.62650000000000E+0003	 2.74849073227931E-0001	
 1.62850000000000E+0003	 2.85350801537469E-0001	
 1.63050000000000E+0003	 2.95346029847008E-0001	
 1.63250000000000E+0003	 3.04090258156546E-0001	
 1.63450000000000E+0003	 3.12284486466085E-0001	
 1.63650000000000E+0003	 3.20608214775623E-0001	
 1.63850000000000E+0003	 3.26653443085162E-0001	
 1.64050000000000E+0003	 3.32220171394701E-0001	
 1.64250000000000E+0003	 3.36499899704239E-0001	
 1.64450000000000E+0003	 3.39442628013778E-0001	
 1.64650000000000E+0003	 3.42427856323316E-0001	
 1.64850000000000E+0003	 3.45927584632855E-0001	
 1.65050000000000E+0003	 3.48803312942394E-0001	
 1.65250000000000E+0003	 3.50693541251932E-0001	
 1.65450000000000E+0003	 3.51082269561471E-0001	
 1.65650000000000E+0003	 3.50262997871009E-0001	
 1.65850000000000E+0003	 3.51242226180548E-0001	
 1.66050000000000E+0003	 3.48330954490087E-0001	
 1.66250000000000E+0003	 3.43081182799625E-0001	
 1.66450000000000E+0003	 3.36231411109164E-0001	
 1.66650000000000E+0003	 3.29565139418702E-0001	
 1.66850000000000E+0003	 3.22939367728241E-0001	
 1.67050000000000E+0003	 3.15476596037779E-0001	
 1.67250000000000E+0003	 3.08411324347318E-0001	
 1.67450000000000E+0003	 3.02173052656857E-0001	
 1.67650000000000E+0003	 2.94684780966395E-0001	
 1.67850000000000E+0003	 2.88229009275934E-0001	
 1.68050000000000E+0003	 2.82988737585472E-0001	
 1.68250000000000E+0003	 2.77009965895011E-0001	
 1.68450000000000E+0003	 2.69772194204550E-0001	
 1.68650000000000E+0003	 2.60699422514088E-0001	
 1.68850000000000E+0003	 2.55043650823627E-0001	
 1.69050000000000E+0003	 2.49998379133165E-0001	
 1.69250000000000E+0003	 2.43144107442704E-0001	
 1.69450000000000E+0003	 2.36257335752243E-0001	
 1.69650000000000E+0003	 2.27635564061781E-0001	
 1.69850000000000E+0003	 2.20656792371320E-0001	
 1.70050000000000E+0003	 2.14538020680858E-0001	
 1.70250000000000E+0003	 2.07608748990397E-0001	
 1.70450000000000E+0003	 2.05381477299935E-0001	
 1.70650000000000E+0003	 2.03103205609474E-0001	
 1.70850000000000E+0003	 1.99103933919013E-0001	
 1.71050000000000E+0003	 1.95524662228551E-0001	
 1.71250000000000E+0003	 1.91607390538090E-0001	
 1.71450000000000E+0003	 1.87241118847628E-0001	
 1.71650000000000E+0003	 1.82301847157167E-0001	
 1.71850000000000E+0003	 1.76351575466706E-0001	
 1.72050000000000E+0003	 1.70471303776244E-0001	
 1.72250000000000E+0003	 1.67057532085783E-0001	
 1.72450000000000E+0003	 1.63367260395321E-0001	
 1.72650000000000E+0003	 1.59252488704860E-0001	
 1.72850000000000E+0003	 1.55500717014399E-0001	
 1.73050000000000E+0003	 1.52389945323937E-0001	
 1.73250000000000E+0003	 1.49674673633476E-0001	
 1.73450000000000E+0003	 1.46515901943014E-0001	
 1.73650000000000E+0003	 1.43105630252553E-0001	
 1.73850000000000E+0003	 1.43086358562092E-0001	
 1.74050000000000E+0003	 1.42642586871630E-0001	
 1.74250000000000E+0003	 1.40810815181169E-0001	
 1.74450000000000E+0003	 1.39591543490707E-0001	
 1.74650000000000E+0003	 1.38024771800246E-0001	
 1.74850000000000E+0003	 1.36108000109784E-0001	
 1.75050000000000E+0003	 1.33874228419323E-0001	
 1.75250000000000E+0003	 1.30869456728862E-0001	
 1.75450000000000E+0003	 1.28658185038400E-0001	
 1.75650000000000E+0003	 1.27317413347939E-0001	
 1.75850000000000E+0003	 1.25318641657477E-0001	
 1.76050000000000E+0003	 1.23470869967016E-0001	
 1.76250000000000E+0003	 1.21873098276555E-0001	
 1.76450000000000E+0003	 1.19928326586093E-0001	
 1.76650000000000E+0003	 1.18686554895632E-0001	
 1.76850000000000E+0003	 1.17175783205170E-0001	
 1.77050000000000E+0003	 1.15927011514709E-0001	
 1.77250000000000E+0003	 1.15389239824248E-0001	
 1.77450000000000E+0003	 1.13747968133786E-0001	
 1.77650000000000E+0003	 1.13007696443325E-0001	
 1.77850000000000E+0003	 1.12854424752863E-0001	
 1.78050000000000E+0003	 1.12296153062402E-0001	
 1.78250000000000E+0003	 1.11565881371940E-0001	
 1.78450000000000E+0003	 1.10619609681479E-0001	
 1.78650000000000E+0003	 1.09853337991018E-0001	
 1.78850000000000E+0003	 1.09099066300556E-0001	
 1.79050000000000E+0003	 1.08502294610095E-0001	
 1.79250000000000E+0003	 1.07946522919633E-0001	
 1.79450000000000E+0003	 1.06912751229172E-0001	
 1.79650000000000E+0003	 1.06576979538711E-0001	
 1.79850000000000E+0003	 1.06587707848249E-0001	
 1.80050000000000E+0003	 1.06040936157788E-0001	
 1.80250000000000E+0003	 1.05505164467326E-0001	
 1.80450000000000E+0003	 1.05079392776865E-0001	
 1.80650000000000E+0003	 1.04796121086404E-0001	
 1.80850000000000E+0003	 1.04381849395942E-0001	
 1.81050000000000E+0003	 1.04076077705481E-0001	
 1.81250000000000E+0003	 1.03743306015019E-0001	
 1.81450000000000E+0003	 1.03270534324558E-0001	
 1.81650000000000E+0003	 1.02840262634096E-0001	
 1.81850000000000E+0003	 1.02516490943635E-0001	
 1.82050000000000E+0003	 1.02138219253174E-0001	
 1.82250000000000E+0003	 1.01662447562712E-0001	
 1.82450000000000E+0003	 1.01237175872251E-0001	
 1.82650000000000E+0003	 1.00784904181789E-0001	
 1.82850000000000E+0003	 1.00442132491328E-0001	
 1.83050000000000E+0003	 1.00614860800867E-0001	
 1.83250000000000E+0003	 9.99760891104052E-0002	
 1.83450000000000E+0003	 9.97068174199438E-0002	
 1.83650000000000E+0003	 9.97360457294824E-0002	
 1.83850000000000E+0003	 9.95742740390209E-0002	
 1.84050000000000E+0003	 9.90760023485595E-0002	
 1.84250000000000E+0003	 9.85987306580981E-0002	
 1.84450000000000E+0003	 9.81599589676367E-0002	
 1.84650000000000E+0003	 9.73971872771753E-0002	
 1.84850000000000E+0003	 9.76969155867139E-0002	
 1.85050000000000E+0003	 9.81011438962525E-0002	
 1.85250000000000E+0003	 9.79613722057911E-0002	
 1.85450000000000E+0003	 9.78076005153297E-0002	
 1.85650000000000E+0003	 9.75918288248682E-0002	
 1.85850000000000E+0003	 9.74110571344068E-0002	
 1.86050000000000E+0003	 9.72237854439454E-0002	
 1.86250000000000E+0003	 9.70350137534840E-0002	
 1.86450000000000E+0003	 9.67467420630226E-0002	
 1.86650000000000E+0003	 9.64769703725612E-0002	
 1.86850000000000E+0003	 9.65236986820998E-0002	
 1.87050000000000E+0003	 9.62919269916384E-0002	
 1.87250000000000E+0003	 9.58631553011770E-0002	
 1.87450000000000E+0003	 9.60683836107155E-0002	
 1.87650000000000E+0003	 9.60901119202541E-0002	
 1.87850000000000E+0003	 9.59798402297927E-0002	
 1.88050000000000E+0003	 9.58545685393313E-0002	
 1.88250000000000E+0003	 9.57327968488699E-0002	
 1.88450000000000E+0003	 9.56420251584085E-0002	
 1.88650000000000E+0003	 9.54507534679471E-0002	
 1.88850000000000E+0003	 9.52854817774857E-0002	
 1.89050000000000E+0003	 9.53007100870243E-0002	
 1.89250000000000E+0003	 9.50474383965628E-0002	
 1.89450000000000E+0003	 9.50241667061014E-0002	
 1.89650000000000E+0003	 9.51088950156400E-0002	
 1.89850000000000E+0003	 9.49731233251786E-0002	
 1.90050000000000E+0003	 9.48738516347172E-0002	
 1.90250000000000E+0003	 9.48160799442558E-0002	
 1.90450000000000E+0003	 9.47523082537944E-0002	
 1.90650000000000E+0003	 9.46300365633330E-0002	
 1.90850000000000E+0003	 9.45867648728716E-0002	
 1.91050000000000E+0003	 9.46344931824101E-0002	
 1.91250000000000E+0003	 9.45402214919487E-0002	
 1.91450000000000E+0003	 9.43339498014873E-0002	
 1.91650000000000E+0003	 9.41871781110259E-0002	
 1.91850000000000E+0003	 9.41009064205645E-0002	
 1.92050000000000E+0003	 9.37876347301031E-0002	
 1.92250000000000E+0003	 9.39898630396417E-0002	
 1.92450000000000E+0003	 9.43235913491803E-0002	
 1.92650000000000E+0003	 9.42063196587189E-0002	
 1.92850000000000E+0003	 9.41865479682574E-0002	
 1.93050000000000E+0003	 9.41762762777960E-0002	
 1.93250000000000E+0003	 9.41605045873346E-0002	
 1.93450000000000E+0003	 9.41382328968732E-0002	
 1.93650000000000E+0003	 9.41124612064118E-0002	
 1.93850000000000E+0003	 9.40311895159504E-0002	
 1.94050000000000E+0003	 9.38674178254890E-0002	
 1.94250000000000E+0003	 9.39316461350276E-0002	
 1.94450000000000E+0003	 9.40133744445662E-0002	
 1.94650000000000E+0003	 9.39946027541047E-0002	
 1.94850000000000E+0003	 9.40668310636433E-0002	
 1.95050000000000E+0003	 9.40495593731819E-0002	
 1.95250000000000E+0003	 9.40452876827205E-0002	
 1.95450000000000E+0003	 9.40450159922591E-0002	
 1.95650000000000E+0003	 9.40742443017977E-0002	
 1.95850000000000E+0003	 9.40744726113363E-0002	
 1.96050000000000E+0003	 9.40882009208749E-0002	
 1.96250000000000E+0003	 9.40899292304135E-0002	
 1.96450000000000E+0003	 9.40146575399520E-0002	
 1.96650000000000E+0003	 9.40358858494906E-0002	
 1.96850000000000E+0003	 9.41576141590292E-0002	
 1.97050000000000E+0003	 9.41228424685678E-0002	
 1.97250000000000E+0003	 9.41250707781064E-0002	
 1.97450000000000E+0003	 9.41592990876450E-0002	
 1.97650000000000E+0003	 9.41775273971836E-0002	
 1.97850000000000E+0003	 9.41887557067222E-0002	
 1.98050000000000E+0003	 9.41959840162608E-0002	
 1.98250000000000E+0003	 9.42112123257993E-0002	
 1.98450000000000E+0003	 9.42139406353379E-0002	
 1.98650000000000E+0003	 9.42011689448765E-0002	
 1.98850000000000E+0003	 9.41903972544151E-0002	
 1.99050000000000E+0003	 9.41571255639537E-0002	
 1.99250000000000E+0003	 9.42493538734923E-0002	
 1.99450000000000E+0003	 9.43075821830309E-0002	
 1.99650000000000E+0003	 9.43213104925695E-0002	
 1.99850000000000E+0003	 9.44095388021081E-0002	
 2.00050000000000E+0003	 9.44602671116466E-0002	
 2.00250000000000E+0003	 9.44969954211852E-0002	
 2.00450000000000E+0003	 9.45287237307238E-0002	
 2.00650000000000E+0003	 9.45714520402624E-0002	
 2.00850000000000E+0003	 9.46271803498010E-0002	
 2.01050000000000E+0003	 9.46914086593396E-0002	
 2.01250000000000E+0003	 9.47326369688782E-0002	
 2.01450000000000E+0003	 9.47358652784168E-0002	
 2.01650000000000E+0003	 9.47920935879554E-0002	
 2.01850000000000E+0003	 9.49253218974939E-0002	
 2.02050000000000E+0003	 9.49875502070325E-0002	
 2.02250000000000E+0003	 9.50552785165711E-0002	
 2.02450000000000E+0003	 9.51405068261097E-0002	
 2.02650000000000E+0003	 9.52207351356483E-0002	
 2.02850000000000E+0003	 9.52929634451869E-0002	
 2.03050000000000E+0003	 9.53586917547255E-0002	
 2.03250000000000E+0003	 9.54199200642641E-0002	
 2.03450000000000E+0003	 9.54851483738027E-0002	
 2.03650000000000E+0003	 9.55493766833412E-0002	
 2.03850000000000E+0003	 9.55906049928798E-0002	
 2.04050000000000E+0003	 9.56383333024184E-0002	
 2.04250000000000E+0003	 9.57260616119570E-0002	
 2.04450000000000E+0003	 9.57857899214956E-0002	
 2.04650000000000E+0003	 9.58335182310342E-0002	
 2.04850000000000E+0003	 9.58842465405728E-0002	
 2.05050000000000E+0003	 9.59284748501114E-0002	
 2.05250000000000E+0003	 9.59692031596500E-0002	
 2.05450000000000E+0003	 9.60024314691885E-0002	
 2.05650000000000E+0003	 9.60356597787271E-0002	
 2.05850000000000E+0003	 9.60663880882657E-0002	
 2.06050000000000E+0003	 9.60991163978043E-0002	
 2.06250000000000E+0003	 9.61003447073429E-0002	
 2.06450000000000E+0003	 9.61245730168815E-0002	
 2.06650000000000E+0003	 9.61918013264201E-0002	
 2.06850000000000E+0003	 9.62130296359587E-0002	
 2.07050000000000E+0003	 9.62377579454973E-0002	
 2.07250000000000E+0003	 9.62694862550358E-0002	
 2.07450000000000E+0003	 9.62967145645744E-0002	
 2.07650000000000E+0003	 9.63174428741130E-0002	
 2.07850000000000E+0003	 9.63356711836516E-0002	
 2.08050000000000E+0003	 9.63588994931902E-0002	
 2.08250000000000E+0003	 9.63826278027288E-0002	
 2.08450000000000E+0003	 9.64013561122674E-0002	
 2.08650000000000E+0003	 9.64095844218060E-0002	
 2.08850000000000E+0003	 9.64138127313446E-0002	
 2.09050000000000E+0003	 9.64385410408831E-0002	
 2.09250000000000E+0003	 9.64587693504217E-0002	
 2.09450000000000E+0003	 9.64684976599603E-0002	
 2.09650000000000E+0003	 9.64847259694989E-0002	
 2.09850000000000E+0003	 9.64989542790375E-0002	
 2.10050000000000E+0003	 9.65061825885761E-0002	
 2.10250000000000E+0003	 9.65094108981147E-0002	
 2.10450000000000E+0003	 9.65091392076533E-0002	
 2.10650000000000E+0003	 9.65138675171919E-0002	
 2.10850000000000E+0003	 9.65145958267304E-0002	
 2.11050000000000E+0003	 9.65113241362690E-0002	
 2.11250000000000E+0003	 9.65000524458076E-0002	
 2.11450000000000E+0003	 9.64932807553462E-0002	
 2.11650000000000E+0003	 9.64915090648848E-0002	
 2.11850000000000E+0003	 9.64872373744234E-0002	
 2.12050000000000E+0003	 9.64769656839620E-0002	
 2.12250000000000E+0003	 9.64691939935006E-0002	
 2.12450000000000E+0003	 9.64589223030392E-0002	
 2.12650000000000E+0003	 9.64516506125777E-0002	
 2.12850000000000E+0003	 9.64363789221163E-0002	
 2.13050000000000E+0003	 9.64261072316549E-0002	
 2.13250000000000E+0003	 9.64088355411935E-0002	
 2.13450000000000E+0003	 9.63875638507321E-0002	
 2.13650000000000E+0003	 9.63662921602707E-0002	
 2.13850000000000E+0003	 9.63525204698093E-0002	
 2.14050000000000E+0003	 9.63317487793479E-0002	
 2.14250000000000E+0003	 9.63124770888865E-0002	
 2.14450000000000E+0003	 9.62852053984250E-0002	
 2.14650000000000E+0003	 9.62639337079636E-0002	
 2.14850000000000E+0003	 9.62356620175022E-0002	
 2.15050000000000E+0003	 9.62073903270408E-0002	
 2.15250000000000E+0003	 9.61691186365794E-0002	
 2.15450000000000E+0003	 9.61318469461180E-0002	
 2.15650000000000E+0003	 9.60880752556566E-0002	
 2.15850000000000E+0003	 9.60483035651952E-0002	
 2.16050000000000E+0003	 9.60035318747338E-0002	
 2.16250000000000E+0003	 9.59567601842723E-0002	
 2.16450000000000E+0003	 9.59049884938109E-0002	
 2.16650000000000E+0003	 9.58617168033495E-0002	
 2.16850000000000E+0003	 9.58224451128881E-0002	
 2.17050000000000E+0003	 9.57671734224267E-0002	
 2.17250000000000E+0003	 9.56889017319653E-0002	
 2.17450000000000E+0003	 9.56206300415039E-0002	
 2.17650000000000E+0003	 9.55588583510425E-0002	
 2.17850000000000E+0003	 9.55000866605811E-0002	
 2.18050000000000E+0003	 9.54413149701196E-0002	
 2.18250000000000E+0003	 9.53830432796582E-0002	
 2.18450000000000E+0003	 9.53207715891968E-0002	
 2.18650000000000E+0003	 9.52639998987354E-0002	
 2.18850000000000E+0003	 9.52077282082740E-0002	
 2.19050000000000E+0003	 9.51529565178126E-0002	
 2.19250000000000E+0003	 9.50951848273512E-0002	
 2.19450000000000E+0003	 9.50364131368898E-0002	
 2.19650000000000E+0003	 9.49791414464284E-0002	
 2.19850000000000E+0003	 9.49273697559669E-0002	
 2.20050000000000E+0003	 9.48705980655055E-0002	
 2.20250000000000E+0003	 9.48143263750441E-0002	
 2.20450000000000E+0003	 9.47580546845827E-0002	
 2.20650000000000E+0003	 9.47047829941213E-0002	
 2.20850000000000E+0003	 9.46490113036599E-0002	
 2.21050000000000E+0003	 9.45982396131985E-0002	
 2.21250000000000E+0003	 9.45474679227371E-0002	
 2.21450000000000E+0003	 9.44976962322757E-0002	
 2.21650000000000E+0003	 9.44449245418142E-0002	
 2.21850000000000E+0003	 9.43946528513528E-0002	
 2.22050000000000E+0003	 9.43433811608914E-0002	
 2.22250000000000E+0003	 9.42921094704300E-0002	
 2.22450000000000E+0003	 9.42408377799686E-0002	
 2.22650000000000E+0003	 9.41965660895072E-0002	
 2.22850000000000E+0003	 9.41467943990458E-0002	
 2.23050000000000E+0003	 9.40990227085844E-0002	
 2.23250000000000E+0003	 9.40557510181230E-0002	
 2.23450000000000E+0003	 9.40149793276615E-0002	
 2.23650000000000E+0003	 9.39682076372001E-0002	
 2.23850000000000E+0003	 9.39224359467387E-0002	
 2.24050000000000E+0003	 9.38751642562773E-0002	
 2.24250000000000E+0003	 9.38323925658159E-0002	
 2.24450000000000E+0003	 9.37886208753545E-0002	
 2.24650000000000E+0003	 9.37438491848931E-0002	
 2.24850000000000E+0003	 9.36970774944317E-0002	
 2.25050000000000E+0003	 9.36563058039703E-0002	
 2.25250000000000E+0003	 9.36145341135088E-0002	
 2.25450000000000E+0003	 9.35727624230474E-0002	
 2.25650000000000E+0003	 9.35319907325860E-0002	
 2.25850000000000E+0003	 9.34997190421246E-0002	
 2.26050000000000E+0003	 9.34664473516632E-0002	
 2.26250000000000E+0003	 9.34351756612018E-0002	
 2.26450000000000E+0003	 9.34084039707404E-0002	
 2.26650000000000E+0003	 9.33871322802790E-0002	
 2.26850000000000E+0003	 9.33613605898176E-0002	
 2.27050000000000E+0003	 9.33325888993561E-0002	
 2.27250000000000E+0003	 9.32983172088947E-0002	
 2.27450000000000E+0003	 9.32580455184333E-0002	
 2.27650000000000E+0003	 9.32117738279719E-0002	
 2.27850000000000E+0003	 9.31580021375105E-0002	
 2.28050000000000E+0003	 9.30947304470491E-0002	
 2.28250000000000E+0003	 9.30294587565877E-0002	
 2.28450000000000E+0003	 9.29716870661263E-0002	
 2.28650000000000E+0003	 9.28969153756649E-0002	
 2.28850000000000E+0003	 9.27876436852034E-0002	
 2.29050000000000E+0003	 9.26563719947420E-0002	
 2.29250000000000E+0003	 9.24996003042806E-0002	
 2.29450000000000E+0003	 9.23293286138192E-0002	
 2.29650000000000E+0003	 9.21915569233578E-0002	
 2.29850000000000E+0003	 9.21112852328964E-0002	
 2.30050000000000E+0003	 9.21110135424350E-0002	
 2.30250000000000E+0003	 9.22112418519736E-0002	
 2.30450000000000E+0003	 9.23014701615122E-0002	
 2.30650000000000E+0003	 9.22726984710507E-0002	
 2.30850000000000E+0003	 9.22394267805893E-0002	
 2.31050000000000E+0003	 9.23156550901279E-0002	
 2.31250000000000E+0003	 9.25053833996665E-0002	
 2.31450000000000E+0003	 9.25501117092051E-0002	
 2.31650000000000E+0003	 9.23783400187437E-0002	
 2.31850000000000E+0003	 9.22865683282823E-0002	
 2.32050000000000E+0003	 9.22007966378209E-0002	
 2.32250000000000E+0003	 9.20165249473595E-0002	
 2.32450000000000E+0003	 9.18517532568980E-0002	
 2.32650000000000E+0003	 9.18654815664366E-0002	
 2.32850000000000E+0003	 9.21637098759752E-0002	
 2.33050000000000E+0003	 9.24349381855138E-0002	
 2.33250000000000E+0003	 9.25311664950524E-0002	
 2.33450000000000E+0003	 9.26748948045910E-0002	
 2.33650000000000E+0003	 9.28416231141296E-0002	
 2.33850000000000E+0003	 9.28273514236682E-0002	
 2.34050000000000E+0003	 9.25880797332068E-0002	
 2.34250000000000E+0003	 9.23883080427453E-0002	
 2.34450000000000E+0003	 9.27960363522839E-0002	
 2.34650000000000E+0003	 9.28632646618225E-0002	
 2.34850000000000E+0003	 9.22739929713611E-0002	
 2.35050000000000E+0003	 9.26582212808997E-0002	
 2.35250000000000E+0003	 9.32934495904383E-0002	
 2.35450000000000E+0003	 9.31276778999769E-0002	
 2.35650000000000E+0003	 9.28824062095155E-0002	
 2.35850000000000E+0003	 9.29771345190541E-0002	
 2.36050000000000E+0003	 9.32558628285926E-0002	
 2.36250000000000E+0003	 9.33665911381312E-0002	
 2.36450000000000E+0003	 9.32773194476698E-0002	
 2.36650000000000E+0003	 9.31170477572084E-0002	
 2.36850000000000E+0003	 9.30092760667470E-0002	
 2.37050000000000E+0003	 9.31525043762856E-0002	
 2.37250000000000E+0003	 9.37622326858242E-0002	
 2.37450000000000E+0003	 9.45779609953628E-0002	
 2.37650000000000E+0003	 9.49121893049014E-0002	
 2.37850000000000E+0003	 9.44239176144399E-0002	
 2.38050000000000E+0003	 9.35926459239785E-0002	
 2.38250000000000E+0003	 9.31288742335171E-0002	
 2.38450000000000E+0003	 9.32326025430557E-0002	
 2.38650000000000E+0003	 9.36123308525943E-0002	
 2.38850000000000E+0003	 9.39645591621329E-0002	
 2.39050000000000E+0003	 9.41912874716715E-0002	
 2.39250000000000E+0003	 9.43235157812101E-0002	
 2.39450000000000E+0003	 9.44092440907487E-0002	
 2.39650000000000E+0003	 9.44829724002872E-0002	
 2.39850000000000E+0003	 9.45567007098258E-0002	
 2.40050000000000E+0003	 9.46339290193644E-0002	
 2.40250000000000E+0003	 9.47121573289030E-0002	
 2.40450000000000E+0003	 9.47913856384416E-0002	
 2.40650000000000E+0003	 9.48716139479802E-0002	
 2.40850000000000E+0003	 9.49583422575188E-0002	
 2.41050000000000E+0003	 9.50465705670574E-0002	
 2.41250000000000E+0003	 9.51392988765960E-0002	
 2.41450000000000E+0003	 9.52340271861345E-0002	
 2.41650000000000E+0003	 9.53332554956731E-0002	
 2.41850000000000E+0003	 9.54339838052117E-0002	
 2.42050000000000E+0003	 9.55402121147503E-0002	
 2.42250000000000E+0003	 9.56474404242889E-0002	
 2.42450000000000E+0003	 9.57616687338275E-0002	
 2.42650000000000E+0003	 9.58743970433661E-0002	
 2.42850000000000E+0003	 9.59896253529047E-0002	
 2.43050000000000E+0003	 9.61058536624433E-0002	
 2.43250000000000E+0003	 9.62250819719818E-0002	
 2.43450000000000E+0003	 9.63453102815204E-0002	
 2.43650000000000E+0003	 9.64700385910590E-0002	
 2.43850000000000E+0003	 9.65922669005976E-0002	
 2.44050000000000E+0003	 9.67179952101362E-0002	
 2.44250000000000E+0003	 9.68417235196748E-0002	
 2.44450000000000E+0003	 9.69674518292134E-0002	
 2.44650000000000E+0003	 9.70921801387520E-0002	
 2.44850000000000E+0003	 9.72169084482906E-0002	
 2.45050000000000E+0003	 9.73386367578291E-0002	
 2.45250000000000E+0003	 9.74678650673677E-0002	
 2.45450000000000E+0003	 9.75960933769063E-0002	
 2.45650000000000E+0003	 9.77298216864449E-0002	
 2.45850000000000E+0003	 9.78625499959835E-0002	
 2.46050000000000E+0003	 9.79977783055221E-0002	
 2.46250000000000E+0003	 9.81340066150607E-0002	
 2.46450000000000E+0003	 9.82752349245993E-0002	
 2.46650000000000E+0003	 9.84179632341379E-0002	
 2.46850000000000E+0003	 9.85636915436764E-0002	
 2.47050000000000E+0003	 9.87079198532150E-0002	
 2.47250000000000E+0003	 9.88546481627536E-0002	
 2.47450000000000E+0003	 9.89993764722922E-0002	
 2.47650000000000E+0003	 9.91456047818308E-0002	
 2.47850000000000E+0003	 9.92878330913694E-0002	
 2.48050000000000E+0003	 9.94315614009080E-0002	
 2.48250000000000E+0003	 9.95752897104466E-0002	
 2.48450000000000E+0003	 9.97165180199852E-0002	
 2.48650000000000E+0003	 9.98547463295237E-0002	
 2.48850000000000E+0003	 9.99904746390623E-0002	
 2.49050000000000E+0003	 1.00125702948601E-0001	
 2.49250000000000E+0003	 1.00261931258140E-0001	
 2.49450000000000E+0003	 1.00391159567678E-0001	
 2.49650000000000E+0003	 1.00520387877217E-0001	
 2.49850000000000E+0003	 1.00650616186755E-0001	
 2.50050000000000E+0003	 1.00779344496294E-0001	
 2.50250000000000E+0003	 1.00909072805832E-0001	
 2.50450000000000E+0003	 1.01042801115371E-0001	
 2.50650000000000E+0003	 1.01172529424910E-0001	
 2.50850000000000E+0003	 1.01300257734448E-0001	
 2.51050000000000E+0003	 1.01424986043987E-0001	
 2.51250000000000E+0003	 1.01547214353525E-0001	
 2.51450000000000E+0003	 1.01670942663064E-0001	
 2.51650000000000E+0003	 1.01797170972603E-0001	
 2.51850000000000E+0003	 1.01917399282141E-0001	
 2.52050000000000E+0003	 1.02037127591680E-0001	
 2.52250000000000E+0003	 1.02154355901218E-0001	
 2.52450000000000E+0003	 1.02277084210757E-0001	
 2.52650000000000E+0003	 1.02398812520296E-0001	
 2.52850000000000E+0003	 1.02522540829834E-0001	
 2.53050000000000E+0003	 1.02645269139373E-0001	
 2.53250000000000E+0003	 1.02770997448911E-0001	
 2.53450000000000E+0003	 1.02893725758450E-0001	
 2.53650000000000E+0003	 1.03016954067988E-0001	
 2.53850000000000E+0003	 1.03138682377527E-0001	
 2.54050000000000E+0003	 1.03266910687066E-0001	
 2.54250000000000E+0003	 1.03392138996604E-0001	
 2.54450000000000E+0003	 1.03518367306143E-0001	
 2.54650000000000E+0003	 1.03640095615681E-0001	
 2.54850000000000E+0003	 1.03768323925220E-0001	
 2.55050000000000E+0003	 1.03894052234759E-0001	
 2.55250000000000E+0003	 1.04024280544297E-0001	
 2.55450000000000E+0003	 1.04153508853836E-0001	
 2.55650000000000E+0003	 1.04287737163374E-0001	
 2.55850000000000E+0003	 1.04417965472913E-0001	
 2.56050000000000E+0003	 1.04552193782452E-0001	
 2.56250000000000E+0003	 1.04683422091990E-0001	
 2.56450000000000E+0003	 1.04817650401529E-0001	
 2.56650000000000E+0003	 1.04949378711067E-0001	
 2.56850000000000E+0003	 1.05085107020606E-0001	
 2.57050000000000E+0003	 1.05219335330144E-0001	
 2.57250000000000E+0003	 1.05364063639683E-0001	
 2.57450000000000E+0003	 1.05511291949222E-0001	
 2.57650000000000E+0003	 1.05665520258760E-0001	
 2.57850000000000E+0003	 1.05823748568299E-0001	
 2.58050000000000E+0003	 1.05990476877837E-0001	
 2.58250000000000E+0003	 1.06158205187376E-0001	
 2.58450000000000E+0003	 1.06332933496915E-0001	
 2.58650000000000E+0003	 1.06511161806453E-0001	
 2.58850000000000E+0003	 1.06694390115992E-0001	
 2.59050000000000E+0003	 1.06878118425530E-0001	
 2.59250000000000E+0003	 1.07068846735069E-0001	
 2.59450000000000E+0003	 1.07262075044608E-0001	
 2.59650000000000E+0003	 1.07462303354146E-0001	
 2.59850000000000E+0003	 1.07662531663685E-0001	
 2.60050000000000E+0003	 1.07869759973223E-0001	
 2.60250000000000E+0003	 1.08079988282762E-0001	
 2.60450000000000E+0003	 1.08291216592300E-0001	
 2.60650000000000E+0003	 1.08501944901839E-0001	
 2.60850000000000E+0003	 1.08718673211378E-0001	
 2.61050000000000E+0003	 1.08940401520916E-0001	
 2.61250000000000E+0003	 1.09164129830455E-0001	
 2.61450000000000E+0003	 1.09386858139993E-0001	
 2.61650000000000E+0003	 1.09611586449532E-0001	
 2.61850000000000E+0003	 1.09836314759071E-0001	
 2.62050000000000E+0003	 1.10065543068609E-0001	
 2.62250000000000E+0003	 1.10300271378148E-0001	
 2.62450000000000E+0003	 1.10537999687686E-0001	
 2.62650000000000E+0003	 1.10776227997225E-0001	
 2.62850000000000E+0003	 1.11013956306764E-0001	
 2.63050000000000E+0003	 1.11253184616302E-0001	
 2.63250000000000E+0003	 1.11496412925841E-0001	
 2.63450000000000E+0003	 1.11741641235379E-0001	
 2.63650000000000E+0003	 1.11987369544918E-0001	
 2.63850000000000E+0003	 1.12234597854456E-0001	
 2.64050000000000E+0003	 1.12479326163995E-0001	
 2.64250000000000E+0003	 1.12726554473534E-0001	
 2.64450000000000E+0003	 1.12982282783072E-0001	
 2.64650000000000E+0003	 1.13236011092611E-0001	
 2.64850000000000E+0003	 1.13486239402149E-0001	
 2.65050000000000E+0003	 1.13736467711688E-0001	
 2.65250000000000E+0003	 1.13988196021227E-0001	
 2.65450000000000E+0003	 1.14238424330765E-0001	
 2.65650000000000E+0003	 1.14489652640304E-0001	
 2.65850000000000E+0003	 1.14742380949842E-0001	
 2.66050000000000E+0003	 1.15000109259381E-0001	
 2.66250000000000E+0003	 1.15251337568920E-0001	
 2.66450000000000E+0003	 1.15503565878458E-0001	
 2.66650000000000E+0003	 1.15754294187997E-0001	
 2.66850000000000E+0003	 1.16009522497535E-0001	
 2.67050000000000E+0003	 1.16262750807074E-0001	
 2.67250000000000E+0003	 1.16519979116613E-0001	
 2.67450000000000E+0003	 1.16772707426151E-0001	
 2.67650000000000E+0003	 1.17024435735690E-0001	
 2.67850000000000E+0003	 1.17275664045228E-0001	
 2.68050000000000E+0003	 1.17527892354767E-0001	
 2.68250000000000E+0003	 1.17770620664305E-0001	
 2.68450000000000E+0003	 1.18012348973844E-0001	
 2.68650000000000E+0003	 1.18253077283383E-0001	
 2.68850000000000E+0003	 1.18497305592921E-0001	
 2.69050000000000E+0003	 1.18738533902460E-0001	
 2.69250000000000E+0003	 1.18986262211998E-0001	
 2.69450000000000E+0003	 1.19231490521537E-0001	
 2.69650000000000E+0003	 1.19479218831076E-0001	
 2.69850000000000E+0003	 1.19728447140614E-0001	
 2.70050000000000E+0003	 1.19983175450153E-0001	
 2.70250000000000E+0003	 1.20239903759691E-0001	
 2.70450000000000E+0003	 1.20507132069230E-0001	
 2.70650000000000E+0003	 1.20780360378769E-0001	
 2.70850000000000E+0003	 1.21063588688307E-0001	
 2.71050000000000E+0003	 1.21354816997846E-0001	
 2.71250000000000E+0003	 1.21650045307384E-0001	
 2.71450000000000E+0003	 1.21948773616923E-0001	
 2.71650000000000E+0003	 1.22254501926461E-0001	
 2.71850000000000E+0003	 1.22562230236000E-0001	
 2.72050000000000E+0003	 1.22882458545539E-0001	
 2.72250000000000E+0003	 1.23208686855077E-0001	
 2.72450000000000E+0003	 1.23531415164616E-0001	
 2.72650000000000E+0003	 1.23855143474154E-0001	
 2.72850000000000E+0003	 1.24162871783693E-0001	
 2.73050000000000E+0003	 1.24460600093232E-0001	
 2.73250000000000E+0003	 1.24769328402770E-0001	
 2.73450000000000E+0003	 1.25075056712309E-0001	
 2.73650000000000E+0003	 1.25378785021847E-0001	
 2.73850000000000E+0003	 1.25676513331386E-0001	
 2.74050000000000E+0003	 1.25964241640925E-0001	
 2.74250000000000E+0003	 1.26247469950463E-0001	
 2.74450000000000E+0003	 1.26528698260002E-0001	
 2.74650000000000E+0003	 1.26819926569540E-0001	
 2.74850000000000E+0003	 1.27115154879079E-0001	
 2.75050000000000E+0003	 1.27402383188617E-0001	
 2.75250000000000E+0003	 1.27685111498156E-0001	
 2.75450000000000E+0003	 1.27978839807695E-0001	
 2.75650000000000E+0003	 1.28284068117233E-0001	
 2.75850000000000E+0003	 1.28595296426772E-0001	
 2.76050000000000E+0003	 1.28913024736310E-0001	
 2.76250000000000E+0003	 1.29240253045849E-0001	
 2.76450000000000E+0003	 1.29573981355388E-0001	
 2.76650000000000E+0003	 1.29913209664926E-0001	
 2.76850000000000E+0003	 1.30254437974465E-0001	
 2.77050000000000E+0003	 1.30601166284003E-0001	
 2.77250000000000E+0003	 1.30954894593542E-0001	
 2.77450000000000E+0003	 1.31331622903081E-0001	
 2.77650000000000E+0003	 1.31704851212619E-0001	
 2.77850000000000E+0003	 1.32066079522158E-0001	
 2.78050000000000E+0003	 1.32444307831696E-0001	
 2.78250000000000E+0003	 1.32842036141235E-0001	
 2.78450000000000E+0003	 1.33249764450773E-0001	
 2.78650000000000E+0003	 1.33676492760312E-0001	
 2.78850000000000E+0003	 1.34129721069851E-0001	
 2.79050000000000E+0003	 1.34583449379389E-0001	
 2.79250000000000E+0003	 1.35021177688928E-0001	
 2.79450000000000E+0003	 1.35470905998466E-0001	
 2.79650000000000E+0003	 1.35948134308005E-0001	
 2.79850000000000E+0003	 1.36443862617544E-0001	
 2.80050000000000E+0003	 1.36925590927082E-0001	
 2.80250000000000E+0003	 1.37407819236621E-0001	
 2.80450000000000E+0003	 1.37913047546159E-0001	
 2.80650000000000E+0003	 1.38429275855698E-0001	
 2.80850000000000E+0003	 1.38962004165237E-0001	
 2.81050000000000E+0003	 1.39512732474775E-0001	
 2.81250000000000E+0003	 1.40056960784314E-0001	
 2.81450000000000E+0003	 1.40605689093852E-0001	
 2.81650000000000E+0003	 1.41177917403391E-0001	
 2.81850000000000E+0003	 1.41767145712929E-0001	
 2.82050000000000E+0003	 1.42377374022468E-0001	
 2.82250000000000E+0003	 1.43008602332007E-0001	
 2.82450000000000E+0003	 1.43662830641545E-0001	
 2.82650000000000E+0003	 1.44339558951084E-0001	
 2.82850000000000E+0003	 1.45049287260622E-0001	
 2.83050000000000E+0003	 1.45799515570161E-0001	
 2.83250000000000E+0003	 1.46604743879700E-0001	
 2.83450000000000E+0003	 1.47478972189238E-0001	
 2.83650000000000E+0003	 1.48451200498777E-0001	
 2.83850000000000E+0003	 1.49564428808315E-0001	
 2.84050000000000E+0003	 1.50816657117854E-0001	
 2.84250000000000E+0003	 1.52284385427393E-0001	
 2.84450000000000E+0003	 1.54116113736931E-0001	
 2.84650000000000E+0003	 1.56335342046470E-0001	
 2.84850000000000E+0003	 1.58820070356008E-0001	
 2.85050000000000E+0003	 1.61277298665547E-0001	
 2.85250000000000E+0003	 1.63367026975086E-0001	
 2.85450000000000E+0003	 1.64824255284624E-0001	
 2.85650000000000E+0003	 1.65668483594163E-0001	
 2.85850000000000E+0003	 1.66180211903701E-0001	
 2.86050000000000E+0003	 1.66658440213240E-0001	
 2.86250000000000E+0003	 1.67280168522778E-0001	
 2.86450000000000E+0003	 1.68179896832317E-0001	
 2.86650000000000E+0003	 1.69372125141856E-0001	
 2.86850000000000E+0003	 1.70759853451394E-0001	
 2.87050000000000E+0003	 1.72212081760933E-0001	
 2.87250000000000E+0003	 1.73581810070471E-0001	
 2.87450000000000E+0003	 1.74622038380010E-0001	
 2.87650000000000E+0003	 1.75243766689549E-0001	
 2.87850000000000E+0003	 1.75630494999087E-0001	
 2.88050000000000E+0003	 1.75929223308626E-0001	
 2.88250000000000E+0003	 1.76213951618164E-0001	
 2.88450000000000E+0003	 1.76562679927703E-0001	
 2.88650000000000E+0003	 1.77018908237242E-0001	
 2.88850000000000E+0003	 1.77590636546780E-0001	
 2.89050000000000E+0003	 1.78268364856319E-0001	
 2.89250000000000E+0003	 1.79041593165857E-0001	
 2.89450000000000E+0003	 1.79917321475396E-0001	
 2.89650000000000E+0003	 1.80865549784934E-0001	
 2.89850000000000E+0003	 1.81849278094473E-0001	
 2.90050000000000E+0003	 1.82913006404012E-0001	
 2.90250000000000E+0003	 1.84100234713550E-0001	
 2.90450000000000E+0003	 1.85435463023089E-0001	
 2.90650000000000E+0003	 1.86947191332627E-0001	
 2.90850000000000E+0003	 1.88685919642166E-0001	
 2.91050000000000E+0003	 1.90701147951705E-0001	
 2.91250000000000E+0003	 1.93023376261243E-0001	
 2.91450000000000E+0003	 1.95560104570782E-0001	
 2.91650000000000E+0003	 1.98190832880320E-0001	
 2.91850000000000E+0003	 2.00833061189859E-0001	
 2.92050000000000E+0003	 2.03308289499398E-0001	
 2.92250000000000E+0003	 2.05445517808936E-0001	
 2.92450000000000E+0003	 2.07126746118475E-0001	
 2.92650000000000E+0003	 2.08319974428013E-0001	
 2.92850000000000E+0003	 2.09098702737552E-0001	
 2.93050000000000E+0003	 2.09462431047090E-0001	
 2.93250000000000E+0003	 2.09380659356629E-0001	
 2.93450000000000E+0003	 2.08932387666168E-0001	
 2.93650000000000E+0003	 2.08121615975706E-0001	
 2.93850000000000E+0003	 2.06920344285245E-0001	
 2.94050000000000E+0003	 2.05414572594783E-0001	
 2.94250000000000E+0003	 2.03787300904322E-0001	
 2.94450000000000E+0003	 2.02171029213861E-0001	
 2.94650000000000E+0003	 2.00657257523399E-0001	
 2.94850000000000E+0003	 1.99388985832938E-0001	
 2.95050000000000E+0003	 1.98539714142476E-0001	
 2.95250000000000E+0003	 1.98166942452015E-0001	
 2.95450000000000E+0003	 1.98060170761554E-0001	
 2.95650000000000E+0003	 1.98053899071092E-0001	
 2.95850000000000E+0003	 1.98016127380631E-0001	
 2.96050000000000E+0003	 1.97783855690169E-0001	
 2.96250000000000E+0003	 1.97247083999708E-0001	
 2.96450000000000E+0003	 1.96357312309246E-0001	
 2.96650000000000E+0003	 1.95148540618785E-0001	
 2.96850000000000E+0003	 1.93700268928324E-0001	
 2.97050000000000E+0003	 1.92110997237862E-0001	
 2.97250000000000E+0003	 1.90507225547401E-0001	
 2.97450000000000E+0003	 1.88945953856939E-0001	
 2.97650000000000E+0003	 1.87414682166478E-0001	
 2.97850000000000E+0003	 1.85963910476017E-0001	
 2.98050000000000E+0003	 1.84599138785555E-0001	
 2.98250000000000E+0003	 1.83262867095094E-0001	
 2.98450000000000E+0003	 1.81995595404632E-0001	
 2.98650000000000E+0003	 1.80860823714171E-0001	
 2.98850000000000E+0003	 1.79869052023710E-0001	
 2.99050000000000E+0003	 1.79033780333248E-0001	
 2.99250000000000E+0003	 1.78345008642787E-0001	
 2.99450000000000E+0003	 1.77737236952325E-0001	
 2.99650000000000E+0003	 1.77289465261864E-0001	
 2.99850000000000E+0003	 1.77031193571402E-0001	
 3.00050000000000E+0003	 1.76898921880941E-0001	
 3.00250000000000E+0003	 1.76926650190480E-0001	
 3.00450000000000E+0003	 1.77105378500018E-0001	
 3.00650000000000E+0003	 1.77397606809557E-0001	
 3.00850000000000E+0003	 1.77830835119095E-0001	
 3.01050000000000E+0003	 1.78434563428634E-0001	
 3.01250000000000E+0003	 1.79133291738173E-0001	
 3.01450000000000E+0003	 1.79841020047711E-0001	
 3.01650000000000E+0003	 1.80562748357250E-0001	
 3.01850000000000E+0003	 1.81353976666788E-0001	
 3.02050000000000E+0003	 1.82227204976327E-0001	
 3.02250000000000E+0003	 1.83188933285866E-0001	
 3.02450000000000E+0003	 1.84248161595404E-0001	
 3.02650000000000E+0003	 1.85321389904943E-0001	
 3.02850000000000E+0003	 1.86392618214481E-0001	
 3.03050000000000E+0003	 1.87498346524020E-0001	
 3.03250000000000E+0003	 1.88643074833559E-0001	
 3.03450000000000E+0003	 1.89812803143097E-0001	
 3.03650000000000E+0003	 1.90936031452636E-0001	
 3.03850000000000E+0003	 1.92074259762174E-0001	
 3.04050000000000E+0003	 1.93325488071713E-0001	
 3.04250000000000E+0003	 1.94615716381251E-0001	
 3.04450000000000E+0003	 1.95851944690790E-0001	
 3.04650000000000E+0003	 1.97060173000329E-0001	
 3.04850000000000E+0003	 1.98306401309867E-0001	
 3.05050000000000E+0003	 1.99632629619406E-0001	
 3.05250000000000E+0003	 2.00959857928944E-0001	
 3.05450000000000E+0003	 2.02264086238483E-0001	
 3.05650000000000E+0003	 2.03573814548022E-0001	
 3.05850000000000E+0003	 2.04845542857560E-0001	
 3.06050000000000E+0003	 2.06067771167099E-0001	
 3.06250000000000E+0003	 2.07260499476637E-0001	
 3.06450000000000E+0003	 2.08422727786176E-0001	
 3.06650000000000E+0003	 2.09572956095715E-0001	
 3.06850000000000E+0003	 2.10661184405253E-0001	
 3.07050000000000E+0003	 2.11653412714792E-0001	
 3.07250000000000E+0003	 2.12633641024330E-0001	
 3.07450000000000E+0003	 2.13630369333869E-0001	
 3.07650000000000E+0003	 2.14663097643407E-0001	
 3.07850000000000E+0003	 2.15703825952946E-0001	
 3.08050000000000E+0003	 2.16679554262485E-0001	
 3.08250000000000E+0003	 2.17611282572023E-0001	
 3.08450000000000E+0003	 2.18554010881562E-0001	
 3.08650000000000E+0003	 2.19457239191100E-0001	
 3.08850000000000E+0003	 2.20341967500639E-0001	
 3.09050000000000E+0003	 2.21242695810178E-0001	
 3.09250000000000E+0003	 2.22099924119716E-0001	
 3.09450000000000E+0003	 2.22932652429255E-0001	
 3.09650000000000E+0003	 2.23799880738793E-0001	
 3.09850000000000E+0003	 2.24703609048332E-0001	
 3.10050000000000E+0003	 2.25625837357871E-0001	
 3.10250000000000E+0003	 2.26538065667409E-0001	
 3.10450000000000E+0003	 2.27467793976948E-0001	
 3.10650000000000E+0003	 2.28456022286486E-0001	
 3.10850000000000E+0003	 2.29508250596025E-0001	
 3.11050000000000E+0003	 2.30538978905563E-0001	
 3.11250000000000E+0003	 2.31576707215102E-0001	
 3.11450000000000E+0003	 2.32739935524641E-0001	
 3.11650000000000E+0003	 2.33983663834179E-0001	
 3.11850000000000E+0003	 2.35219892143718E-0001	
 3.12050000000000E+0003	 2.36442120453256E-0001	
 3.12250000000000E+0003	 2.37626348762795E-0001	
 3.12450000000000E+0003	 2.38851077072334E-0001	
 3.12650000000000E+0003	 2.40187305381872E-0001	
 3.12850000000000E+0003	 2.41615533691411E-0001	
 3.13050000000000E+0003	 2.43072762000949E-0001	
 3.13250000000000E+0003	 2.44517490310488E-0001	
 3.13450000000000E+0003	 2.46004718620027E-0001	
 3.13650000000000E+0003	 2.47582446929565E-0001	
 3.13850000000000E+0003	 2.49241175239104E-0001	
 3.14050000000000E+0003	 2.50867903548642E-0001	
 3.14250000000000E+0003	 2.52437131858181E-0001	
 3.14450000000000E+0003	 2.54072360167719E-0001	
 3.14650000000000E+0003	 2.55791088477258E-0001	
 3.14850000000000E+0003	 2.57575816786797E-0001	
 3.15050000000000E+0003	 2.59479045096335E-0001	
 3.15250000000000E+0003	 2.61421773405874E-0001	
 3.15450000000000E+0003	 2.63231001715412E-0001	
 3.15650000000000E+0003	 2.65015230024951E-0001	
 3.15850000000000E+0003	 2.66904458334490E-0001	
 3.16050000000000E+0003	 2.68857686644028E-0001	
 3.16250000000000E+0003	 2.70837914953567E-0001	
 3.16450000000000E+0003	 2.72847643263105E-0001	
 3.16650000000000E+0003	 2.74876371572644E-0001	
 3.16850000000000E+0003	 2.76918099882183E-0001	
 3.17050000000000E+0003	 2.78973828191721E-0001	
 3.17250000000000E+0003	 2.81038556501260E-0001	
 3.17450000000000E+0003	 2.83101784810798E-0001	
 3.17650000000000E+0003	 2.85164013120337E-0001	
 3.17850000000000E+0003	 2.87236741429875E-0001	
 3.18050000000000E+0003	 2.89311469739414E-0001	
 3.18250000000000E+0003	 2.91370698048953E-0001	
 3.18450000000000E+0003	 2.93420926358491E-0001	
 3.18650000000000E+0003	 2.95470154668030E-0001	
 3.18850000000000E+0003	 2.97508882977568E-0001	
 3.19050000000000E+0003	 2.99515611287107E-0001	
 3.19250000000000E+0003	 3.01495339596646E-0001	
 3.19450000000000E+0003	 3.03449067906184E-0001	
 3.19650000000000E+0003	 3.05382796215723E-0001	
 3.19850000000000E+0003	 3.07312524525261E-0001	
 3.20050000000000E+0003	 3.09235752834800E-0001	
 3.20250000000000E+0003	 3.11137981144339E-0001	
 3.20450000000000E+0003	 3.13014209453877E-0001	
 3.20650000000000E+0003	 3.14871437763416E-0001	
 3.20850000000000E+0003	 3.16710666072954E-0001	
 3.21050000000000E+0003	 3.18543394382493E-0001	
 3.21250000000000E+0003	 3.20377622692031E-0001	
 3.21450000000000E+0003	 3.22211351001570E-0001	
 3.21650000000000E+0003	 3.24045079311109E-0001	
 3.21850000000000E+0003	 3.25879807620647E-0001	
 3.22050000000000E+0003	 3.27707535930186E-0001	
 3.22250000000000E+0003	 3.29535764239724E-0001	
 3.22450000000000E+0003	 3.31382992549263E-0001	
 3.22650000000000E+0003	 3.33238220858802E-0001	
 3.22850000000000E+0003	 3.35116949168340E-0001	
 3.23050000000000E+0003	 3.37073677477879E-0001	
 3.23250000000000E+0003	 3.39124905787417E-0001	
 3.23450000000000E+0003	 3.41089134096956E-0001	
 3.23650000000000E+0003	 3.42932362406495E-0001	
 3.23850000000000E+0003	 3.44848090716033E-0001	
 3.24050000000000E+0003	 3.46862819025572E-0001	
 3.24250000000000E+0003	 3.48922547335110E-0001	
 3.24450000000000E+0003	 3.51057275644649E-0001	
 3.24650000000000E+0003	 3.53261503954188E-0001	
 3.24850000000000E+0003	 3.55413732263726E-0001	
 3.25050000000000E+0003	 3.57517960573265E-0001	
 3.25250000000000E+0003	 3.59698188882803E-0001	
 3.25450000000000E+0003	 3.61958417192342E-0001	
 3.25650000000000E+0003	 3.64219645501880E-0001	
 3.25850000000000E+0003	 3.66445873811419E-0001	
 3.26050000000000E+0003	 3.68678602120958E-0001	
 3.26250000000000E+0003	 3.70923330430496E-0001	
 3.26450000000000E+0003	 3.73162558740035E-0001	
 3.26650000000000E+0003	 3.75376787049573E-0001	
 3.26850000000000E+0003	 3.77598015359112E-0001	
 3.27050000000000E+0003	 3.79804243668651E-0001	
 3.27250000000000E+0003	 3.81849471978189E-0001	
 3.27450000000000E+0003	 3.83749200287728E-0001	
 3.27650000000000E+0003	 3.85609928597266E-0001	
 3.27850000000000E+0003	 3.87413156906805E-0001	
 3.28050000000000E+0003	 3.89155885216344E-0001	
 3.28250000000000E+0003	 3.90821113525882E-0001	
 3.28450000000000E+0003	 3.92402841835421E-0001	
 3.28650000000000E+0003	 3.93891570144959E-0001	
 3.28850000000000E+0003	 3.95308298454498E-0001	
 3.29050000000000E+0003	 3.96691526764036E-0001	
 3.29250000000000E+0003	 3.98000255073575E-0001	
 3.29450000000000E+0003	 3.99167483383114E-0001	
 3.29650000000000E+0003	 4.00235211692652E-0001	
 3.29850000000000E+0003	 4.01213440002191E-0001	
 3.30050000000000E+0003	 4.02141168311729E-0001	
 3.30250000000000E+0003	 4.03085896621268E-0001	
 3.30450000000000E+0003	 4.04074124930807E-0001	
 3.30650000000000E+0003	 4.04964353240345E-0001	
 3.30850000000000E+0003	 4.05677081549884E-0001	
 3.31050000000000E+0003	 4.06300809859422E-0001	
 3.31250000000000E+0003	 4.06938538168961E-0001	
 3.31450000000000E+0003	 4.07610266478500E-0001	
 3.31650000000000E+0003	 4.08292494788038E-0001	
 3.31850000000000E+0003	 4.08972723097577E-0001	
 3.32050000000000E+0003	 4.09658951407115E-0001	
 3.32250000000000E+0003	 4.10360679716654E-0001	
 3.32450000000000E+0003	 4.11106908026192E-0001	
 3.32650000000000E+0003	 4.11839636335731E-0001	
 3.32850000000000E+0003	 4.12525364645270E-0001	
 3.33050000000000E+0003	 4.13228592954808E-0001	
 3.33250000000000E+0003	 4.13967821264347E-0001	
 3.33450000000000E+0003	 4.14744549573885E-0001	
 3.33650000000000E+0003	 4.15601277883424E-0001	
 3.33850000000000E+0003	 4.16465006192963E-0001	
 3.34050000000000E+0003	 4.17242734502501E-0001	
 3.34250000000000E+0003	 4.18007962812040E-0001	
 3.34450000000000E+0003	 4.18784691121578E-0001	
 3.34650000000000E+0003	 4.19555419431117E-0001	
 3.34850000000000E+0003	 4.20425647740656E-0001	
 3.35050000000000E+0003	 4.21336876050194E-0001	
 3.35250000000000E+0003	 4.22098604359733E-0001	
 3.35450000000000E+0003	 4.22785832669271E-0001	
 3.35650000000000E+0003	 4.23556560978810E-0001	
 3.35850000000000E+0003	 4.24387789288348E-0001	
 3.36050000000000E+0003	 4.25224517597887E-0001	
 3.36250000000000E+0003	 4.26014745907426E-0001	
 3.36450000000000E+0003	 4.26848974216964E-0001	
 3.36650000000000E+0003	 4.27803202526503E-0001	
 3.36850000000000E+0003	 4.28744430836041E-0001	
 3.37050000000000E+0003	 4.29447659145580E-0001	
 3.37250000000000E+0003	 4.29979887455119E-0001	
 3.37450000000000E+0003	 4.30600615764657E-0001	
 3.37650000000000E+0003	 4.31331344074196E-0001	
 3.37850000000000E+0003	 4.32049572383734E-0001	
 3.38050000000000E+0003	 4.32727300693273E-0001	
 3.38250000000000E+0003	 4.33354529002812E-0001	
 3.38450000000000E+0003	 4.33974757312350E-0001	
 3.38650000000000E+0003	 4.34618985621889E-0001	
 3.38850000000000E+0003	 4.35359213931427E-0001	
 3.39050000000000E+0003	 4.36211942240966E-0001	
 3.39250000000000E+0003	 4.36875170550504E-0001	
 3.39450000000000E+0003	 4.37239898860043E-0001	
 3.39650000000000E+0003	 4.37687127169582E-0001	
 3.39850000000000E+0003	 4.38437855479120E-0001	
 3.40050000000000E+0003	 4.39184083788659E-0001	
 3.40250000000000E+0003	 4.39469312098197E-0001	
 3.40450000000000E+0003	 4.39534540407736E-0001	
 3.40650000000000E+0003	 4.39806268717275E-0001	
 3.40850000000000E+0003	 4.40233997026813E-0001	
 3.41050000000000E+0003	 4.40595225336352E-0001	
 3.41250000000000E+0003	 4.40864953645890E-0001	
 3.41450000000000E+0003	 4.40997681955429E-0001	
 3.41650000000000E+0003	 4.41050910264968E-0001	
 3.41850000000000E+0003	 4.41148638574506E-0001	
 3.42050000000000E+0003	 4.41257866884045E-0001	
 3.42250000000000E+0003	 4.41276595193583E-0001	
 3.42450000000000E+0003	 4.41265323503122E-0001	
 3.42650000000000E+0003	 4.41291051812661E-0001	
 3.42850000000000E+0003	 4.41338280122199E-0001	
 3.43050000000000E+0003	 4.41261508431738E-0001	
 3.43250000000000E+0003	 4.41112236741276E-0001	
 3.43450000000000E+0003	 4.41025965050815E-0001	
 3.43650000000000E+0003	 4.40766193360353E-0001	
 3.43850000000000E+0003	 4.40163421669892E-0001	
 3.44050000000000E+0003	 4.39479649979431E-0001	
 3.44250000000000E+0003	 4.38895878288969E-0001	
 3.44450000000000E+0003	 4.38371606598508E-0001	
 3.44650000000000E+0003	 4.37845334908046E-0001	
 3.44850000000000E+0003	 4.37244063217585E-0001	
 3.45050000000000E+0003	 4.36565291527124E-0001	
 3.45250000000000E+0003	 4.35864019836662E-0001	
 3.45450000000000E+0003	 4.35116748146201E-0001	
 3.45650000000000E+0003	 4.34356476455739E-0001	
 3.45850000000000E+0003	 4.33623204765278E-0001	
 3.46050000000000E+0003	 4.32806433074817E-0001	
 3.46250000000000E+0003	 4.31831161384355E-0001	
 3.46450000000000E+0003	 4.30977889693894E-0001	
 3.46650000000000E+0003	 4.30329618003432E-0001	
 3.46850000000000E+0003	 4.29480346312971E-0001	
 3.47050000000000E+0003	 4.28124074622509E-0001	
 3.47250000000000E+0003	 4.26604802932048E-0001	
 3.47450000000000E+0003	 4.25284031241587E-0001	
 3.47650000000000E+0003	 4.24141259551125E-0001	
 3.47850000000000E+0003	 4.23075487860664E-0001	
 3.48050000000000E+0003	 4.21819716170202E-0001	
 3.48250000000000E+0003	 4.20318944479741E-0001	
 3.48450000000000E+0003	 4.18932172789280E-0001	
 3.48650000000000E+0003	 4.17640901098818E-0001	
 3.48850000000000E+0003	 4.16219629408357E-0001	
 3.49050000000000E+0003	 4.14734357717895E-0001	
 3.49250000000000E+0003	 4.13310586027434E-0001	
 3.49450000000000E+0003	 4.11917814336973E-0001	
 3.49650000000000E+0003	 4.10499042646511E-0001	
 3.49850000000000E+0003	 4.08976770956050E-0001	
 3.50050000000000E+0003	 4.07467999265588E-0001	
 3.50250000000000E+0003	 4.05957727575127E-0001	
 3.50450000000000E+0003	 4.04195955884665E-0001	
 3.50650000000000E+0003	 4.02360684194204E-0001	
 3.50850000000000E+0003	 4.00662912503743E-0001	
 3.51050000000000E+0003	 3.99062640813281E-0001	
 3.51250000000000E+0003	 3.97549369122820E-0001	
 3.51450000000000E+0003	 3.95913597432358E-0001	
 3.51650000000000E+0003	 3.94087825741897E-0001	
 3.51850000000000E+0003	 3.92251054051436E-0001	
 3.52050000000000E+0003	 3.90518282360974E-0001	
 3.52250000000000E+0003	 3.88876510670513E-0001	
 3.52450000000000E+0003	 3.87053238980051E-0001	
 3.52650000000000E+0003	 3.85011467289590E-0001	
 3.52850000000000E+0003	 3.83043195599129E-0001	
 3.53050000000000E+0003	 3.81171423908667E-0001	
 3.53250000000000E+0003	 3.79327152218206E-0001	
 3.53450000000000E+0003	 3.77550880527744E-0001	
 3.53650000000000E+0003	 3.75692608837283E-0001	
 3.53850000000000E+0003	 3.73588837146821E-0001	
 3.54050000000000E+0003	 3.71525565456360E-0001	
 3.54250000000000E+0003	 3.69616293765899E-0001	
 3.54450000000000E+0003	 3.67612522075437E-0001	
 3.54650000000000E+0003	 3.65283750384976E-0001	
 3.54850000000000E+0003	 3.62839478694514E-0001	
 3.55050000000000E+0003	 3.60578207004053E-0001	
 3.55250000000000E+0003	 3.58319935313592E-0001	
 3.55450000000000E+0003	 3.55975163623130E-0001	
 3.55650000000000E+0003	 3.53669891932669E-0001	
 3.55850000000000E+0003	 3.51381620242207E-0001	
 3.56050000000000E+0003	 3.49039848551746E-0001	
 3.56250000000000E+0003	 3.46524576861285E-0001	
 3.56450000000000E+0003	 3.43868805170823E-0001	
 3.56650000000000E+0003	 3.41231033480362E-0001	
 3.56850000000000E+0003	 3.38763761789900E-0001	
 3.57050000000000E+0003	 3.36395490099439E-0001	
 3.57250000000000E+0003	 3.33898718408977E-0001	
 3.57450000000000E+0003	 3.31290446718516E-0001	
 3.57650000000000E+0003	 3.28667675028055E-0001	
 3.57850000000000E+0003	 3.26054903337593E-0001	
 3.58050000000000E+0003	 3.23471631647132E-0001	
 3.58250000000000E+0003	 3.20889359956670E-0001	
 3.58450000000000E+0003	 3.18276088266209E-0001	
 3.58650000000000E+0003	 3.15423816575748E-0001	
 3.58850000000000E+0003	 3.12304044885286E-0001	
 3.59050000000000E+0003	 3.09405273194825E-0001	
 3.59250000000000E+0003	 3.06707501504363E-0001	
 3.59450000000000E+0003	 3.03898229813902E-0001	
 3.59650000000000E+0003	 3.01077958123441E-0001	
 3.59850000000000E+0003	 2.98345686432979E-0001	
 3.60050000000000E+0003	 2.95555914742518E-0001	
 3.60250000000000E+0003	 2.92720143052056E-0001	
 3.60450000000000E+0003	 2.89863871361595E-0001	
 3.60650000000000E+0003	 2.86893599671134E-0001	
 3.60850000000000E+0003	 2.83855827980672E-0001	
 3.61050000000000E+0003	 2.80928056290211E-0001	
 3.61250000000000E+0003	 2.78108784599749E-0001	
 3.61450000000000E+0003	 2.75293512909288E-0001	
 3.61650000000000E+0003	 2.72627741218826E-0001	
 3.61850000000000E+0003	 2.70055469528365E-0001	
 3.62050000000000E+0003	 2.67209197837904E-0001	
 3.62250000000000E+0003	 2.64178926147442E-0001	
 3.62450000000000E+0003	 2.61226654456981E-0001	
 3.62650000000000E+0003	 2.58399382766519E-0001	
 3.62850000000000E+0003	 2.55495111076058E-0001	
 3.63050000000000E+0003	 2.52466339385597E-0001	
 3.63250000000000E+0003	 2.49758567695135E-0001	
 3.63450000000000E+0003	 2.47178296004674E-0001	
 3.63650000000000E+0003	 2.44548524314212E-0001	
 3.63850000000000E+0003	 2.41918252623751E-0001	
 3.64050000000000E+0003	 2.39283980933290E-0001	
 3.64250000000000E+0003	 2.36644709242828E-0001	
 3.64450000000000E+0003	 2.34042437552367E-0001	
 3.64650000000000E+0003	 2.31470165861905E-0001	
 3.64850000000000E+0003	 2.28900394171444E-0001	
 3.65050000000000E+0003	 2.26409622480982E-0001	
 3.65250000000000E+0003	 2.24008350790521E-0001	
 3.65450000000000E+0003	 2.21782079100060E-0001	
 3.65650000000000E+0003	 2.19593807409598E-0001	
 3.65850000000000E+0003	 2.17424535719137E-0001	
 3.66050000000000E+0003	 2.15316264028675E-0001	
 3.66250000000000E+0003	 2.13114992338214E-0001	
 3.66450000000000E+0003	 2.10948720647753E-0001	
 3.66650000000000E+0003	 2.08936948957291E-0001	
 3.66850000000000E+0003	 2.07002177266830E-0001	
 3.67050000000000E+0003	 2.05002405576368E-0001	
 3.67250000000000E+0003	 2.03145133885907E-0001	
 3.67450000000000E+0003	 2.01458862195446E-0001	
 3.67650000000000E+0003	 1.99670590504984E-0001	
 3.67850000000000E+0003	 1.98121318814523E-0001	
 3.68050000000000E+0003	 1.96752047124061E-0001	
 3.68250000000000E+0003	 1.95409275433600E-0001	
 3.68450000000000E+0003	 1.94142003743138E-0001	
 3.68650000000000E+0003	 1.93033732052677E-0001	
 3.68850000000000E+0003	 1.91946460362216E-0001	
 3.69050000000000E+0003	 1.90565688671754E-0001	
 3.69250000000000E+0003	 1.89206416981293E-0001	
 3.69450000000000E+0003	 1.88173645290831E-0001	
 3.69650000000000E+0003	 1.87247373600370E-0001	
 3.69850000000000E+0003	 1.86300601909909E-0001	
 3.70050000000000E+0003	 1.85388330219447E-0001	
 3.70250000000000E+0003	 1.84468558528986E-0001	
 3.70450000000000E+0003	 1.83557286838524E-0001	
 3.70650000000000E+0003	 1.82679515148063E-0001	
 3.70850000000000E+0003	 1.81768743457602E-0001	
 3.71050000000000E+0003	 1.80891471767140E-0001	
 3.71250000000000E+0003	 1.80218700076679E-0001	
 3.71450000000000E+0003	 1.79705428386217E-0001	
 3.71650000000000E+0003	 1.79209156695756E-0001	
 3.71850000000000E+0003	 1.78628385005294E-0001	
 3.72050000000000E+0003	 1.77954113314833E-0001	
 3.72250000000000E+0003	 1.77264841624372E-0001	
 3.72450000000000E+0003	 1.76614069933910E-0001	
 3.72650000000000E+0003	 1.76034798243449E-0001	
 3.72850000000000E+0003	 1.75545526552987E-0001	
 3.73050000000000E+0003	 1.75116754862526E-0001	
 3.73250000000000E+0003	 1.74621983172065E-0001	
 3.73450000000000E+0003	 1.73969711481603E-0001	
 3.73650000000000E+0003	 1.73362939791142E-0001	
 3.73850000000000E+0003	 1.72973168100680E-0001	
 3.74050000000000E+0003	 1.72571396410219E-0001	
 3.74250000000000E+0003	 1.72121124719758E-0001	
 3.74450000000000E+0003	 1.71718353029296E-0001	
 3.74650000000000E+0003	 1.71300581338835E-0001	
 3.74850000000000E+0003	 1.70847809648373E-0001	
 3.75050000000000E+0003	 1.70468037957912E-0001	
 3.75250000000000E+0003	 1.70229766267450E-0001	
 3.75450000000000E+0003	 1.70041494576989E-0001	
 3.75650000000000E+0003	 1.69781222886528E-0001	
 3.75850000000000E+0003	 1.69465951196066E-0001	
 3.76050000000000E+0003	 1.69166679505605E-0001	
 3.76250000000000E+0003	 1.68873907815143E-0001	
 3.76450000000000E+0003	 1.68576636124682E-0001	
 3.76650000000000E+0003	 1.68258864434221E-0001	
 3.76850000000000E+0003	 1.67950092743759E-0001	
 3.77050000000000E+0003	 1.67676321053298E-0001	
 3.77250000000000E+0003	 1.67430549362836E-0001	
 3.77450000000000E+0003	 1.67176777672375E-0001	
 3.77650000000000E+0003	 1.66906505981914E-0001	
 3.77850000000000E+0003	 1.66646734291452E-0001	
 3.78050000000000E+0003	 1.66372462600991E-0001	
 3.78250000000000E+0003	 1.66072190910529E-0001	
 3.78450000000000E+0003	 1.65800419220068E-0001	
 3.78650000000000E+0003	 1.65575147529607E-0001	
 3.78850000000000E+0003	 1.65382875839145E-0001	
 3.79050000000000E+0003	 1.65175604148684E-0001	
 3.79250000000000E+0003	 1.64905832458222E-0001	
 3.79450000000000E+0003	 1.64601560767761E-0001	
 3.79650000000000E+0003	 1.64310789077299E-0001	
 3.79850000000000E+0003	 1.64039017386838E-0001	
 3.80050000000000E+0003	 1.63773245696377E-0001	
 3.80250000000000E+0003	 1.63524974005915E-0001	
 3.80450000000000E+0003	 1.63355702315454E-0001	
 3.80650000000000E+0003	 1.63220930624992E-0001	
 3.80850000000000E+0003	 1.63098158934531E-0001	
 3.81050000000000E+0003	 1.62954387244070E-0001	
 3.81250000000000E+0003	 1.62749115553608E-0001	
 3.81450000000000E+0003	 1.62515343863147E-0001	
 3.81650000000000E+0003	 1.62277072172685E-0001	
 3.81850000000000E+0003	 1.62095800482224E-0001	
 3.82050000000000E+0003	 1.61950028791763E-0001	
 3.82250000000000E+0003	 1.61768257101301E-0001	
 3.82450000000000E+0003	 1.61592985410840E-0001	
 3.82650000000000E+0003	 1.61439213720378E-0001	
 3.82850000000000E+0003	 1.61295942029917E-0001	
 3.83050000000000E+0003	 1.61171170339455E-0001	
 3.83250000000000E+0003	 1.61075898648994E-0001	
 3.83450000000000E+0003	 1.61008626958533E-0001	
 3.83650000000000E+0003	 1.60868855268071E-0001	
 3.83850000000000E+0003	 1.60594083577610E-0001	
 3.84050000000000E+0003	 1.60368811887148E-0001	
 3.84250000000000E+0003	 1.60258040196687E-0001	
 3.84450000000000E+0003	 1.60204768506226E-0001	
 3.84650000000000E+0003	 1.60109496815764E-0001	
 3.84850000000000E+0003	 1.59946725125303E-0001	
 3.85050000000000E+0003	 1.59768953434841E-0001	
 3.85250000000000E+0003	 1.59740181744380E-0001	
 3.85450000000000E+0003	 1.59758410053919E-0001	
 3.85650000000000E+0003	 1.59599138363457E-0001	
 3.85850000000000E+0003	 1.59374366672996E-0001	
 3.86050000000000E+0003	 1.59236594982534E-0001	
 3.86250000000000E+0003	 1.59164823292073E-0001	
 3.86450000000000E+0003	 1.59088051601611E-0001	
 3.86650000000000E+0003	 1.58975279911150E-0001	
 3.86850000000000E+0003	 1.58863008220689E-0001	
 3.87050000000000E+0003	 1.58761236530227E-0001	
 3.87250000000000E+0003	 1.58686464839766E-0001	
 3.87450000000000E+0003	 1.58623693149304E-0001	
 3.87650000000000E+0003	 1.58529421458843E-0001	
 3.87850000000000E+0003	 1.58446149768382E-0001	
 3.88050000000000E+0003	 1.58372878077920E-0001	
 3.88250000000000E+0003	 1.58274606387459E-0001	
 3.88450000000000E+0003	 1.58235834696997E-0001	
 3.88650000000000E+0003	 1.58194563006536E-0001	
 3.88850000000000E+0003	 1.58131291316075E-0001	
 3.89050000000000E+0003	 1.58135019625613E-0001	
 3.89250000000000E+0003	 1.58089247935152E-0001	
 3.89450000000000E+0003	 1.57942976244690E-0001	
 3.89650000000000E+0003	 1.57824704554229E-0001	
 3.89850000000000E+0003	 1.57738432863767E-0001	
 3.90050000000000E+0003	 1.57593161173306E-0001	
 3.90250000000000E+0003	 1.57541389482845E-0001	
 3.90450000000000E+0003	 1.57636617792383E-0001	
 3.90650000000000E+0003	 1.57647346101922E-0001	
 3.90850000000000E+0003	 1.57573074411460E-0001	
 3.91050000000000E+0003	 1.57530802720999E-0001	
 3.91250000000000E+0003	 1.57478531030538E-0001	
 3.91450000000000E+0003	 1.57390759340076E-0001	
 3.91650000000000E+0003	 1.57311487649615E-0001	
 3.91850000000000E+0003	 1.57280715959153E-0001	
 3.92050000000000E+0003	 1.57269444268692E-0001	
 3.92250000000000E+0003	 1.57246172578231E-0001	
 3.92450000000000E+0003	 1.57236400887769E-0001	
 3.92650000000000E+0003	 1.57205629197308E-0001	
 3.92850000000000E+0003	 1.57128357506846E-0001	
 3.93050000000000E+0003	 1.57049585816385E-0001	
 3.93250000000000E+0003	 1.57009314125923E-0001	
 3.93450000000000E+0003	 1.57014542435462E-0001	
 3.93650000000000E+0003	 1.57011770745001E-0001	
 3.93850000000000E+0003	 1.56973499054539E-0001	
 3.94050000000000E+0003	 1.56928227364078E-0001	
 3.94250000000000E+0003	 1.56893955673616E-0001	
 3.94450000000000E+0003	 1.56822183983155E-0001	
 3.94650000000000E+0003	 1.56741412292694E-0001	
 3.94850000000000E+0003	 1.56714640602232E-0001	
 3.95050000000000E+0003	 1.56718368911771E-0001	
 3.95250000000000E+0003	 1.56701097221309E-0001	
 3.95450000000000E+0003	 1.56664325530848E-0001	
 3.95650000000000E+0003	 1.56625053840387E-0001	
 3.95850000000000E+0003	 1.56578282149925E-0001	
 3.96050000000000E+0003	 1.56526510459464E-0001	
 3.96250000000000E+0003	 1.56488238769002E-0001	
 3.96450000000000E+0003	 1.56463967078541E-0001	
 3.96650000000000E+0003	 1.56442195388080E-0001	
 3.96850000000000E+0003	 1.56409923697618E-0001	
 3.97050000000000E+0003	 1.56369152007157E-0001	
 3.97250000000000E+0003	 1.56326380316695E-0001	
 3.97450000000000E+0003	 1.56291108626234E-0001	
 3.97650000000000E+0003	 1.56264336935772E-0001	
 3.97850000000000E+0003	 1.56238565245311E-0001	
 3.98050000000000E+0003	 1.56210793554850E-0001	
 3.98250000000000E+0003	 1.56201021864388E-0001	
 3.98450000000000E+0003	 1.56190250173927E-0001	
 3.98650000000000E+0003	 1.56142978483465E-0001	
 3.98850000000000E+0003	 1.56082706793004E-0001	
 3.99050000000000E+0003	 1.56046435102543E-0001	
 3.99250000000000E+0003	 1.56018663412081E-0001	
 3.99450000000000E+0003	 1.55992891721620E-0001	
 3.99650000000000E+0003	 1.55966620031158E-0001	
 3.99850000000000E+0003	 1.55923691176471E-0001	

>1	DATALINE
