*CPCWIN*

>1	DATALINE
DATALINE
1
Operator:

Description:

Remarks:





15.9.2008
10:51


_x	_y
	
	
UNIT	UNIT
 4.50500000000000E+0002	 2.31088602602230E-0001	
 4.52500000000000E+0002	 2.31416433085502E-0001	
 4.54500000000000E+0002	 2.32466763568773E-0001	
 4.56500000000000E+0002	 2.32703094052045E-0001	
 4.58500000000000E+0002	 2.33323424535316E-0001	
 4.60500000000000E+0002	 2.35182755018587E-0001	
 4.62500000000000E+0002	 2.37050585501859E-0001	
 4.64500000000000E+0002	 2.39095415985130E-0001	
 4.66500000000000E+0002	 2.40480246468401E-0001	
 4.68500000000000E+0002	 2.41857076951673E-0001	
 4.70500000000000E+0002	 2.42834407434944E-0001	
 4.72500000000000E+0002	 2.42018237918216E-0001	
 4.74500000000000E+0002	 2.44091068401487E-0001	
 4.76500000000000E+0002	 2.45989398884758E-0001	
 4.78500000000000E+0002	 2.47927229368030E-0001	
 4.80500000000000E+0002	 2.49710559851301E-0001	
 4.82500000000000E+0002	 2.51141390334572E-0001	
 4.84500000000000E+0002	 2.52677220817844E-0001	
 4.86500000000000E+0002	 2.54718051301115E-0001	
 4.88500000000000E+0002	 2.57111381784387E-0001	
 4.90500000000000E+0002	 2.59582712267658E-0001	
 4.92500000000000E+0002	 2.61656542750929E-0001	
 4.94500000000000E+0002	 2.63521373234201E-0001	
 4.96500000000000E+0002	 2.65401203717472E-0001	
 4.98500000000000E+0002	 2.67323034200743E-0001	
 5.00500000000000E+0002	 2.69372864684015E-0001	
 5.02500000000000E+0002	 2.71490695167286E-0001	
 5.04500000000000E+0002	 2.73308525650558E-0001	
 5.06500000000000E+0002	 2.75107856133829E-0001	
 5.08500000000000E+0002	 2.77046186617100E-0001	
 5.10500000000000E+0002	 2.78887017100372E-0001	
 5.12500000000000E+0002	 2.80675347583643E-0001	
 5.14500000000000E+0002	 2.82599678066914E-0001	
 5.16500000000000E+0002	 2.84855508550186E-0001	
 5.18500000000000E+0002	 2.87118339033457E-0001	
 5.20500000000000E+0002	 2.89221669516729E-0001	
 5.22500000000000E+0002	 2.91336000000000E-0001	
 5.24500000000000E+0002	 2.93466830483271E-0001	
 5.26500000000000E+0002	 2.94626160966543E-0001	
 5.28500000000000E+0002	 2.97319491449814E-0001	
 5.30500000000000E+0002	 2.99247821933086E-0001	
 5.32500000000000E+0002	 3.00202152416357E-0001	
 5.34500000000000E+0002	 3.00475982899628E-0001	
 5.36500000000000E+0002	 3.00327813382900E-0001	
 5.38500000000000E+0002	 2.99936643866171E-0001	
 5.40500000000000E+0002	 2.99466474349442E-0001	
 5.42500000000000E+0002	 2.99025304832714E-0001	
 5.44500000000000E+0002	 2.98528635315985E-0001	
 5.46500000000000E+0002	 2.98176965799257E-0001	
 5.48500000000000E+0002	 2.98162796282528E-0001	
 5.50500000000000E+0002	 2.98360126765799E-0001	
 5.52500000000000E+0002	 2.98534457249071E-0001	
 5.54500000000000E+0002	 2.98382287732342E-0001	
 5.56500000000000E+0002	 2.97952618215613E-0001	
 5.58500000000000E+0002	 2.97272948698885E-0001	
 5.60500000000000E+0002	 2.96266279182156E-0001	
 5.62500000000000E+0002	 2.95002109665428E-0001	
 5.64500000000000E+0002	 2.93703940148699E-0001	
 5.66500000000000E+0002	 2.92424770631970E-0001	
 5.68500000000000E+0002	 2.91327101115242E-0001	
 5.70500000000000E+0002	 2.90590931598513E-0001	
 5.72500000000000E+0002	 2.90082262081784E-0001	
 5.74500000000000E+0002	 2.89360592565056E-0001	
 5.76500000000000E+0002	 2.88901423048327E-0001	
 5.78500000000000E+0002	 2.88866253531599E-0001	
 5.80500000000000E+0002	 2.88591584014870E-0001	
 5.82500000000000E+0002	 2.88437414498141E-0001	
 5.84500000000000E+0002	 2.88211744981413E-0001	
 5.86500000000000E+0002	 2.88070575464684E-0001	
 5.88500000000000E+0002	 2.87918905947955E-0001	
 5.90500000000000E+0002	 2.87488736431227E-0001	
 5.92500000000000E+0002	 2.87629066914498E-0001	
 5.94500000000000E+0002	 2.88583397397770E-0001	
 5.96500000000000E+0002	 2.89552727881041E-0001	
 5.98500000000000E+0002	 2.90199558364312E-0001	
 6.00500000000000E+0002	 2.90874888847584E-0001	
 6.02500000000000E+0002	 2.91666219330855E-0001	
 6.04500000000000E+0002	 2.91951549814126E-0001	
 6.06500000000000E+0002	 2.91688880297398E-0001	
 6.08500000000000E+0002	 2.91014210780669E-0001	
 6.10500000000000E+0002	 2.90122041263941E-0001	
 6.12500000000000E+0002	 2.89211871747212E-0001	
 6.14500000000000E+0002	 2.88329702230483E-0001	
 6.16500000000000E+0002	 2.87634532713755E-0001	
 6.18500000000000E+0002	 2.86987363197026E-0001	
 6.20500000000000E+0002	 2.86250193680297E-0001	
 6.22500000000000E+0002	 2.85616024163569E-0001	
 6.24500000000000E+0002	 2.84927354646840E-0001	
 6.26500000000000E+0002	 2.84411685130112E-0001	
 6.28500000000000E+0002	 2.84035015613383E-0001	
 6.30500000000000E+0002	 2.83400346096654E-0001	
 6.32500000000000E+0002	 2.82444676579926E-0001	
 6.34500000000000E+0002	 2.81321007063197E-0001	
 6.36500000000000E+0002	 2.80356837546468E-0001	
 6.38500000000000E+0002	 2.79446668029740E-0001	
 6.40500000000000E+0002	 2.78485498513011E-0001	
 6.42500000000000E+0002	 2.77579328996283E-0001	
 6.44500000000000E+0002	 2.76624159479554E-0001	
 6.46500000000000E+0002	 2.75732489962825E-0001	
 6.48500000000000E+0002	 2.74833820446097E-0001	
 6.50500000000000E+0002	 2.73858650929368E-0001	
 6.52500000000000E+0002	 2.72958981412639E-0001	
 6.54500000000000E+0002	 2.72160311895911E-0001	
 6.56500000000000E+0002	 2.71353642379182E-0001	
 6.58500000000000E+0002	 2.70577472862454E-0001	
 6.60500000000000E+0002	 2.69977803345725E-0001	
 6.62500000000000E+0002	 2.69385633828996E-0001	
 6.64500000000000E+0002	 2.68531464312268E-0001	
 6.66500000000000E+0002	 2.67188294795539E-0001	
 6.68500000000000E+0002	 2.65968625278810E-0001	
 6.70500000000000E+0002	 2.65364955762082E-0001	
 6.72500000000000E+0002	 2.64602286245353E-0001	
 6.74500000000000E+0002	 2.63501116728625E-0001	
 6.76500000000000E+0002	 2.62330947211896E-0001	
 6.78500000000000E+0002	 2.61166277695167E-0001	
 6.80500000000000E+0002	 2.60072108178439E-0001	
 6.82500000000000E+0002	 2.59089938661710E-0001	
 6.84500000000000E+0002	 2.58187269144981E-0001	
 6.86500000000000E+0002	 2.57265099628253E-0001	
 6.88500000000000E+0002	 2.56402930111524E-0001	
 6.90500000000000E+0002	 2.55886260594796E-0001	
 6.92500000000000E+0002	 2.55489091078067E-0001	
 6.94500000000000E+0002	 2.55046921561338E-0001	
 6.96500000000000E+0002	 2.54657752044610E-0001	
 6.98500000000000E+0002	 2.54298582527881E-0001	
 7.00500000000000E+0002	 2.53813413011152E-0001	
 7.02500000000000E+0002	 2.52944243494424E-0001	
 7.04500000000000E+0002	 2.51817073977695E-0001	
 7.06500000000000E+0002	 2.50679404460967E-0001	
 7.08500000000000E+0002	 2.49572734944238E-0001	
 7.10500000000000E+0002	 2.48419565427509E-0001	
 7.12500000000000E+0002	 2.47145895910781E-0001	
 7.14500000000000E+0002	 2.45682726394052E-0001	
 7.16500000000000E+0002	 2.44107056877323E-0001	
 7.18500000000000E+0002	 2.42486887360595E-0001	
 7.20500000000000E+0002	 2.40737717843866E-0001	
 7.22500000000000E+0002	 2.38692048327138E-0001	
 7.24500000000000E+0002	 2.36334878810409E-0001	
 7.26500000000000E+0002	 2.33600209293680E-0001	
 7.28500000000000E+0002	 2.30604039776952E-0001	
 7.30500000000000E+0002	 2.27555870260223E-0001	
 7.32500000000000E+0002	 2.24771200743494E-0001	
 7.34500000000000E+0002	 2.22357031226766E-0001	
 7.36500000000000E+0002	 2.20324361710037E-0001	
 7.38500000000000E+0002	 2.18569192193309E-0001	
 7.40500000000000E+0002	 2.17019022676580E-0001	
 7.42500000000000E+0002	 2.15591853159851E-0001	
 7.44500000000000E+0002	 2.14284683643123E-0001	
 7.46500000000000E+0002	 2.13121514126394E-0001	
 7.48500000000000E+0002	 2.12083844609665E-0001	
 7.50500000000000E+0002	 2.11197175092937E-0001	
 7.52500000000000E+0002	 2.10679505576208E-0001	
 7.54500000000000E+0002	 2.10633336059480E-0001	
 7.56500000000000E+0002	 2.11092666542751E-0001	
 7.58500000000000E+0002	 2.12019497026022E-0001	
 7.60500000000000E+0002	 2.13408327509294E-0001	
 7.62500000000000E+0002	 2.14862157992565E-0001	
 7.64500000000000E+0002	 2.15541488475836E-0001	
 7.66500000000000E+0002	 2.14570318959108E-0001	
 7.68500000000000E+0002	 2.11914149442379E-0001	
 7.70500000000000E+0002	 2.08427479925651E-0001	
 7.72500000000000E+0002	 2.05312310408922E-0001	
 7.74500000000000E+0002	 2.03495640892193E-0001	
 7.76500000000000E+0002	 2.03506971375465E-0001	
 7.78500000000000E+0002	 2.04638801858736E-0001	
 7.80500000000000E+0002	 2.04976632342007E-0001	
 7.82500000000000E+0002	 2.03628462825279E-0001	
 7.84500000000000E+0002	 2.01561793308550E-0001	
 7.86500000000000E+0002	 1.99432123791822E-0001	
 7.88500000000000E+0002	 1.97203954275093E-0001	
 7.90500000000000E+0002	 1.95042284758364E-0001	
 7.92500000000000E+0002	 1.93530115241636E-0001	
 7.94500000000000E+0002	 1.92739945724907E-0001	
 7.96500000000000E+0002	 1.91949276208178E-0001	
 7.98500000000000E+0002	 1.90562106691450E-0001	
 8.00500000000000E+0002	 1.88880437174721E-0001	
 8.02500000000000E+0002	 1.87417767657993E-0001	
 8.04500000000000E+0002	 1.86439598141264E-0001	
 8.06500000000000E+0002	 1.85825428624535E-0001	
 8.08500000000000E+0002	 1.85363759107807E-0001	
 8.10500000000000E+0002	 1.84782089591078E-0001	
 8.12500000000000E+0002	 1.83914920074349E-0001	
 8.14500000000000E+0002	 1.82718250557621E-0001	
 8.16500000000000E+0002	 1.81363081040892E-0001	
 8.18500000000000E+0002	 1.80069911524164E-0001	
 8.20500000000000E+0002	 1.79072742007435E-0001	
 8.22500000000000E+0002	 1.78440572490706E-0001	
 8.24500000000000E+0002	 1.78217902973978E-0001	
 8.26500000000000E+0002	 1.78282233457249E-0001	
 8.28500000000000E+0002	 1.78557563940520E-0001	
 8.30500000000000E+0002	 1.78986894423792E-0001	
 8.32500000000000E+0002	 1.79616724907063E-0001	
 8.34500000000000E+0002	 1.80371555390335E-0001	
 8.36500000000000E+0002	 1.81124385873606E-0001	
 8.38500000000000E+0002	 1.81726716356877E-0001	
 8.40500000000000E+0002	 1.82104546840149E-0001	
 8.42500000000000E+0002	 1.82181877323420E-0001	
 8.44500000000000E+0002	 1.82045707806691E-0001	
 8.46500000000000E+0002	 1.81799038289963E-0001	
 8.48500000000000E+0002	 1.81587368773234E-0001	
 8.50500000000000E+0002	 1.81461699256506E-0001	
 8.52500000000000E+0002	 1.81505029739777E-0001	
 8.54500000000000E+0002	 1.81667860223048E-0001	
 8.56500000000000E+0002	 1.81837690706320E-0001	
 8.58500000000000E+0002	 1.81790521189591E-0001	
 8.60500000000000E+0002	 1.81370351672862E-0001	
 8.62500000000000E+0002	 1.80415182156134E-0001	
 8.64500000000000E+0002	 1.78939012639405E-0001	
 8.66500000000000E+0002	 1.77055843122677E-0001	
 8.68500000000000E+0002	 1.75143173605948E-0001	
 8.70500000000000E+0002	 1.73631504089219E-0001	
 8.72500000000000E+0002	 1.72507334572491E-0001	
 8.74500000000000E+0002	 1.71291165055762E-0001	
 8.76500000000000E+0002	 1.70284495539033E-0001	
 8.78500000000000E+0002	 1.69796326022305E-0001	
 8.80500000000000E+0002	 1.69751156505576E-0001	
 8.82500000000000E+0002	 1.69896486988848E-0001	
 8.84500000000000E+0002	 1.70067817472119E-0001	
 8.86500000000000E+0002	 1.70089647955390E-0001	
 8.88500000000000E+0002	 1.69942478438662E-0001	
 8.90500000000000E+0002	 1.69570308921933E-0001	
 8.92500000000000E+0002	 1.69021139405204E-0001	
 8.94500000000000E+0002	 1.68317469888476E-0001	
 8.96500000000000E+0002	 1.67613300371747E-0001	
 8.98500000000000E+0002	 1.67059130855019E-0001	
 9.00500000000000E+0002	 1.66964961338290E-0001	
 9.02500000000000E+0002	 1.67596291821561E-0001	
 9.04500000000000E+0002	 1.69198622304833E-0001	
 9.06500000000000E+0002	 1.71766452788104E-0001	
 9.08500000000000E+0002	 1.75087783271375E-0001	
 9.10500000000000E+0002	 1.78635613754647E-0001	
 9.12500000000000E+0002	 1.81852944237918E-0001	
 9.14500000000000E+0002	 1.84223274721190E-0001	
 9.16500000000000E+0002	 1.85475605204461E-0001	
 9.18500000000000E+0002	 1.85481435687732E-0001	
 9.20500000000000E+0002	 1.84403766171004E-0001	
 9.22500000000000E+0002	 1.82480596654275E-0001	
 9.24500000000000E+0002	 1.80066927137546E-0001	
 9.26500000000000E+0002	 1.77415257620818E-0001	
 9.28500000000000E+0002	 1.74836588104089E-0001	
 9.30500000000000E+0002	 1.72525918587361E-0001	
 9.32500000000000E+0002	 1.70637749070632E-0001	
 9.34500000000000E+0002	 1.69175579553903E-0001	
 9.36500000000000E+0002	 1.68136410037175E-0001	
 9.38500000000000E+0002	 1.67416240520446E-0001	
 9.40500000000000E+0002	 1.67053571003717E-0001	
 9.42500000000000E+0002	 1.67075401486989E-0001	
 9.44500000000000E+0002	 1.67621731970260E-0001	
 9.46500000000000E+0002	 1.68735562453532E-0001	
 9.48500000000000E+0002	 1.70451892936803E-0001	
 9.50500000000000E+0002	 1.72716223420074E-0001	
 9.52500000000000E+0002	 1.75579053903346E-0001	
 9.54500000000000E+0002	 1.79012384386617E-0001	
 9.56500000000000E+0002	 1.83001214869888E-0001	
 9.58500000000000E+0002	 1.87360045353160E-0001	
 9.60500000000000E+0002	 1.91931875836431E-0001	
 9.62500000000000E+0002	 1.96489206319703E-0001	
 9.64500000000000E+0002	 2.00941036802974E-0001	
 9.66500000000000E+0002	 2.05212367286245E-0001	
 9.68500000000000E+0002	 2.09399697769517E-0001	
 9.70500000000000E+0002	 2.13664028252788E-0001	
 9.72500000000000E+0002	 2.18410858736059E-0001	
 9.74500000000000E+0002	 2.24072689219331E-0001	
 9.76500000000000E+0002	 2.31255519702602E-0001	
 9.78500000000000E+0002	 2.40434350185874E-0001	
 9.80500000000000E+0002	 2.51866680669145E-0001	
 9.82500000000000E+0002	 2.65178511152416E-0001	
 9.84500000000000E+0002	 2.79450341635688E-0001	
 9.86500000000000E+0002	 2.93293172118959E-0001	
 9.88500000000000E+0002	 3.05531502602230E-0001	
 9.90500000000000E+0002	 3.15564333085502E-0001	
 9.92500000000000E+0002	 3.23724163568773E-0001	
 9.94500000000000E+0002	 3.30964994052045E-0001	
 9.96500000000000E+0002	 3.38558824535316E-0001	
 9.98500000000000E+0002	 3.47459155018587E-0001	
 1.00050000000000E+0003	 3.58112485501859E-0001	
 1.00250000000000E+0003	 3.70217315985130E-0001	
 1.00450000000000E+0003	 3.83069646468401E-0001	
 1.00650000000000E+0003	 3.95872976951673E-0001	
 1.00850000000000E+0003	 4.08091807434944E-0001	
 1.01050000000000E+0003	 4.19416637918216E-0001	
 1.01250000000000E+0003	 4.29835468401487E-0001	
 1.01450000000000E+0003	 4.39288798884758E-0001	
 1.01650000000000E+0003	 4.47592629368030E-0001	
 1.01850000000000E+0003	 4.54406959851301E-0001	
 1.02050000000000E+0003	 4.59603290334572E-0001	
 1.02250000000000E+0003	 4.63410120817844E-0001	
 1.02450000000000E+0003	 4.66481951301115E-0001	
 1.02650000000000E+0003	 4.69463781784387E-0001	
 1.02850000000000E+0003	 4.72755612267658E-0001	
 1.03050000000000E+0003	 4.76300442750929E-0001	
 1.03250000000000E+0003	 4.79801773234201E-0001	
 1.03450000000000E+0003	 4.82850103717472E-0001	
 1.03650000000000E+0003	 4.85185934200743E-0001	
 1.03850000000000E+0003	 4.86710764684015E-0001	
 1.04050000000000E+0003	 4.87646595167286E-0001	
 1.04250000000000E+0003	 4.88513925650558E-0001	
 1.04450000000000E+0003	 4.89904256133829E-0001	
 1.04650000000000E+0003	 4.92141586617100E-0001	
 1.04850000000000E+0003	 4.95216417100372E-0001	
 1.05050000000000E+0003	 4.98577747583643E-0001	
 1.05250000000000E+0003	 5.01351578066914E-0001	
 1.05450000000000E+0003	 5.02745408550186E-0001	
 1.05650000000000E+0003	 5.02402239033457E-0001	
 1.05850000000000E+0003	 5.00421569516729E-0001	
 1.06050000000000E+0003	 4.97416400000000E-0001	
 1.06250000000000E+0003	 4.94352730483271E-0001	
 1.06450000000000E+0003	 4.92495560966543E-0001	
 1.06650000000000E+0003	 4.92852891449814E-0001	
 1.06850000000000E+0003	 4.95842221933086E-0001	
 1.07050000000000E+0003	 5.01141052416357E-0001	
 1.07250000000000E+0003	 5.07811882899628E-0001	
 1.07450000000000E+0003	 5.14552713382900E-0001	
 1.07650000000000E+0003	 5.20225043866171E-0001	
 1.07850000000000E+0003	 5.23934874349442E-0001	
 1.08050000000000E+0003	 5.25192704832714E-0001	
 1.08250000000000E+0003	 5.23708035315985E-0001	
 1.08450000000000E+0003	 5.19265365799257E-0001	
 1.08650000000000E+0003	 5.11643196282528E-0001	
 1.08850000000000E+0003	 5.01034526765799E-0001	
 1.09050000000000E+0003	 4.88513357249071E-0001	
 1.09250000000000E+0003	 4.75997687732342E-0001	
 1.09450000000000E+0003	 4.65200518215613E-0001	
 1.09650000000000E+0003	 4.56766348698885E-0001	
 1.09850000000000E+0003	 4.50127179182156E-0001	
 1.10050000000000E+0003	 4.44282009665428E-0001	
 1.10250000000000E+0003	 4.38375340148699E-0001	
 1.10450000000000E+0003	 4.32057170631970E-0001	
 1.10650000000000E+0003	 4.25359501115242E-0001	
 1.10850000000000E+0003	 4.18635331598513E-0001	
 1.11050000000000E+0003	 4.12242162081784E-0001	
 1.11250000000000E+0003	 4.06387492565056E-0001	
 1.11450000000000E+0003	 4.00941823048327E-0001	
 1.11650000000000E+0003	 3.95639653531599E-0001	
 1.11850000000000E+0003	 3.90219484014870E-0001	
 1.12050000000000E+0003	 3.84565314498141E-0001	
 1.12250000000000E+0003	 3.78605144981413E-0001	
 1.12450000000000E+0003	 3.72422975464684E-0001	
 1.12650000000000E+0003	 3.66160805947955E-0001	
 1.12850000000000E+0003	 3.59962636431227E-0001	
 1.13050000000000E+0003	 3.53881466914498E-0001	
 1.13250000000000E+0003	 3.48130797397770E-0001	
 1.13450000000000E+0003	 3.42951127881041E-0001	
 1.13650000000000E+0003	 3.38540458364312E-0001	
 1.13850000000000E+0003	 3.35082288847584E-0001	
 1.14050000000000E+0003	 3.32734619330855E-0001	
 1.14250000000000E+0003	 3.31488449814126E-0001	
 1.14450000000000E+0003	 3.31070780297398E-0001	
 1.14650000000000E+0003	 3.30863610780669E-0001	
 1.14850000000000E+0003	 3.30055441263941E-0001	
 1.15050000000000E+0003	 3.27819271747212E-0001	
 1.15250000000000E+0003	 3.23681102230483E-0001	
 1.15450000000000E+0003	 3.17711932713755E-0001	
 1.15650000000000E+0003	 3.10527263197026E-0001	
 1.15850000000000E+0003	 3.02815093680297E-0001	
 1.16050000000000E+0003	 2.94997924163569E-0001	
 1.16250000000000E+0003	 2.87076754646840E-0001	
 1.16450000000000E+0003	 2.78979085130112E-0001	
 1.16650000000000E+0003	 2.70745915613383E-0001	
 1.16850000000000E+0003	 2.62628246096654E-0001	
 1.17050000000000E+0003	 2.54847576579926E-0001	
 1.17250000000000E+0003	 2.47523907063197E-0001	
 1.17450000000000E+0003	 2.40700237546468E-0001	
 1.17650000000000E+0003	 2.34565068029740E-0001	
 1.17850000000000E+0003	 2.29246398513011E-0001	
 1.18050000000000E+0003	 2.24987728996283E-0001	
 1.18250000000000E+0003	 2.21971559479554E-0001	
 1.18450000000000E+0003	 2.20316889962825E-0001	
 1.18650000000000E+0003	 2.20028220446097E-0001	
 1.18850000000000E+0003	 2.21152050929368E-0001	
 1.19050000000000E+0003	 2.23525381412639E-0001	
 1.19250000000000E+0003	 2.27005211895911E-0001	
 1.19450000000000E+0003	 2.31399042379182E-0001	
 1.19650000000000E+0003	 2.36468872862454E-0001	
 1.19850000000000E+0003	 2.41864703345725E-0001	
 1.20050000000000E+0003	 2.47302033828996E-0001	
 1.20250000000000E+0003	 2.52486364312268E-0001	
 1.20450000000000E+0003	 2.57288694795539E-0001	
 1.20650000000000E+0003	 2.61629525278810E-0001	
 1.20850000000000E+0003	 2.65588355762082E-0001	
 1.21050000000000E+0003	 2.69286186245353E-0001	
 1.21250000000000E+0003	 2.73015016728625E-0001	
 1.21450000000000E+0003	 2.76889347211896E-0001	
 1.21650000000000E+0003	 2.80773177695167E-0001	
 1.21850000000000E+0003	 2.84502008178439E-0001	
 1.22050000000000E+0003	 2.87930838661710E-0001	
 1.22250000000000E+0003	 2.90841669144981E-0001	
 1.22450000000000E+0003	 2.93282999628253E-0001	
 1.22650000000000E+0003	 2.95436830111524E-0001	
 1.22850000000000E+0003	 2.97313160594796E-0001	
 1.23050000000000E+0003	 2.98792491078067E-0001	
 1.23250000000000E+0003	 2.99875321561338E-0001	
 1.23450000000000E+0003	 3.00514152044610E-0001	
 1.23650000000000E+0003	 3.00695982527881E-0001	
 1.23850000000000E+0003	 3.00401313011152E-0001	
 1.24050000000000E+0003	 2.99680643494424E-0001	
 1.24250000000000E+0003	 2.98524473977695E-0001	
 1.24450000000000E+0003	 2.97021304460967E-0001	
 1.24650000000000E+0003	 2.95208134944238E-0001	
 1.24850000000000E+0003	 2.93068965427509E-0001	
 1.25050000000000E+0003	 2.90630795910781E-0001	
 1.25250000000000E+0003	 2.87963126394052E-0001	
 1.25450000000000E+0003	 2.85107956877323E-0001	
 1.25650000000000E+0003	 2.82124287360595E-0001	
 1.25850000000000E+0003	 2.79023617843866E-0001	
 1.26050000000000E+0003	 2.75995448327138E-0001	
 1.26250000000000E+0003	 2.73147778810409E-0001	
 1.26450000000000E+0003	 2.70337109293680E-0001	
 1.26650000000000E+0003	 2.67583439776952E-0001	
 1.26850000000000E+0003	 2.65007770260223E-0001	
 1.27050000000000E+0003	 2.62655600743494E-0001	
 1.27250000000000E+0003	 2.60676931226766E-0001	
 1.27450000000000E+0003	 2.58959761710037E-0001	
 1.27650000000000E+0003	 2.57370592193309E-0001	
 1.27850000000000E+0003	 2.55896422676580E-0001	
 1.28050000000000E+0003	 2.54607253159851E-0001	
 1.28250000000000E+0003	 2.53421083643123E-0001	
 1.28450000000000E+0003	 2.52156914126394E-0001	
 1.28650000000000E+0003	 2.50776744609665E-0001	
 1.28850000000000E+0003	 2.49756075092937E-0001	
 1.29050000000000E+0003	 2.49310405576208E-0001	
 1.29250000000000E+0003	 2.49159736059480E-0001	
 1.29450000000000E+0003	 2.49085566542751E-0001	
 1.29650000000000E+0003	 2.49265897026022E-0001	
 1.29850000000000E+0003	 2.49922727509294E-0001	
 1.30050000000000E+0003	 2.50891057992565E-0001	
 1.30250000000000E+0003	 2.51940388475836E-0001	
 1.30450000000000E+0003	 2.52992218959108E-0001	
 1.30650000000000E+0003	 2.53953049442379E-0001	
 1.30850000000000E+0003	 2.54895879925651E-0001	
 1.31050000000000E+0003	 2.55510710408922E-0001	
 1.31250000000000E+0003	 2.55653040892193E-0001	
 1.31450000000000E+0003	 2.55754371375465E-0001	
 1.31650000000000E+0003	 2.55512201858736E-0001	
 1.31850000000000E+0003	 2.54916532342007E-0001	
 1.32050000000000E+0003	 2.54550862825279E-0001	
 1.32250000000000E+0003	 2.54253693308550E-0001	
 1.32450000000000E+0003	 2.53927523791822E-0001	
 1.32650000000000E+0003	 2.53784354275093E-0001	
 1.32850000000000E+0003	 2.53994684758364E-0001	
 1.33050000000000E+0003	 2.54621015241636E-0001	
 1.33250000000000E+0003	 2.55547845724907E-0001	
 1.33450000000000E+0003	 2.56349676208178E-0001	
 1.33650000000000E+0003	 2.57846006691450E-0001	
 1.33850000000000E+0003	 2.58714837174721E-0001	
 1.34050000000000E+0003	 2.59067667657993E-0001	
 1.34250000000000E+0003	 2.58862498141264E-0001	
 1.34450000000000E+0003	 2.58429328624535E-0001	
 1.34650000000000E+0003	 2.57913659107807E-0001	
 1.34850000000000E+0003	 2.57470989591078E-0001	
 1.35050000000000E+0003	 2.57135320074349E-0001	
 1.35250000000000E+0003	 2.56862650557621E-0001	
 1.35450000000000E+0003	 2.57028981040892E-0001	
 1.35650000000000E+0003	 2.57830311524164E-0001	
 1.35850000000000E+0003	 2.58482142007435E-0001	
 1.36050000000000E+0003	 2.59570472490706E-0001	
 1.36250000000000E+0003	 2.61117302973978E-0001	
 1.36450000000000E+0003	 2.63155633457249E-0001	
 1.36650000000000E+0003	 2.65862963940520E-0001	
 1.36850000000000E+0003	 2.68095794423792E-0001	
 1.37050000000000E+0003	 2.70571624907063E-0001	
 1.37250000000000E+0003	 2.72202455390335E-0001	
 1.37450000000000E+0003	 2.74154285873606E-0001	
 1.37650000000000E+0003	 2.76725116356877E-0001	
 1.37850000000000E+0003	 2.78616446840149E-0001	
 1.38050000000000E+0003	 2.80460277323420E-0001	
 1.38250000000000E+0003	 2.82276107806691E-0001	
 1.38450000000000E+0003	 2.83781938289963E-0001	
 1.38650000000000E+0003	 2.85203268773234E-0001	
 1.38850000000000E+0003	 2.86264099256506E-0001	
 1.39050000000000E+0003	 2.87044429739777E-0001	
 1.39250000000000E+0003	 2.87195760223048E-0001	
 1.39450000000000E+0003	 2.87769090706320E-0001	
 1.39650000000000E+0003	 2.89462421189591E-0001	
 1.39850000000000E+0003	 2.92101751672862E-0001	
 1.40050000000000E+0003	 2.94728582156134E-0001	
 1.40250000000000E+0003	 2.95824912639405E-0001	
 1.40450000000000E+0003	 2.95648743122677E-0001	
 1.40650000000000E+0003	 2.95556073605948E-0001	
 1.40850000000000E+0003	 2.95095404089219E-0001	
 1.41050000000000E+0003	 2.93850234572491E-0001	
 1.41250000000000E+0003	 2.92626565055762E-0001	
 1.41450000000000E+0003	 2.90641895539033E-0001	
 1.41650000000000E+0003	 2.86952726022305E-0001	
 1.41850000000000E+0003	 2.83556556505576E-0001	
 1.42050000000000E+0003	 2.82180386988848E-0001	
 1.42250000000000E+0003	 2.80924717472119E-0001	
 1.42450000000000E+0003	 2.78490547955390E-0001	
 1.42650000000000E+0003	 2.75987378438662E-0001	
 1.42850000000000E+0003	 2.73521208921933E-0001	
 1.43050000000000E+0003	 2.71425539405204E-0001	
 1.43250000000000E+0003	 2.70039869888476E-0001	
 1.43450000000000E+0003	 2.68851200371747E-0001	
 1.43650000000000E+0003	 2.69036030855019E-0001	
 1.43850000000000E+0003	 2.71631861338290E-0001	
 1.44050000000000E+0003	 2.74397691821561E-0001	
 1.44250000000000E+0003	 2.76002022304833E-0001	
 1.44450000000000E+0003	 2.76946852788104E-0001	
 1.44650000000000E+0003	 2.77640683271375E-0001	
 1.44850000000000E+0003	 2.78645013754647E-0001	
 1.45050000000000E+0003	 2.79612844237918E-0001	
 1.45250000000000E+0003	 2.79443674721190E-0001	
 1.45450000000000E+0003	 2.76655005204461E-0001	
 1.45650000000000E+0003	 2.72684835687732E-0001	
 1.45850000000000E+0003	 2.70726166171004E-0001	
 1.46050000000000E+0003	 2.69719996654275E-0001	
 1.46250000000000E+0003	 2.66670827137546E-0001	
 1.46450000000000E+0003	 2.62311657620818E-0001	
 1.46650000000000E+0003	 2.57608488104089E-0001	
 1.46850000000000E+0003	 2.53024818587361E-0001	
 1.47050000000000E+0003	 2.46794149070632E-0001	
 1.47250000000000E+0003	 2.38643979553903E-0001	
 1.47450000000000E+0003	 2.32197310037175E-0001	
 1.47650000000000E+0003	 2.28887640520446E-0001	
 1.47850000000000E+0003	 2.26356471003717E-0001	
 1.48050000000000E+0003	 2.24238301486989E-0001	
 1.48250000000000E+0003	 2.23030131970260E-0001	
 1.48450000000000E+0003	 2.22568962453532E-0001	
 1.48650000000000E+0003	 2.22288792936803E-0001	
 1.48850000000000E+0003	 2.22294623420074E-0001	
 1.49050000000000E+0003	 2.25671953903346E-0001	
 1.49250000000000E+0003	 2.30558284386617E-0001	
 1.49450000000000E+0003	 2.34006614869888E-0001	
 1.49650000000000E+0003	 2.38329445353160E-0001	
 1.49850000000000E+0003	 2.44522275836431E-0001	
 1.50050000000000E+0003	 2.50127106319703E-0001	
 1.50250000000000E+0003	 2.55004936802974E-0001	
 1.50450000000000E+0003	 2.58860267286245E-0001	
 1.50650000000000E+0003	 2.63407597769517E-0001	
 1.50850000000000E+0003	 2.72611928252788E-0001	
 1.51050000000000E+0003	 2.84832258736059E-0001	
 1.51250000000000E+0003	 2.96461589219331E-0001	
 1.51450000000000E+0003	 3.06359919702602E-0001	
 1.51650000000000E+0003	 3.15267750185874E-0001	
 1.51850000000000E+0003	 3.21995580669145E-0001	
 1.52050000000000E+0003	 3.27227911152416E-0001	
 1.52250000000000E+0003	 3.35735241635688E-0001	
 1.52450000000000E+0003	 3.44272072118959E-0001	
 1.52650000000000E+0003	 3.52831902602230E-0001	
 1.52850000000000E+0003	 3.62442733085502E-0001	
 1.53050000000000E+0003	 3.70582563568773E-0001	
 1.53250000000000E+0003	 3.78418894052045E-0001	
 1.53450000000000E+0003	 3.86782224535316E-0001	
 1.53650000000000E+0003	 3.92526055018587E-0001	
 1.53850000000000E+0003	 3.97670385501859E-0001	
 1.54050000000000E+0003	 4.04310715985130E-0001	
 1.54250000000000E+0003	 4.09650546468401E-0001	
 1.54450000000000E+0003	 4.13974376951673E-0001	
 1.54650000000000E+0003	 4.17359707434944E-0001	
 1.54850000000000E+0003	 4.16894537918216E-0001	
 1.55050000000000E+0003	 4.13092868401487E-0001	
 1.55250000000000E+0003	 4.07587198884758E-0001	
 1.55450000000000E+0003	 3.99512529368030E-0001	
 1.55650000000000E+0003	 3.90956359851301E-0001	
 1.55850000000000E+0003	 3.80901190334572E-0001	
 1.56050000000000E+0003	 3.68665520817844E-0001	
 1.56250000000000E+0003	 3.63137351301115E-0001	
 1.56450000000000E+0003	 3.58058681784387E-0001	
 1.56650000000000E+0003	 3.50625512267658E-0001	
 1.56850000000000E+0003	 3.44328342750929E-0001	
 1.57050000000000E+0003	 3.37448673234201E-0001	
 1.57250000000000E+0003	 3.30757003717472E-0001	
 1.57450000000000E+0003	 3.24328834200743E-0001	
 1.57650000000000E+0003	 3.17737164684015E-0001	
 1.57850000000000E+0003	 3.13320495167286E-0001	
 1.58050000000000E+0003	 3.10355325650558E-0001	
 1.58250000000000E+0003	 3.06473656133829E-0001	
 1.58450000000000E+0003	 3.03301986617100E-0001	
 1.58650000000000E+0003	 3.01086317100372E-0001	
 1.58850000000000E+0003	 3.00065647583643E-0001	
 1.59050000000000E+0003	 3.00164978066914E-0001	
 1.59250000000000E+0003	 3.01587808550186E-0001	
 1.59450000000000E+0003	 3.03880639033457E-0001	
 1.59650000000000E+0003	 3.07149469516729E-0001	
 1.59850000000000E+0003	 3.10997300000000E-0001	
 1.60050000000000E+0003	 3.15485130483271E-0001	
 1.60250000000000E+0003	 3.20686960966543E-0001	
 1.60450000000000E+0003	 3.26948291449814E-0001	
 1.60650000000000E+0003	 3.33887621933086E-0001	
 1.60850000000000E+0003	 3.42191452416357E-0001	
 1.61050000000000E+0003	 3.51866282899628E-0001	
 1.61250000000000E+0003	 3.62307613382900E-0001	
 1.61450000000000E+0003	 3.72395443866171E-0001	
 1.61650000000000E+0003	 3.85476774349442E-0001	
 1.61850000000000E+0003	 4.01180604832714E-0001	
 1.62050000000000E+0003	 4.16487935315985E-0001	
 1.62250000000000E+0003	 4.33524765799257E-0001	
 1.62450000000000E+0003	 4.52517096282528E-0001	
 1.62650000000000E+0003	 4.71256926765799E-0001	
 1.62850000000000E+0003	 4.90966257249071E-0001	
 1.63050000000000E+0003	 5.10130087732342E-0001	
 1.63250000000000E+0003	 5.27369418215613E-0001	
 1.63450000000000E+0003	 5.44359748698885E-0001	
 1.63650000000000E+0003	 5.61240079182156E-0001	
 1.63850000000000E+0003	 5.74573909665428E-0001	
 1.64050000000000E+0003	 5.84644240148699E-0001	
 1.64250000000000E+0003	 5.92403070631970E-0001	
 1.64450000000000E+0003	 5.98435401115242E-0001	
 1.64650000000000E+0003	 6.05888731598513E-0001	
 1.64850000000000E+0003	 6.13327562081784E-0001	
 1.65050000000000E+0003	 6.17082392565056E-0001	
 1.65250000000000E+0003	 6.21548723048327E-0001	
 1.65450000000000E+0003	 6.26155553531599E-0001	
 1.65650000000000E+0003	 6.29016884014870E-0001	
 1.65850000000000E+0003	 6.27416714498141E-0001	
 1.66050000000000E+0003	 6.21091544981413E-0001	
 1.66250000000000E+0003	 6.11709375464684E-0001	
 1.66450000000000E+0003	 5.99300705947955E-0001	
 1.66650000000000E+0003	 5.87482036431227E-0001	
 1.66850000000000E+0003	 5.75298866914498E-0001	
 1.67050000000000E+0003	 5.61482697397770E-0001	
 1.67250000000000E+0003	 5.48962027881041E-0001	
 1.67450000000000E+0003	 5.37674358364312E-0001	
 1.67650000000000E+0003	 5.23996188847584E-0001	
 1.67850000000000E+0003	 5.11531019330855E-0001	
 1.68050000000000E+0003	 4.99279849814126E-0001	
 1.68250000000000E+0003	 4.86986180297398E-0001	
 1.68450000000000E+0003	 4.71958510780669E-0001	
 1.68650000000000E+0003	 4.58421341263941E-0001	
 1.68850000000000E+0003	 4.48861671747212E-0001	
 1.69050000000000E+0003	 4.36932502230483E-0001	
 1.69250000000000E+0003	 4.23317832713755E-0001	
 1.69450000000000E+0003	 4.08353163197026E-0001	
 1.69650000000000E+0003	 3.91499493680297E-0001	
 1.69850000000000E+0003	 3.80419324163569E-0001	
 1.70050000000000E+0003	 3.69465154646840E-0001	
 1.70250000000000E+0003	 3.57326485130112E-0001	
 1.70450000000000E+0003	 3.50614315613383E-0001	
 1.70650000000000E+0003	 3.42869146096654E-0001	
 1.70850000000000E+0003	 3.35078976579926E-0001	
 1.71050000000000E+0003	 3.27930307063197E-0001	
 1.71250000000000E+0003	 3.20145137546468E-0001	
 1.71450000000000E+0003	 3.10680968029740E-0001	
 1.71650000000000E+0003	 3.00511798513011E-0001	
 1.71850000000000E+0003	 2.92296128996283E-0001	
 1.72050000000000E+0003	 2.85207459479554E-0001	
 1.72250000000000E+0003	 2.77896289962825E-0001	
 1.72450000000000E+0003	 2.69904120446097E-0001	
 1.72650000000000E+0003	 2.62455450929368E-0001	
 1.72850000000000E+0003	 2.55114281412639E-0001	
 1.73050000000000E+0003	 2.47495111895911E-0001	
 1.73250000000000E+0003	 2.40898442379182E-0001	
 1.73450000000000E+0003	 2.36813772862454E-0001	
 1.73650000000000E+0003	 2.34577603345725E-0001	
 1.73850000000000E+0003	 2.33661933828996E-0001	
 1.74050000000000E+0003	 2.30492764312268E-0001	
 1.74250000000000E+0003	 2.26224094795539E-0001	
 1.74450000000000E+0003	 2.22800925278810E-0001	
 1.74650000000000E+0003	 2.19561255762082E-0001	
 1.74850000000000E+0003	 2.14978086245353E-0001	
 1.75050000000000E+0003	 2.10034916728625E-0001	
 1.75250000000000E+0003	 2.06636747211896E-0001	
 1.75450000000000E+0003	 2.03992577695167E-0001	
 1.75650000000000E+0003	 1.99962408178439E-0001	
 1.75850000000000E+0003	 1.95548738661710E-0001	
 1.76050000000000E+0003	 1.92084069144981E-0001	
 1.76250000000000E+0003	 1.88759399628253E-0001	
 1.76450000000000E+0003	 1.85606730111524E-0001	
 1.76650000000000E+0003	 1.82235060594796E-0001	
 1.76850000000000E+0003	 1.78926391078067E-0001	
 1.77050000000000E+0003	 1.77231721561338E-0001	
 1.77250000000000E+0003	 1.75126552044610E-0001	
 1.77450000000000E+0003	 1.72802882527881E-0001	
 1.77650000000000E+0003	 1.71701713011152E-0001	
 1.77850000000000E+0003	 1.70199043494424E-0001	
 1.78050000000000E+0003	 1.68528373977695E-0001	
 1.78250000000000E+0003	 1.66838704460967E-0001	
 1.78450000000000E+0003	 1.65313534944238E-0001	
 1.78650000000000E+0003	 1.64288365427509E-0001	
 1.78850000000000E+0003	 1.62847695910781E-0001	
 1.79050000000000E+0003	 1.60936026394052E-0001	
 1.79250000000000E+0003	 1.59646856877323E-0001	
 1.79450000000000E+0003	 1.58476187360595E-0001	
 1.79650000000000E+0003	 1.57832017843866E-0001	
 1.79850000000000E+0003	 1.57171348327138E-0001	
 1.80050000000000E+0003	 1.56449678810409E-0001	
 1.80250000000000E+0003	 1.56408509293680E-0001	
 1.80450000000000E+0003	 1.55286339776952E-0001	
 1.80650000000000E+0003	 1.54375670260223E-0001	
 1.80850000000000E+0003	 1.53579500743494E-0001	
 1.81050000000000E+0003	 1.52267331226766E-0001	
 1.81250000000000E+0003	 1.50871661710037E-0001	
 1.81450000000000E+0003	 1.50385992193309E-0001	
 1.81650000000000E+0003	 1.49550322676580E-0001	
 1.81850000000000E+0003	 1.48876653159851E-0001	
 1.82050000000000E+0003	 1.48234483643123E-0001	
 1.82250000000000E+0003	 1.47079814126394E-0001	
 1.82450000000000E+0003	 1.45987644609665E-0001	
 1.82650000000000E+0003	 1.45274475092937E-0001	
 1.82850000000000E+0003	 1.45118805576208E-0001	
 1.83050000000000E+0003	 1.44662636059480E-0001	
 1.83250000000000E+0003	 1.43953466542751E-0001	
 1.83450000000000E+0003	 1.43645297026022E-0001	
 1.83650000000000E+0003	 1.43144627509294E-0001	
 1.83850000000000E+0003	 1.42651957992565E-0001	
 1.84050000000000E+0003	 1.41637788475836E-0001	
 1.84250000000000E+0003	 1.40485118959108E-0001	
 1.84450000000000E+0003	 1.39703449442379E-0001	
 1.84650000000000E+0003	 1.39182279925651E-0001	
 1.84850000000000E+0003	 1.39566610408922E-0001	
 1.85050000000000E+0003	 1.39916440892193E-0001	
 1.85250000000000E+0003	 1.39813271375465E-0001	
 1.85450000000000E+0003	 1.39411601858736E-0001	
 1.85650000000000E+0003	 1.38886432342007E-0001	
 1.85850000000000E+0003	 1.38314762825279E-0001	
 1.86050000000000E+0003	 1.37885093308550E-0001	
 1.86250000000000E+0003	 1.37596923791822E-0001	
 1.86450000000000E+0003	 1.37050254275093E-0001	
 1.86650000000000E+0003	 1.36122084758364E-0001	
 1.86850000000000E+0003	 1.35482915241636E-0001	
 1.87050000000000E+0003	 1.35486245724907E-0001	
 1.87250000000000E+0003	 1.35925576208178E-0001	
 1.87450000000000E+0003	 1.36089906691450E-0001	
 1.87650000000000E+0003	 1.35811737174721E-0001	
 1.87850000000000E+0003	 1.35480567657993E-0001	
 1.88050000000000E+0003	 1.35242898141264E-0001	
 1.88250000000000E+0003	 1.35011228624535E-0001	
 1.88450000000000E+0003	 1.34689059107807E-0001	
 1.88650000000000E+0003	 1.34234389591078E-0001	
 1.88850000000000E+0003	 1.33747220074349E-0001	
 1.89050000000000E+0003	 1.33504550557621E-0001	
 1.89250000000000E+0003	 1.33437381040892E-0001	
 1.89450000000000E+0003	 1.33265211524164E-0001	
 1.89650000000000E+0003	 1.33175542007435E-0001	
 1.89850000000000E+0003	 1.33215872490706E-0001	
 1.90050000000000E+0003	 1.33089202973978E-0001	
 1.90250000000000E+0003	 1.32906033457249E-0001	
 1.90450000000000E+0003	 1.32693363940520E-0001	
 1.90650000000000E+0003	 1.32269194423792E-0001	
 1.90850000000000E+0003	 1.31859524907063E-0001	
 1.91050000000000E+0003	 1.31853355390335E-0001	
 1.91250000000000E+0003	 1.32012185873606E-0001	
 1.91450000000000E+0003	 1.31798016356877E-0001	
 1.91650000000000E+0003	 1.31395346840149E-0001	
 1.91850000000000E+0003	 1.31065177323420E-0001	
 1.92050000000000E+0003	 1.30667507806691E-0001	
 1.92250000000000E+0003	 1.30481338289963E-0001	
 1.92450000000000E+0003	 1.30852668773234E-0001	
 1.92650000000000E+0003	 1.31302499256506E-0001	
 1.92850000000000E+0003	 1.31340329739777E-0001	
 1.93050000000000E+0003	 1.31209660223048E-0001	
 1.93250000000000E+0003	 1.31063990706320E-0001	
 1.93450000000000E+0003	 1.31004821189591E-0001	
 1.93650000000000E+0003	 1.31005151672862E-0001	
 1.93850000000000E+0003	 1.30947982156134E-0001	
 1.94050000000000E+0003	 1.30981812639405E-0001	
 1.94250000000000E+0003	 1.30989143122677E-0001	
 1.94450000000000E+0003	 1.30845973605948E-0001	
 1.94650000000000E+0003	 1.30716804089219E-0001	
 1.94850000000000E+0003	 1.30588634572491E-0001	
 1.95050000000000E+0003	 1.30526465055762E-0001	
 1.95250000000000E+0003	 1.30436295539033E-0001	
 1.95450000000000E+0003	 1.30329126022305E-0001	
 1.95650000000000E+0003	 1.30323956505576E-0001	
 1.95850000000000E+0003	 1.30350286988848E-0001	
 1.96050000000000E+0003	 1.30363617472119E-0001	
 1.96250000000000E+0003	 1.30384947955390E-0001	
 1.96450000000000E+0003	 1.30391778438662E-0001	
 1.96650000000000E+0003	 1.30414108921933E-0001	
 1.96850000000000E+0003	 1.30357439405204E-0001	
 1.97050000000000E+0003	 1.30287269888476E-0001	
 1.97250000000000E+0003	 1.30248600371747E-0001	
 1.97450000000000E+0003	 1.30219930855019E-0001	
 1.97650000000000E+0003	 1.30187761338290E-0001	
 1.97850000000000E+0003	 1.30163591821561E-0001	
 1.98050000000000E+0003	 1.30137922304833E-0001	
 1.98250000000000E+0003	 1.30121752788104E-0001	
 1.98450000000000E+0003	 1.30052083271375E-0001	
 1.98650000000000E+0003	 1.29837413754647E-0001	
 1.98850000000000E+0003	 1.29535244237918E-0001	
 1.99050000000000E+0003	 1.29246574721190E-0001	
 1.99250000000000E+0003	 1.30177405204461E-0001	
 1.99450000000000E+0003	 1.30107735687732E-0001	
 1.99650000000000E+0003	 1.30087066171004E-0001	
 1.99850000000000E+0003	 1.30100396654275E-0001	
 2.00050000000000E+0003	 1.30102227137546E-0001	
 2.00250000000000E+0003	 1.30127057620818E-0001	
 2.00450000000000E+0003	 1.30150388104089E-0001	
 2.00650000000000E+0003	 1.30154218587361E-0001	
 2.00850000000000E+0003	 1.30196049070632E-0001	
 2.01050000000000E+0003	 1.30291879553903E-0001	
 2.01250000000000E+0003	 1.30388710037175E-0001	
 2.01450000000000E+0003	 1.30485540520446E-0001	
 2.01650000000000E+0003	 1.30589371003717E-0001	
 2.01850000000000E+0003	 1.30651701486989E-0001	
 2.02050000000000E+0003	 1.30706531970260E-0001	
 2.02250000000000E+0003	 1.30790862453532E-0001	
 2.02450000000000E+0003	 1.30881692936803E-0001	
 2.02650000000000E+0003	 1.30945523420074E-0001	
 2.02850000000000E+0003	 1.31053853903346E-0001	
 2.03050000000000E+0003	 1.31152184386617E-0001	
 2.03250000000000E+0003	 1.31238014869888E-0001	
 2.03450000000000E+0003	 1.31323845353160E-0001	
 2.03650000000000E+0003	 1.31393175836431E-0001	
 2.03850000000000E+0003	 1.31375506319703E-0001	
 2.04050000000000E+0003	 1.31300836802974E-0001	
 2.04250000000000E+0003	 1.31420667286245E-0001	
 2.04450000000000E+0003	 1.31646497769517E-0001	
 2.04650000000000E+0003	 1.31780328252788E-0001	
 2.04850000000000E+0003	 1.31863158736059E-0001	
 2.05050000000000E+0003	 1.31929989219331E-0001	
 2.05250000000000E+0003	 1.31982319702602E-0001	
 2.05450000000000E+0003	 1.32030650185874E-0001	
 2.05650000000000E+0003	 1.32072480669145E-0001	
 2.05850000000000E+0003	 1.32103811152416E-0001	
 2.06050000000000E+0003	 1.32106141635688E-0001	
 2.06250000000000E+0003	 1.32001972118959E-0001	
 2.06450000000000E+0003	 1.31876302602230E-0001	
 2.06650000000000E+0003	 1.32025133085502E-0001	
 2.06850000000000E+0003	 1.32262963568773E-0001	
 2.07050000000000E+0003	 1.32352294052045E-0001	
 2.07250000000000E+0003	 1.32380624535316E-0001	
 2.07450000000000E+0003	 1.32414955018587E-0001	
 2.07650000000000E+0003	 1.32449285501859E-0001	
 2.07850000000000E+0003	 1.32480115985130E-0001	
 2.08050000000000E+0003	 1.32523446468401E-0001	
 2.08250000000000E+0003	 1.32563276951673E-0001	
 2.08450000000000E+0003	 1.32583107434944E-0001	
 2.08650000000000E+0003	 1.32555437918216E-0001	
 2.08850000000000E+0003	 1.32493268401487E-0001	
 2.09050000000000E+0003	 1.32517598884758E-0001	
 2.09250000000000E+0003	 1.32639929368030E-0001	
 2.09450000000000E+0003	 1.32713259851301E-0001	
 2.09650000000000E+0003	 1.32734590334572E-0001	
 2.09850000000000E+0003	 1.32746420817844E-0001	
 2.10050000000000E+0003	 1.32758251301115E-0001	
 2.10250000000000E+0003	 1.32771581784387E-0001	
 2.10450000000000E+0003	 1.32779412267658E-0001	
 2.10650000000000E+0003	 1.32777742750929E-0001	
 2.10850000000000E+0003	 1.32775573234201E-0001	
 2.11050000000000E+0003	 1.32768903717472E-0001	
 2.11250000000000E+0003	 1.32728234200743E-0001	
 2.11450000000000E+0003	 1.32683564684015E-0001	
 2.11650000000000E+0003	 1.32703395167286E-0001	
 2.11850000000000E+0003	 1.32732725650558E-0001	
 2.12050000000000E+0003	 1.32730556133829E-0001	
 2.12250000000000E+0003	 1.32713886617100E-0001	
 2.12450000000000E+0003	 1.32698717100372E-0001	
 2.12650000000000E+0003	 1.32685047583643E-0001	
 2.12850000000000E+0003	 1.32672878066914E-0001	
 2.13050000000000E+0003	 1.32654208550186E-0001	
 2.13250000000000E+0003	 1.32625539033457E-0001	
 2.13450000000000E+0003	 1.32565869516729E-0001	
 2.13650000000000E+0003	 1.32522700000000E-0001	
 2.13850000000000E+0003	 1.32521530483271E-0001	
 2.14050000000000E+0003	 1.32531360966543E-0001	
 2.14250000000000E+0003	 1.32520691449814E-0001	
 2.14450000000000E+0003	 1.32491521933086E-0001	
 2.14650000000000E+0003	 1.32461352416357E-0001	
 2.14850000000000E+0003	 1.32436682899628E-0001	
 2.15050000000000E+0003	 1.32399013382900E-0001	
 2.15250000000000E+0003	 1.32355843866171E-0001	
 2.15450000000000E+0003	 1.32314674349442E-0001	
 2.15650000000000E+0003	 1.32269504832714E-0001	
 2.15850000000000E+0003	 1.32208335315985E-0001	
 2.16050000000000E+0003	 1.32129665799257E-0001	
 2.16250000000000E+0003	 1.32060496282528E-0001	
 2.16450000000000E+0003	 1.32005826765799E-0001	
 2.16650000000000E+0003	 1.31946657249071E-0001	
 2.16850000000000E+0003	 1.31887487732342E-0001	
 2.17050000000000E+0003	 1.31812818215613E-0001	
 2.17250000000000E+0003	 1.31716648698885E-0001	
 2.17450000000000E+0003	 1.31626979182156E-0001	
 2.17650000000000E+0003	 1.31545809665428E-0001	
 2.17850000000000E+0003	 1.31462640148699E-0001	
 2.18050000000000E+0003	 1.31378970631970E-0001	
 2.18250000000000E+0003	 1.31295801115242E-0001	
 2.18450000000000E+0003	 1.31210131598513E-0001	
 2.18650000000000E+0003	 1.31127962081784E-0001	
 2.18850000000000E+0003	 1.31055792565056E-0001	
 2.19050000000000E+0003	 1.30985123048327E-0001	
 2.19250000000000E+0003	 1.30908453531599E-0001	
 2.19450000000000E+0003	 1.30832284014870E-0001	
 2.19650000000000E+0003	 1.30750114498141E-0001	
 2.19850000000000E+0003	 1.30665944981413E-0001	
 2.20050000000000E+0003	 1.30585275464684E-0001	
 2.20250000000000E+0003	 1.30507605947955E-0001	
 2.20450000000000E+0003	 1.30426436431227E-0001	
 2.20650000000000E+0003	 1.30350266914498E-0001	
 2.20850000000000E+0003	 1.30277597397770E-0001	
 2.21050000000000E+0003	 1.30201427881041E-0001	
 2.21250000000000E+0003	 1.30125258364312E-0001	
 2.21450000000000E+0003	 1.30052588847584E-0001	
 2.21650000000000E+0003	 1.29978919330855E-0001	
 2.21850000000000E+0003	 1.29907249814126E-0001	
 2.22050000000000E+0003	 1.29840080297398E-0001	
 2.22250000000000E+0003	 1.29774410780669E-0001	
 2.22450000000000E+0003	 1.29708241263941E-0001	
 2.22650000000000E+0003	 1.29643071747212E-0001	
 2.22850000000000E+0003	 1.29585402230483E-0001	
 2.23050000000000E+0003	 1.29529232713755E-0001	
 2.23250000000000E+0003	 1.29478063197026E-0001	
 2.23450000000000E+0003	 1.29430893680297E-0001	
 2.23650000000000E+0003	 1.29383724163569E-0001	
 2.23850000000000E+0003	 1.29337554646840E-0001	
 2.24050000000000E+0003	 1.29293885130112E-0001	
 2.24250000000000E+0003	 1.29252215613383E-0001	
 2.24450000000000E+0003	 1.29215046096654E-0001	
 2.24650000000000E+0003	 1.29177876579926E-0001	
 2.24850000000000E+0003	 1.29146707063197E-0001	
 2.25050000000000E+0003	 1.29117037546468E-0001	
 2.25250000000000E+0003	 1.29085368029740E-0001	
 2.25450000000000E+0003	 1.29049198513011E-0001	
 2.25650000000000E+0003	 1.29017028996283E-0001	
 2.25850000000000E+0003	 1.28989359479554E-0001	
 2.26050000000000E+0003	 1.28966189962825E-0001	
 2.26250000000000E+0003	 1.28939520446097E-0001	
 2.26450000000000E+0003	 1.28913350929368E-0001	
 2.26650000000000E+0003	 1.28890681412639E-0001	
 2.26850000000000E+0003	 1.28872511895911E-0001	
 2.27050000000000E+0003	 1.28857342379182E-0001	
 2.27250000000000E+0003	 1.28847672862454E-0001	
 2.27450000000000E+0003	 1.28839503345725E-0001	
 2.27650000000000E+0003	 1.28835833828996E-0001	
 2.27850000000000E+0003	 1.28831164312268E-0001	
 2.28050000000000E+0003	 1.28828994795539E-0001	
 2.28250000000000E+0003	 1.28828325278810E-0001	
 2.28450000000000E+0003	 1.28843155762082E-0001	
 2.28650000000000E+0003	 1.28875486245353E-0001	
 2.28850000000000E+0003	 1.28921316728625E-0001	
 2.29050000000000E+0003	 1.28969647211896E-0001	
 2.29250000000000E+0003	 1.29023477695167E-0001	
 2.29450000000000E+0003	 1.29079808178439E-0001	
 2.29650000000000E+0003	 1.29136638661710E-0001	
 2.29850000000000E+0003	 1.29186469144981E-0001	
 2.30050000000000E+0003	 1.29229299628253E-0001	
 2.30250000000000E+0003	 1.29253130111524E-0001	
 2.30450000000000E+0003	 1.29283460594796E-0001	
 2.30650000000000E+0003	 1.29346291078067E-0001	
 2.30850000000000E+0003	 1.29421121561338E-0001	
 2.31050000000000E+0003	 1.29466952044610E-0001	
 2.31250000000000E+0003	 1.29480282527881E-0001	
 2.31450000000000E+0003	 1.29506613011152E-0001	
 2.31650000000000E+0003	 1.29574443494424E-0001	
 2.31850000000000E+0003	 1.29645273977695E-0001	
 2.32050000000000E+0003	 1.29728604460967E-0001	
 2.32250000000000E+0003	 1.29807434944238E-0001	
 2.32450000000000E+0003	 1.29844765427509E-0001	
 2.32650000000000E+0003	 1.29863595910781E-0001	
 2.32850000000000E+0003	 1.29870426394052E-0001	
 2.33050000000000E+0003	 1.29862756877323E-0001	
 2.33250000000000E+0003	 1.29901087360595E-0001	
 2.33450000000000E+0003	 1.30021917843866E-0001	
 2.33650000000000E+0003	 1.30212248327138E-0001	
 2.33850000000000E+0003	 1.30384078810409E-0001	
 2.34050000000000E+0003	 1.30564909293680E-0001	
 2.34250000000000E+0003	 1.30727739776952E-0001	
 2.34450000000000E+0003	 1.30735070260223E-0001	
 2.34650000000000E+0003	 1.30592400743494E-0001	
 2.34850000000000E+0003	 1.30603731226766E-0001	
 2.35050000000000E+0003	 1.30681561710037E-0001	
 2.35250000000000E+0003	 1.30707392193309E-0001	
 2.35450000000000E+0003	 1.30774722676580E-0001	
 2.35650000000000E+0003	 1.30898053159851E-0001	
 2.35850000000000E+0003	 1.30986883643123E-0001	
 2.36050000000000E+0003	 1.31023714126394E-0001	
 2.36250000000000E+0003	 1.31086544609665E-0001	
 2.36450000000000E+0003	 1.31185375092937E-0001	
 2.36650000000000E+0003	 1.31286205576208E-0001	
 2.36850000000000E+0003	 1.31394536059480E-0001	
 2.37050000000000E+0003	 1.31466366542751E-0001	
 2.37250000000000E+0003	 1.31466197026022E-0001	
 2.37450000000000E+0003	 1.31434027509294E-0001	
 2.37650000000000E+0003	 1.31490857992565E-0001	
 2.37850000000000E+0003	 1.31673188475836E-0001	
 2.38050000000000E+0003	 1.31890018959108E-0001	
 2.38250000000000E+0003	 1.32037849442379E-0001	
 2.38450000000000E+0003	 1.32117679925651E-0001	
 2.38650000000000E+0003	 1.32183010408922E-0001	
 2.38850000000000E+0003	 1.32278340892193E-0001	
 2.39050000000000E+0003	 1.32404671375465E-0001	
 2.39250000000000E+0003	 1.32546001858736E-0001	
 2.39450000000000E+0003	 1.32695832342007E-0001	
 2.39650000000000E+0003	 1.32857162825279E-0001	
 2.39850000000000E+0003	 1.33027493308550E-0001	
 2.40050000000000E+0003	 1.33203823791822E-0001	
 2.40250000000000E+0003	 1.33382654275093E-0001	
 2.40450000000000E+0003	 1.33567484758364E-0001	
 2.40650000000000E+0003	 1.33758315241636E-0001	
 2.40850000000000E+0003	 1.33960145724907E-0001	
 2.41050000000000E+0003	 1.34166476208178E-0001	
 2.41250000000000E+0003	 1.34375806691450E-0001	
 2.41450000000000E+0003	 1.34590137174721E-0001	
 2.41650000000000E+0003	 1.34814967657993E-0001	
 2.41850000000000E+0003	 1.35044298141264E-0001	
 2.42050000000000E+0003	 1.35280128624535E-0001	
 2.42250000000000E+0003	 1.35519459107807E-0001	
 2.42450000000000E+0003	 1.35766789591078E-0001	
 2.42650000000000E+0003	 1.36018620074349E-0001	
 2.42850000000000E+0003	 1.36275950557621E-0001	
 2.43050000000000E+0003	 1.36535281040892E-0001	
 2.43250000000000E+0003	 1.36801111524164E-0001	
 2.43450000000000E+0003	 1.37071942007435E-0001	
 2.43650000000000E+0003	 1.37349272490706E-0001	
 2.43850000000000E+0003	 1.37621602973978E-0001	
 2.44050000000000E+0003	 1.37896433457249E-0001	
 2.44250000000000E+0003	 1.38170763940520E-0001	
 2.44450000000000E+0003	 1.38450594423792E-0001	
 2.44650000000000E+0003	 1.38726424907063E-0001	
 2.44850000000000E+0003	 1.39003255390335E-0001	
 2.45050000000000E+0003	 1.39284585873606E-0001	
 2.45250000000000E+0003	 1.39573416356877E-0001	
 2.45450000000000E+0003	 1.39863246840149E-0001	
 2.45650000000000E+0003	 1.40162077323420E-0001	
 2.45850000000000E+0003	 1.40461907806691E-0001	
 2.46050000000000E+0003	 1.40766738289963E-0001	
 2.46250000000000E+0003	 1.41075568773234E-0001	
 2.46450000000000E+0003	 1.41389899256506E-0001	
 2.46650000000000E+0003	 1.41704229739777E-0001	
 2.46850000000000E+0003	 1.42023060223048E-0001	
 2.47050000000000E+0003	 1.42341390706320E-0001	
 2.47250000000000E+0003	 1.42662221189591E-0001	
 2.47450000000000E+0003	 1.42984051672862E-0001	
 2.47650000000000E+0003	 1.43308882156134E-0001	
 2.47850000000000E+0003	 1.43629712639405E-0001	
 2.48050000000000E+0003	 1.43946543122677E-0001	
 2.48250000000000E+0003	 1.44259373605948E-0001	
 2.48450000000000E+0003	 1.44573704089219E-0001	
 2.48650000000000E+0003	 1.44879534572491E-0001	
 2.48850000000000E+0003	 1.45182865055762E-0001	
 2.49050000000000E+0003	 1.45485195539033E-0001	
 2.49250000000000E+0003	 1.45791026022305E-0001	
 2.49450000000000E+0003	 1.46089356505576E-0001	
 2.49650000000000E+0003	 1.46382186988848E-0001	
 2.49850000000000E+0003	 1.46670017472119E-0001	
 2.50050000000000E+0003	 1.46958847955390E-0001	
 2.50250000000000E+0003	 1.47247178438662E-0001	
 2.50450000000000E+0003	 1.47536508921933E-0001	
 2.50650000000000E+0003	 1.47824839405204E-0001	
 2.50850000000000E+0003	 1.48115669888476E-0001	
 2.51050000000000E+0003	 1.48404500371747E-0001	
 2.51250000000000E+0003	 1.48689830855019E-0001	
 2.51450000000000E+0003	 1.48967661338290E-0001	
 2.51650000000000E+0003	 1.49246491821561E-0001	
 2.51850000000000E+0003	 1.49526322304833E-0001	
 2.52050000000000E+0003	 1.49805652788104E-0001	
 2.52250000000000E+0003	 1.50081483271375E-0001	
 2.52450000000000E+0003	 1.50357813754647E-0001	
 2.52650000000000E+0003	 1.50640144237918E-0001	
 2.52850000000000E+0003	 1.50925974721190E-0001	
 2.53050000000000E+0003	 1.51211805204461E-0001	
 2.53250000000000E+0003	 1.51497635687732E-0001	
 2.53450000000000E+0003	 1.51776966171004E-0001	
 2.53650000000000E+0003	 1.52057296654275E-0001	
 2.53850000000000E+0003	 1.52341627137546E-0001	
 2.54050000000000E+0003	 1.52632457620818E-0001	
 2.54250000000000E+0003	 1.52921288104089E-0001	
 2.54450000000000E+0003	 1.53212118587361E-0001	
 2.54650000000000E+0003	 1.53502949070632E-0001	
 2.54850000000000E+0003	 1.53797779553903E-0001	
 2.55050000000000E+0003	 1.54095110037175E-0001	
 2.55250000000000E+0003	 1.54393440520446E-0001	
 2.55450000000000E+0003	 1.54687771003717E-0001	
 2.55650000000000E+0003	 1.54985101486989E-0001	
 2.55850000000000E+0003	 1.55282931970260E-0001	
 2.56050000000000E+0003	 1.55581262453532E-0001	
 2.56250000000000E+0003	 1.55877092936803E-0001	
 2.56450000000000E+0003	 1.56170923420074E-0001	
 2.56650000000000E+0003	 1.56463253903346E-0001	
 2.56850000000000E+0003	 1.56759584386617E-0001	
 2.57050000000000E+0003	 1.57065414869888E-0001	
 2.57250000000000E+0003	 1.57383745353160E-0001	
 2.57450000000000E+0003	 1.57709575836431E-0001	
 2.57650000000000E+0003	 1.58042906319703E-0001	
 2.57850000000000E+0003	 1.58386236802974E-0001	
 2.58050000000000E+0003	 1.58740567286245E-0001	
 2.58250000000000E+0003	 1.59106897769517E-0001	
 2.58450000000000E+0003	 1.59479228252788E-0001	
 2.58650000000000E+0003	 1.59859558736059E-0001	
 2.58850000000000E+0003	 1.60247889219331E-0001	
 2.59050000000000E+0003	 1.60642719702602E-0001	
 2.59250000000000E+0003	 1.61045050185874E-0001	
 2.59450000000000E+0003	 1.61457880669145E-0001	
 2.59650000000000E+0003	 1.61879711152416E-0001	
 2.59850000000000E+0003	 1.62309041635688E-0001	
 2.60050000000000E+0003	 1.62744372118959E-0001	
 2.60250000000000E+0003	 1.63187202602230E-0001	
 2.60450000000000E+0003	 1.63636033085502E-0001	
 2.60650000000000E+0003	 1.64089863568773E-0001	
 2.60850000000000E+0003	 1.64550194052045E-0001	
 2.61050000000000E+0003	 1.65018524535316E-0001	
 2.61250000000000E+0003	 1.65489855018587E-0001	
 2.61450000000000E+0003	 1.65964185501859E-0001	
 2.61650000000000E+0003	 1.66444515985130E-0001	
 2.61850000000000E+0003	 1.66930846468401E-0001	
 2.62050000000000E+0003	 1.67422176951673E-0001	
 2.62250000000000E+0003	 1.67916507434944E-0001	
 2.62450000000000E+0003	 1.68415337918216E-0001	
 2.62650000000000E+0003	 1.68920168401487E-0001	
 2.62850000000000E+0003	 1.69432498884758E-0001	
 2.63050000000000E+0003	 1.69951829368030E-0001	
 2.63250000000000E+0003	 1.70469659851301E-0001	
 2.63450000000000E+0003	 1.70989990334572E-0001	
 2.63650000000000E+0003	 1.71514820817844E-0001	
 2.63850000000000E+0003	 1.72043651301115E-0001	
 2.64050000000000E+0003	 1.72572481784387E-0001	
 2.64250000000000E+0003	 1.73103812267658E-0001	
 2.64450000000000E+0003	 1.73638142750929E-0001	
 2.64650000000000E+0003	 1.74170473234201E-0001	
 2.64850000000000E+0003	 1.74706303717472E-0001	
 2.65050000000000E+0003	 1.75247634200743E-0001	
 2.65250000000000E+0003	 1.75791464684015E-0001	
 2.65450000000000E+0003	 1.76333795167286E-0001	
 2.65650000000000E+0003	 1.76875625650558E-0001	
 2.65850000000000E+0003	 1.77419456133829E-0001	
 2.66050000000000E+0003	 1.77964286617100E-0001	
 2.66250000000000E+0003	 1.78505617100372E-0001	
 2.66450000000000E+0003	 1.79050947583643E-0001	
 2.66650000000000E+0003	 1.79597778066914E-0001	
 2.66850000000000E+0003	 1.80145108550186E-0001	
 2.67050000000000E+0003	 1.80686439033457E-0001	
 2.67250000000000E+0003	 1.81228769516729E-0001	
 2.67450000000000E+0003	 1.81765600000000E-0001	
 2.67650000000000E+0003	 1.82298930483271E-0001	
 2.67850000000000E+0003	 1.82828260966543E-0001	
 2.68050000000000E+0003	 1.83354591449814E-0001	
 2.68250000000000E+0003	 1.83872421933086E-0001	
 2.68450000000000E+0003	 1.84386752416357E-0001	
 2.68650000000000E+0003	 1.84899082899628E-0001	
 2.68850000000000E+0003	 1.85409913382900E-0001	
 2.69050000000000E+0003	 1.85913243866171E-0001	
 2.69250000000000E+0003	 1.86421074349442E-0001	
 2.69450000000000E+0003	 1.86932904832714E-0001	
 2.69650000000000E+0003	 1.87445235315985E-0001	
 2.69850000000000E+0003	 1.87962565799257E-0001	
 2.70050000000000E+0003	 1.88493896282528E-0001	
 2.70250000000000E+0003	 1.89031226765799E-0001	
 2.70450000000000E+0003	 1.89581057249071E-0001	
 2.70650000000000E+0003	 1.90146387732342E-0001	
 2.70850000000000E+0003	 1.90728218215613E-0001	
 2.71050000000000E+0003	 1.91324048698885E-0001	
 2.71250000000000E+0003	 1.91936379182156E-0001	
 2.71450000000000E+0003	 1.92560709665428E-0001	
 2.71650000000000E+0003	 1.93200040148699E-0001	
 2.71850000000000E+0003	 1.93849870631970E-0001	
 2.72050000000000E+0003	 1.94510701115242E-0001	
 2.72250000000000E+0003	 1.95174531598513E-0001	
 2.72450000000000E+0003	 1.95834862081784E-0001	
 2.72650000000000E+0003	 1.96496192565056E-0001	
 2.72850000000000E+0003	 1.97152023048327E-0001	
 2.73050000000000E+0003	 1.97794353531599E-0001	
 2.73250000000000E+0003	 1.98435184014870E-0001	
 2.73450000000000E+0003	 1.99071514498141E-0001	
 2.73650000000000E+0003	 1.99703344981413E-0001	
 2.73850000000000E+0003	 2.00323675464684E-0001	
 2.74050000000000E+0003	 2.00930505947955E-0001	
 2.74250000000000E+0003	 2.01532836431227E-0001	
 2.74450000000000E+0003	 2.02133166914498E-0001	
 2.74650000000000E+0003	 2.02733997397770E-0001	
 2.74850000000000E+0003	 2.03340827881041E-0001	
 2.75050000000000E+0003	 2.03946658364312E-0001	
 2.75250000000000E+0003	 2.04553988847584E-0001	
 2.75450000000000E+0003	 2.05169319330855E-0001	
 2.75650000000000E+0003	 2.05799649814126E-0001	
 2.75850000000000E+0003	 2.06449480297398E-0001	
 2.76050000000000E+0003	 2.07114310780669E-0001	
 2.76250000000000E+0003	 2.07789641263941E-0001	
 2.76450000000000E+0003	 2.08470971747212E-0001	
 2.76650000000000E+0003	 2.09159802230483E-0001	
 2.76850000000000E+0003	 2.09860132713755E-0001	
 2.77050000000000E+0003	 2.10572463197026E-0001	
 2.77250000000000E+0003	 2.11301293680297E-0001	
 2.77450000000000E+0003	 2.12056624163569E-0001	
 2.77650000000000E+0003	 2.12826454646840E-0001	
 2.77850000000000E+0003	 2.13603285130112E-0001	
 2.78050000000000E+0003	 2.14400615613383E-0001	
 2.78250000000000E+0003	 2.15226446096654E-0001	
 2.78450000000000E+0003	 2.16072276579926E-0001	
 2.78650000000000E+0003	 2.16933107063197E-0001	
 2.78850000000000E+0003	 2.17820937546468E-0001	
 2.79050000000000E+0003	 2.18734268029740E-0001	
 2.79250000000000E+0003	 2.19651598513011E-0001	
 2.79450000000000E+0003	 2.20581428996283E-0001	
 2.79650000000000E+0003	 2.21532759479554E-0001	
 2.79850000000000E+0003	 2.22512089962825E-0001	
 2.80050000000000E+0003	 2.23497420446097E-0001	
 2.80250000000000E+0003	 2.24488750929368E-0001	
 2.80450000000000E+0003	 2.25503581412639E-0001	
 2.80650000000000E+0003	 2.26540411895911E-0001	
 2.80850000000000E+0003	 2.27599742379182E-0001	
 2.81050000000000E+0003	 2.28691072862454E-0001	
 2.81250000000000E+0003	 2.29799403345725E-0001	
 2.81450000000000E+0003	 2.30927733828996E-0001	
 2.81650000000000E+0003	 2.32085564312268E-0001	
 2.81850000000000E+0003	 2.33274394795539E-0001	
 2.82050000000000E+0003	 2.34501225278810E-0001	
 2.82250000000000E+0003	 2.35773055762082E-0001	
 2.82450000000000E+0003	 2.37089886245353E-0001	
 2.82650000000000E+0003	 2.38457216728625E-0001	
 2.82850000000000E+0003	 2.39885547211896E-0001	
 2.83050000000000E+0003	 2.41390877695167E-0001	
 2.83250000000000E+0003	 2.42994708178439E-0001	
 2.83450000000000E+0003	 2.44724038661710E-0001	
 2.83650000000000E+0003	 2.46620369144981E-0001	
 2.83850000000000E+0003	 2.48769199628253E-0001	
 2.84050000000000E+0003	 2.51236530111524E-0001	
 2.84250000000000E+0003	 2.54144360594796E-0001	
 2.84450000000000E+0003	 2.57656191078067E-0001	
 2.84650000000000E+0003	 2.61803521561338E-0001	
 2.84850000000000E+0003	 2.66406352044610E-0001	
 2.85050000000000E+0003	 2.71014182527881E-0001	
 2.85250000000000E+0003	 2.75007513011152E-0001	
 2.85450000000000E+0003	 2.77894843494424E-0001	
 2.85650000000000E+0003	 2.79675173977695E-0001	
 2.85850000000000E+0003	 2.80811504460967E-0001	
 2.86050000000000E+0003	 2.81855834944238E-0001	
 2.86250000000000E+0003	 2.83210665427509E-0001	
 2.86450000000000E+0003	 2.85099995910781E-0001	
 2.86650000000000E+0003	 2.87525326394052E-0001	
 2.86850000000000E+0003	 2.90300156877323E-0001	
 2.87050000000000E+0003	 2.93148487360595E-0001	
 2.87250000000000E+0003	 2.95734317843866E-0001	
 2.87450000000000E+0003	 2.97690148327138E-0001	
 2.87650000000000E+0003	 2.98906478810409E-0001	
 2.87850000000000E+0003	 2.99604809293680E-0001	
 2.88050000000000E+0003	 3.00032639776952E-0001	
 2.88250000000000E+0003	 3.00400470260223E-0001	
 2.88450000000000E+0003	 3.00874300743494E-0001	
 2.88650000000000E+0003	 3.01550631226766E-0001	
 2.88850000000000E+0003	 3.02465961710037E-0001	
 2.89050000000000E+0003	 3.03609292193309E-0001	
 2.89250000000000E+0003	 3.04968622676580E-0001	
 2.89450000000000E+0003	 3.06535953159851E-0001	
 2.89650000000000E+0003	 3.08272783643123E-0001	
 2.89850000000000E+0003	 3.10151114126394E-0001	
 2.90050000000000E+0003	 3.12230944609665E-0001	
 2.90250000000000E+0003	 3.14571275092937E-0001	
 2.90450000000000E+0003	 3.17214105576208E-0001	
 2.90650000000000E+0003	 3.20209936059480E-0001	
 2.90850000000000E+0003	 3.23631266542751E-0001	
 2.91050000000000E+0003	 3.27528097026022E-0001	
 2.91250000000000E+0003	 3.31910927509294E-0001	
 2.91450000000000E+0003	 3.36685257992565E-0001	
 2.91650000000000E+0003	 3.41689588475836E-0001	
 2.91850000000000E+0003	 3.46711418959108E-0001	
 2.92050000000000E+0003	 3.51416749442379E-0001	
 2.92250000000000E+0003	 3.55469079925651E-0001	
 2.92450000000000E+0003	 3.58638910408922E-0001	
 2.92650000000000E+0003	 3.60887240892193E-0001	
 2.92850000000000E+0003	 3.62323071375465E-0001	
 2.93050000000000E+0003	 3.62962901858736E-0001	
 2.93250000000000E+0003	 3.62790232342007E-0001	
 2.93450000000000E+0003	 3.61852062825279E-0001	
 2.93650000000000E+0003	 3.60117393308550E-0001	
 2.93850000000000E+0003	 3.57593223791822E-0001	
 2.94050000000000E+0003	 3.54471054275093E-0001	
 2.94250000000000E+0003	 3.51090884758364E-0001	
 2.94450000000000E+0003	 3.47763715241636E-0001	
 2.94650000000000E+0003	 3.44751545724907E-0001	
 2.94850000000000E+0003	 3.42330876208178E-0001	
 2.95050000000000E+0003	 3.40746706691450E-0001	
 2.95250000000000E+0003	 3.40001037174721E-0001	
 2.95450000000000E+0003	 3.39769867657993E-0001	
 2.95650000000000E+0003	 3.39743698141264E-0001	
 2.95850000000000E+0003	 3.39614528624535E-0001	
 2.96050000000000E+0003	 3.39089359107807E-0001	
 2.96250000000000E+0003	 3.37972689591078E-0001	
 2.96450000000000E+0003	 3.36194020074349E-0001	
 2.96650000000000E+0003	 3.33836350557621E-0001	
 2.96850000000000E+0003	 3.31058681040892E-0001	
 2.97050000000000E+0003	 3.28046511524164E-0001	
 2.97250000000000E+0003	 3.24993842007435E-0001	
 2.97450000000000E+0003	 3.21972672490706E-0001	
 2.97650000000000E+0003	 3.18992502973978E-0001	
 2.97850000000000E+0003	 3.16119333457249E-0001	
 2.98050000000000E+0003	 3.13361163940520E-0001	
 2.98250000000000E+0003	 3.10681994423792E-0001	
 2.98450000000000E+0003	 3.08149824907063E-0001	
 2.98650000000000E+0003	 3.05852155390335E-0001	
 2.98850000000000E+0003	 3.03805985873606E-0001	
 2.99050000000000E+0003	 3.02033816356877E-0001	
 2.99250000000000E+0003	 3.00532146840149E-0001	
 2.99450000000000E+0003	 2.99267477323420E-0001	
 2.99650000000000E+0003	 2.98322807806691E-0001	
 2.99850000000000E+0003	 2.97719638289963E-0001	
 3.00050000000000E+0003	 2.97410968773234E-0001	
 3.00250000000000E+0003	 2.97419799256506E-0001	
 3.00450000000000E+0003	 2.97720629739777E-0001	
 3.00650000000000E+0003	 2.98254460223048E-0001	
 3.00850000000000E+0003	 2.99028290706320E-0001	
 3.01050000000000E+0003	 3.00061621189591E-0001	
 3.01250000000000E+0003	 3.01279451672862E-0001	
 3.01450000000000E+0003	 3.02595782156134E-0001	
 3.01650000000000E+0003	 3.04003612639405E-0001	
 3.01850000000000E+0003	 3.05561943122677E-0001	
 3.02050000000000E+0003	 3.07296273605948E-0001	
 3.02250000000000E+0003	 3.09184104089219E-0001	
 3.02450000000000E+0003	 3.11203434572491E-0001	
 3.02650000000000E+0003	 3.13273765055762E-0001	
 3.02850000000000E+0003	 3.15353595539033E-0001	
 3.03050000000000E+0003	 3.17461926022305E-0001	
 3.03250000000000E+0003	 3.19590756505576E-0001	
 3.03450000000000E+0003	 3.21735086988848E-0001	
 3.03650000000000E+0003	 3.23869917472119E-0001	
 3.03850000000000E+0003	 3.26041247955390E-0001	
 3.04050000000000E+0003	 3.28316078438662E-0001	
 3.04250000000000E+0003	 3.30650408921933E-0001	
 3.04450000000000E+0003	 3.32982239405204E-0001	
 3.04650000000000E+0003	 3.35310569888476E-0001	
 3.04850000000000E+0003	 3.37673900371747E-0001	
 3.05050000000000E+0003	 3.40102730855019E-0001	
 3.05250000000000E+0003	 3.42541561338290E-0001	
 3.05450000000000E+0003	 3.44962891821561E-0001	
 3.05650000000000E+0003	 3.47367222304833E-0001	
 3.05850000000000E+0003	 3.49696052788104E-0001	
 3.06050000000000E+0003	 3.51926383271375E-0001	
 3.06250000000000E+0003	 3.54063213754647E-0001	
 3.06450000000000E+0003	 3.56108044237918E-0001	
 3.06650000000000E+0003	 3.58075374721190E-0001	
 3.06850000000000E+0003	 3.59950705204461E-0001	
 3.07050000000000E+0003	 3.61722035687732E-0001	
 3.07250000000000E+0003	 3.63446866171004E-0001	
 3.07450000000000E+0003	 3.65148196654275E-0001	
 3.07650000000000E+0003	 3.66831027137546E-0001	
 3.07850000000000E+0003	 3.68503857620818E-0001	
 3.08050000000000E+0003	 3.70132188104089E-0001	
 3.08250000000000E+0003	 3.71710018587361E-0001	
 3.08450000000000E+0003	 3.73270349070632E-0001	
 3.08650000000000E+0003	 3.74780679553903E-0001	
 3.08850000000000E+0003	 3.76245510037175E-0001	
 3.09050000000000E+0003	 3.77695340520446E-0001	
 3.09250000000000E+0003	 3.79103171003717E-0001	
 3.09450000000000E+0003	 3.80481001486989E-0001	
 3.09650000000000E+0003	 3.81874831970260E-0001	
 3.09850000000000E+0003	 3.83297162453532E-0001	
 3.10050000000000E+0003	 3.84765992936803E-0001	
 3.10250000000000E+0003	 3.86257823420074E-0001	
 3.10450000000000E+0003	 3.87764153903346E-0001	
 3.10650000000000E+0003	 3.89335484386617E-0001	
 3.10850000000000E+0003	 3.90998814869888E-0001	
 3.11050000000000E+0003	 3.92692645353160E-0001	
 3.11250000000000E+0003	 3.94424975836431E-0001	
 3.11450000000000E+0003	 3.96287806319703E-0001	
 3.11650000000000E+0003	 3.98268636802974E-0001	
 3.11850000000000E+0003	 4.00288967286245E-0001	
 3.12050000000000E+0003	 4.02339797769517E-0001	
 3.12250000000000E+0003	 4.04413628252788E-0001	
 3.12450000000000E+0003	 4.06564458736059E-0001	
 3.12650000000000E+0003	 4.08842289219331E-0001	
 3.12850000000000E+0003	 4.11221119702602E-0001	
 3.13050000000000E+0003	 4.13644450185874E-0001	
 3.13250000000000E+0003	 4.16109780669145E-0001	
 3.13450000000000E+0003	 4.18654611152416E-0001	
 3.13650000000000E+0003	 4.21301441635688E-0001	
 3.13850000000000E+0003	 4.24041772118959E-0001	
 3.14050000000000E+0003	 4.26771602602230E-0001	
 3.14250000000000E+0003	 4.29485933085502E-0001	
 3.14450000000000E+0003	 4.32292763568773E-0001	
 3.14650000000000E+0003	 4.35201594052045E-0001	
 3.14850000000000E+0003	 4.38212424535316E-0001	
 3.15050000000000E+0003	 4.41367255018587E-0001	
 3.15250000000000E+0003	 4.44551585501859E-0001	
 3.15450000000000E+0003	 4.47627415985130E-0001	
 3.15650000000000E+0003	 4.50719746468401E-0001	
 3.15850000000000E+0003	 4.53929576951673E-0001	
 3.16050000000000E+0003	 4.57218907434944E-0001	
 3.16250000000000E+0003	 4.60551737918216E-0001	
 3.16450000000000E+0003	 4.63917068401487E-0001	
 3.16650000000000E+0003	 4.67305898884758E-0001	
 3.16850000000000E+0003	 4.70708729368030E-0001	
 3.17050000000000E+0003	 4.74123059851301E-0001	
 3.17250000000000E+0003	 4.77545890334572E-0001	
 3.17450000000000E+0003	 4.80962720817844E-0001	
 3.17650000000000E+0003	 4.84380551301115E-0001	
 3.17850000000000E+0003	 4.87808381784387E-0001	
 3.18050000000000E+0003	 4.91207712267658E-0001	
 3.18250000000000E+0003	 4.94567542750929E-0001	
 3.18450000000000E+0003	 4.97912373234201E-0001	
 3.18650000000000E+0003	 5.01233203717472E-0001	
 3.18850000000000E+0003	 5.04516534200743E-0001	
 3.19050000000000E+0003	 5.07745364684015E-0001	
 3.19250000000000E+0003	 5.10921695167286E-0001	
 3.19450000000000E+0003	 5.14047025650558E-0001	
 3.19650000000000E+0003	 5.17132856133829E-0001	
 3.19850000000000E+0003	 5.20185686617100E-0001	
 3.20050000000000E+0003	 5.23193017100372E-0001	
 3.20250000000000E+0003	 5.26153347583643E-0001	
 3.20450000000000E+0003	 5.29083678066914E-0001	
 3.20650000000000E+0003	 5.31968508550186E-0001	
 3.20850000000000E+0003	 5.34810839033457E-0001	
 3.21050000000000E+0003	 5.37640169516729E-0001	
 3.21250000000000E+0003	 5.40479000000000E-0001	
 3.21450000000000E+0003	 5.43316830483271E-0001	
 3.21650000000000E+0003	 5.46131660966543E-0001	
 3.21850000000000E+0003	 5.48946491449814E-0001	
 3.22050000000000E+0003	 5.51761321933086E-0001	
 3.22250000000000E+0003	 5.54573652416357E-0001	
 3.22450000000000E+0003	 5.57416482899628E-0001	
 3.22650000000000E+0003	 5.60292313382900E-0001	
 3.22850000000000E+0003	 5.63229643866171E-0001	
 3.23050000000000E+0003	 5.66283474349442E-0001	
 3.23250000000000E+0003	 5.69443804832714E-0001	
 3.23450000000000E+0003	 5.72515635315985E-0001	
 3.23650000000000E+0003	 5.75515465799257E-0001	
 3.23850000000000E+0003	 5.78643296282528E-0001	
 3.24050000000000E+0003	 5.81918126765799E-0001	
 3.24250000000000E+0003	 5.85295457249071E-0001	
 3.24450000000000E+0003	 5.88799787732342E-0001	
 3.24650000000000E+0003	 5.92382618215613E-0001	
 3.24850000000000E+0003	 5.95937448698885E-0001	
 3.25050000000000E+0003	 5.99497779182156E-0001	
 3.25250000000000E+0003	 6.03179609665428E-0001	
 3.25450000000000E+0003	 6.06983440148699E-0001	
 3.25650000000000E+0003	 6.10796770631970E-0001	
 3.25850000000000E+0003	 6.14566101115242E-0001	
 3.26050000000000E+0003	 6.18358431598513E-0001	
 3.26250000000000E+0003	 6.22162262081784E-0001	
 3.26450000000000E+0003	 6.25942592565056E-0001	
 3.26650000000000E+0003	 6.29672423048327E-0001	
 3.26850000000000E+0003	 6.33361753531599E-0001	
 3.27050000000000E+0003	 6.36965084014870E-0001	
 3.27250000000000E+0003	 6.40377414498141E-0001	
 3.27450000000000E+0003	 6.43601744981413E-0001	
 3.27650000000000E+0003	 6.46696575464684E-0001	
 3.27850000000000E+0003	 6.49644405947955E-0001	
 3.28050000000000E+0003	 6.52437736431227E-0001	
 3.28250000000000E+0003	 6.55063566914498E-0001	
 3.28450000000000E+0003	 6.57526397397770E-0001	
 3.28650000000000E+0003	 6.59809727881041E-0001	
 3.28850000000000E+0003	 6.61927058364312E-0001	
 3.29050000000000E+0003	 6.63898888847584E-0001	
 3.29250000000000E+0003	 6.65707719330855E-0001	
 3.29450000000000E+0003	 6.67306549814126E-0001	
 3.29650000000000E+0003	 6.68714380297398E-0001	
 3.29850000000000E+0003	 6.69962210780669E-0001	
 3.30050000000000E+0003	 6.71102541263941E-0001	
 3.30250000000000E+0003	 6.72169371747212E-0001	
 3.30450000000000E+0003	 6.73172202230483E-0001	
 3.30650000000000E+0003	 6.74034532713755E-0001	
 3.30850000000000E+0003	 6.74719863197026E-0001	
 3.31050000000000E+0003	 6.75279193680297E-0001	
 3.31250000000000E+0003	 6.75804024163569E-0001	
 3.31450000000000E+0003	 6.76312354646840E-0001	
 3.31650000000000E+0003	 6.76787685130112E-0001	
 3.31850000000000E+0003	 6.77231015613383E-0001	
 3.32050000000000E+0003	 6.77653846096654E-0001	
 3.32250000000000E+0003	 6.78067676579926E-0001	
 3.32450000000000E+0003	 6.78504507063197E-0001	
 3.32650000000000E+0003	 6.78916837546468E-0001	
 3.32850000000000E+0003	 6.79287168029740E-0001	
 3.33050000000000E+0003	 6.79672498513011E-0001	
 3.33250000000000E+0003	 6.80088828996283E-0001	
 3.33450000000000E+0003	 6.80528659479554E-0001	
 3.33650000000000E+0003	 6.81039489962825E-0001	
 3.33850000000000E+0003	 6.81547820446097E-0001	
 3.34050000000000E+0003	 6.81985150929368E-0001	
 3.34250000000000E+0003	 6.82409981412639E-0001	
 3.34450000000000E+0003	 6.82840311895911E-0001	
 3.34650000000000E+0003	 6.83275142379182E-0001	
 3.34850000000000E+0003	 6.83803972862454E-0001	
 3.35050000000000E+0003	 6.84335303345725E-0001	
 3.35250000000000E+0003	 6.84725133828996E-0001	
 3.35450000000000E+0003	 6.85068964312268E-0001	
 3.35650000000000E+0003	 6.85492294795539E-0001	
 3.35850000000000E+0003	 6.85963625278810E-0001	
 3.36050000000000E+0003	 6.86431955762082E-0001	
 3.36250000000000E+0003	 6.86846786245353E-0001	
 3.36450000000000E+0003	 6.87319116728625E-0001	
 3.36650000000000E+0003	 6.87903447211896E-0001	
 3.36850000000000E+0003	 6.88434277695167E-0001	
 3.37050000000000E+0003	 6.88719608178439E-0001	
 3.37250000000000E+0003	 6.88871438661710E-0001	
 3.37450000000000E+0003	 6.89116769144981E-0001	
 3.37650000000000E+0003	 6.89454599628253E-0001	
 3.37850000000000E+0003	 6.89774930111524E-0001	
 3.38050000000000E+0003	 6.90061760594796E-0001	
 3.38250000000000E+0003	 6.90301091078067E-0001	
 3.38450000000000E+0003	 6.90543421561338E-0001	
 3.38650000000000E+0003	 6.90824752044610E-0001	
 3.38850000000000E+0003	 6.91239082527881E-0001	
 3.39050000000000E+0003	 6.91743913011152E-0001	
 3.39250000000000E+0003	 6.91988743494424E-0001	
 3.39450000000000E+0003	 6.91925073977695E-0001	
 3.39650000000000E+0003	 6.92001404460967E-0001	
 3.39850000000000E+0003	 6.92420234944238E-0001	
 3.40050000000000E+0003	 6.92756565427509E-0001	
 3.40250000000000E+0003	 6.92537895910781E-0001	
 3.40450000000000E+0003	 6.92120726394052E-0001	
 3.40650000000000E+0003	 6.91958056877323E-0001	
 3.40850000000000E+0003	 6.91947387360595E-0001	
 3.41050000000000E+0003	 6.91845217843866E-0001	
 3.41250000000000E+0003	 6.91617048327138E-0001	
 3.41450000000000E+0003	 6.91204378810409E-0001	
 3.41650000000000E+0003	 6.90718209293680E-0001	
 3.41850000000000E+0003	 6.90280039776952E-0001	
 3.42050000000000E+0003	 6.89831870260223E-0001	
 3.42250000000000E+0003	 6.89275200743494E-0001	
 3.42450000000000E+0003	 6.88692031226766E-0001	
 3.42650000000000E+0003	 6.88166861710037E-0001	
 3.42850000000000E+0003	 6.87645692193309E-0001	
 3.43050000000000E+0003	 6.86938522676580E-0001	
 3.43250000000000E+0003	 6.86162853159851E-0001	
 3.43450000000000E+0003	 6.85454683643123E-0001	
 3.43650000000000E+0003	 6.84482014126394E-0001	
 3.43850000000000E+0003	 6.83081344609665E-0001	
 3.44050000000000E+0003	 6.81603675092937E-0001	
 3.44250000000000E+0003	 6.80282505576208E-0001	
 3.44450000000000E+0003	 6.79031336059480E-0001	
 3.44650000000000E+0003	 6.77748166542751E-0001	
 3.44850000000000E+0003	 6.76347997026022E-0001	
 3.45050000000000E+0003	 6.74847827509294E-0001	
 3.45250000000000E+0003	 6.73344157992565E-0001	
 3.45450000000000E+0003	 6.71788988475836E-0001	
 3.45650000000000E+0003	 6.70227318959108E-0001	
 3.45850000000000E+0003	 6.68693649442379E-0001	
 3.46050000000000E+0003	 6.67018479925651E-0001	
 3.46250000000000E+0003	 6.65172310408922E-0001	
 3.46450000000000E+0003	 6.63515640892193E-0001	
 3.46650000000000E+0003	 6.62089471375465E-0001	
 3.46850000000000E+0003	 6.60331301858736E-0001	
 3.47050000000000E+0003	 6.57894632342007E-0001	
 3.47250000000000E+0003	 6.55300462825279E-0001	
 3.47450000000000E+0003	 6.52989293308550E-0001	
 3.47650000000000E+0003	 6.50931123791822E-0001	
 3.47850000000000E+0003	 6.48963954275093E-0001	
 3.48050000000000E+0003	 6.46681284758364E-0001	
 3.48250000000000E+0003	 6.44085615241636E-0001	
 3.48450000000000E+0003	 6.41671445724907E-0001	
 3.48650000000000E+0003	 6.39366276208178E-0001	
 3.48850000000000E+0003	 6.36873106691450E-0001	
 3.49050000000000E+0003	 6.34307937174721E-0001	
 3.49250000000000E+0003	 6.31851267657993E-0001	
 3.49450000000000E+0003	 6.29434098141264E-0001	
 3.49650000000000E+0003	 6.26956428624535E-0001	
 3.49850000000000E+0003	 6.24351759107807E-0001	
 3.50050000000000E+0003	 6.21789089591078E-0001	
 3.50250000000000E+0003	 6.19165420074349E-0001	
 3.50450000000000E+0003	 6.16176250557621E-0001	
 3.50650000000000E+0003	 6.13118581040892E-0001	
 3.50850000000000E+0003	 6.10260911524164E-0001	
 3.51050000000000E+0003	 6.07549242007435E-0001	
 3.51250000000000E+0003	 6.04934572490706E-0001	
 3.51450000000000E+0003	 6.02127902973978E-0001	
 3.51650000000000E+0003	 5.99066733457249E-0001	
 3.51850000000000E+0003	 5.96031063940520E-0001	
 3.52050000000000E+0003	 5.93189894423792E-0001	
 3.52250000000000E+0003	 5.90465724907063E-0001	
 3.52450000000000E+0003	 5.87406555390335E-0001	
 3.52650000000000E+0003	 5.84020885873606E-0001	
 3.52850000000000E+0003	 5.80754216356877E-0001	
 3.53050000000000E+0003	 5.77610046840149E-0001	
 3.53250000000000E+0003	 5.74538877323420E-0001	
 3.53450000000000E+0003	 5.71561207806691E-0001	
 3.53650000000000E+0003	 5.68409038289963E-0001	
 3.53850000000000E+0003	 5.64948368773234E-0001	
 3.54050000000000E+0003	 5.61639199256506E-0001	
 3.54250000000000E+0003	 5.58565529739777E-0001	
 3.54450000000000E+0003	 5.55287860223048E-0001	
 3.54650000000000E+0003	 5.51461190706320E-0001	
 3.54850000000000E+0003	 5.47495521189591E-0001	
 3.55050000000000E+0003	 5.43826351672862E-0001	
 3.55250000000000E+0003	 5.40159182156134E-0001	
 3.55450000000000E+0003	 5.36351512639405E-0001	
 3.55650000000000E+0003	 5.32624343122677E-0001	
 3.55850000000000E+0003	 5.28948673605948E-0001	
 3.56050000000000E+0003	 5.25198504089219E-0001	
 3.56250000000000E+0003	 5.21281834572491E-0001	
 3.56450000000000E+0003	 5.17230665055762E-0001	
 3.56650000000000E+0003	 5.13145995539033E-0001	
 3.56850000000000E+0003	 5.09050326022305E-0001	
 3.57050000000000E+0003	 5.05058656505576E-0001	
 3.57250000000000E+0003	 5.01064486988848E-0001	
 3.57450000000000E+0003	 4.96951317472119E-0001	
 3.57650000000000E+0003	 4.92816147955390E-0001	
 3.57850000000000E+0003	 4.88718978438662E-0001	
 3.58050000000000E+0003	 4.84690808921933E-0001	
 3.58250000000000E+0003	 4.80725139405204E-0001	
 3.58450000000000E+0003	 4.76664969888476E-0001	
 3.58650000000000E+0003	 4.72165800371747E-0001	
 3.58850000000000E+0003	 4.67304130855019E-0001	
 3.59050000000000E+0003	 4.62822961338290E-0001	
 3.59250000000000E+0003	 4.58696791821561E-0001	
 3.59450000000000E+0003	 4.54350122304833E-0001	
 3.59650000000000E+0003	 4.49937952788104E-0001	
 3.59850000000000E+0003	 4.45706783271375E-0001	
 3.60050000000000E+0003	 4.41421113754647E-0001	
 3.60250000000000E+0003	 4.37026444237918E-0001	
 3.60450000000000E+0003	 4.32678274721190E-0001	
 3.60650000000000E+0003	 4.28252605204461E-0001	
 3.60850000000000E+0003	 4.23646435687732E-0001	
 3.61050000000000E+0003	 4.19036266171004E-0001	
 3.61250000000000E+0003	 4.14712096654275E-0001	
 3.61450000000000E+0003	 4.10476927137546E-0001	
 3.61650000000000E+0003	 4.06177257620818E-0001	
 3.61850000000000E+0003	 4.01863088104089E-0001	
 3.62050000000000E+0003	 3.97481418587361E-0001	
 3.62250000000000E+0003	 3.93256249070632E-0001	
 3.62450000000000E+0003	 3.89201579553903E-0001	
 3.62650000000000E+0003	 3.84947910037175E-0001	
 3.62850000000000E+0003	 3.80460740520446E-0001	
 3.63050000000000E+0003	 3.75773071003717E-0001	
 3.63250000000000E+0003	 3.71817901486989E-0001	
 3.63450000000000E+0003	 3.68107731970260E-0001	
 3.63650000000000E+0003	 3.64092062453532E-0001	
 3.63850000000000E+0003	 3.60118892936803E-0001	
 3.64050000000000E+0003	 3.56180723420074E-0001	
 3.64250000000000E+0003	 3.52319553903346E-0001	
 3.64450000000000E+0003	 3.48499884386617E-0001	
 3.64650000000000E+0003	 3.44692214869888E-0001	
 3.64850000000000E+0003	 3.40899045353160E-0001	
 3.65050000000000E+0003	 3.37040875836431E-0001	
 3.65250000000000E+0003	 3.33367706319703E-0001	
 3.65450000000000E+0003	 3.30023536802974E-0001	
 3.65650000000000E+0003	 3.26768367286245E-0001	
 3.65850000000000E+0003	 3.23471697769517E-0001	
 3.66050000000000E+0003	 3.20373528252788E-0001	
 3.66250000000000E+0003	 3.17204858736059E-0001	
 3.66450000000000E+0003	 3.14069189219331E-0001	
 3.66650000000000E+0003	 3.11072519702602E-0001	
 3.66850000000000E+0003	 3.08118850185874E-0001	
 3.67050000000000E+0003	 3.05275680669145E-0001	
 3.67250000000000E+0003	 3.02466511152416E-0001	
 3.67450000000000E+0003	 3.00063841635688E-0001	
 3.67650000000000E+0003	 2.97629172118959E-0001	
 3.67850000000000E+0003	 2.95230502602230E-0001	
 3.68050000000000E+0003	 2.93286833085502E-0001	
 3.68250000000000E+0003	 2.91270163568773E-0001	
 3.68450000000000E+0003	 2.89280994052045E-0001	
 3.68650000000000E+0003	 2.87319824535316E-0001	
 3.68850000000000E+0003	 2.85566155018587E-0001	
 3.69050000000000E+0003	 2.83720485501859E-0001	
 3.69250000000000E+0003	 2.81964815985130E-0001	
 3.69450000000000E+0003	 2.80427646468401E-0001	
 3.69650000000000E+0003	 2.78992476951673E-0001	
 3.69850000000000E+0003	 2.77496807434944E-0001	
 3.70050000000000E+0003	 2.76080137918216E-0001	
 3.70250000000000E+0003	 2.74789468401487E-0001	
 3.70450000000000E+0003	 2.73495798884758E-0001	
 3.70650000000000E+0003	 2.72282129368030E-0001	
 3.70850000000000E+0003	 2.71081459851301E-0001	
 3.71050000000000E+0003	 2.69955790334572E-0001	
 3.71250000000000E+0003	 2.68884620817844E-0001	
 3.71450000000000E+0003	 2.67838451301115E-0001	
 3.71650000000000E+0003	 2.66949781784387E-0001	
 3.71850000000000E+0003	 2.66091112267658E-0001	
 3.72050000000000E+0003	 2.65174442750929E-0001	
 3.72250000000000E+0003	 2.64321273234201E-0001	
 3.72450000000000E+0003	 2.63437103717472E-0001	
 3.72650000000000E+0003	 2.62589934200743E-0001	
 3.72850000000000E+0003	 2.61697264684015E-0001	
 3.73050000000000E+0003	 2.60836595167286E-0001	
 3.73250000000000E+0003	 2.60159425650558E-0001	
 3.73450000000000E+0003	 2.59477756133829E-0001	
 3.73650000000000E+0003	 2.58848586617100E-0001	
 3.73850000000000E+0003	 2.58169417100372E-0001	
 3.74050000000000E+0003	 2.57505247583643E-0001	
 3.74250000000000E+0003	 2.56544578066914E-0001	
 3.74450000000000E+0003	 2.55848408550186E-0001	
 3.74650000000000E+0003	 2.54993739033457E-0001	
 3.74850000000000E+0003	 2.54334569516729E-0001	
 3.75050000000000E+0003	 2.53895900000000E-0001	
 3.75250000000000E+0003	 2.53372230483271E-0001	
 3.75450000000000E+0003	 2.52938560966543E-0001	
 3.75650000000000E+0003	 2.52547891449814E-0001	
 3.75850000000000E+0003	 2.52131721933086E-0001	
 3.76050000000000E+0003	 2.51658552416357E-0001	
 3.76250000000000E+0003	 2.51085382899628E-0001	
 3.76450000000000E+0003	 2.50601213382900E-0001	
 3.76650000000000E+0003	 2.50131543866171E-0001	
 3.76850000000000E+0003	 2.49603874349442E-0001	
 3.77050000000000E+0003	 2.49215204832714E-0001	
 3.77250000000000E+0003	 2.48713035315985E-0001	
 3.77450000000000E+0003	 2.48277365799257E-0001	
 3.77650000000000E+0003	 2.47860196282528E-0001	
 3.77850000000000E+0003	 2.47520526765799E-0001	
 3.78050000000000E+0003	 2.47136357249071E-0001	
 3.78250000000000E+0003	 2.46587687732342E-0001	
 3.78450000000000E+0003	 2.46195018215613E-0001	
 3.78650000000000E+0003	 2.45834848698885E-0001	
 3.78850000000000E+0003	 2.45459179182156E-0001	
 3.79050000000000E+0003	 2.45107009665428E-0001	
 3.79250000000000E+0003	 2.44711340148699E-0001	
 3.79450000000000E+0003	 2.44268170631970E-0001	
 3.79650000000000E+0003	 2.43937001115242E-0001	
 3.79850000000000E+0003	 2.43394331598513E-0001	
 3.80050000000000E+0003	 2.42989162081784E-0001	
 3.80250000000000E+0003	 2.42814992565056E-0001	
 3.80450000000000E+0003	 2.42357323048327E-0001	
 3.80650000000000E+0003	 2.42173653531599E-0001	
 3.80850000000000E+0003	 2.41929984014870E-0001	
 3.81050000000000E+0003	 2.41607314498141E-0001	
 3.81250000000000E+0003	 2.41278644981413E-0001	
 3.81450000000000E+0003	 2.40854975464684E-0001	
 3.81650000000000E+0003	 2.40675305947955E-0001	
 3.81850000000000E+0003	 2.40270636431227E-0001	
 3.82050000000000E+0003	 2.40158966914498E-0001	
 3.82250000000000E+0003	 2.39977797397770E-0001	
 3.82450000000000E+0003	 2.39581127881041E-0001	
 3.82650000000000E+0003	 2.39473958364312E-0001	
 3.82850000000000E+0003	 2.39242288847584E-0001	
 3.83050000000000E+0003	 2.38949119330855E-0001	
 3.83250000000000E+0003	 2.38725949814126E-0001	
 3.83450000000000E+0003	 2.38408280297398E-0001	
 3.83650000000000E+0003	 2.38119610780669E-0001	
 3.83850000000000E+0003	 2.37918941263941E-0001	
 3.84050000000000E+0003	 2.37709271747212E-0001	
 3.84250000000000E+0003	 2.37595602230483E-0001	
 3.84450000000000E+0003	 2.37513932713755E-0001	
 3.84650000000000E+0003	 2.37308263197026E-0001	
 3.84850000000000E+0003	 2.36992093680297E-0001	
 3.85050000000000E+0003	 2.36430424163569E-0001	
 3.85250000000000E+0003	 2.36107754646840E-0001	
 3.85450000000000E+0003	 2.35910585130112E-0001	
 3.85650000000000E+0003	 2.35797915613383E-0001	
 3.85850000000000E+0003	 2.35960246096654E-0001	
 3.86050000000000E+0003	 2.35909076579926E-0001	
 3.86250000000000E+0003	 2.35721407063197E-0001	
 3.86450000000000E+0003	 2.35608237546468E-0001	
 3.86650000000000E+0003	 2.35381068029740E-0001	
 3.86850000000000E+0003	 2.35107398513011E-0001	
 3.87050000000000E+0003	 2.35063728996283E-0001	
 3.87250000000000E+0003	 2.34848559479554E-0001	
 3.87450000000000E+0003	 2.34869889962825E-0001	
 3.87650000000000E+0003	 2.34760220446097E-0001	
 3.87850000000000E+0003	 2.34554550929368E-0001	
 3.88050000000000E+0003	 2.34536881412639E-0001	
 3.88250000000000E+0003	 2.34365211895911E-0001	
 3.88450000000000E+0003	 2.34250042379182E-0001	
 3.88650000000000E+0003	 2.34199872862454E-0001	
 3.88850000000000E+0003	 2.33893203345725E-0001	
 3.89050000000000E+0003	 2.33817033828996E-0001	
 3.89250000000000E+0003	 2.33796864312268E-0001	
 3.89450000000000E+0003	 2.33668694795539E-0001	
 3.89650000000000E+0003	 2.33579025278810E-0001	
 3.89850000000000E+0003	 2.33522355762082E-0001	
 3.90050000000000E+0003	 2.33407186245353E-0001	
 3.90250000000000E+0003	 2.33194516728625E-0001	
 3.90450000000000E+0003	 2.33124847211896E-0001	
 3.90650000000000E+0003	 2.33085677695167E-0001	
 3.90850000000000E+0003	 2.33075008178439E-0001	
 3.91050000000000E+0003	 2.33068838661710E-0001	
 3.91250000000000E+0003	 2.33029169144981E-0001	
 3.91450000000000E+0003	 2.32961499628253E-0001	
 3.91650000000000E+0003	 2.32915830111524E-0001	
 3.91850000000000E+0003	 2.32818160594796E-0001	
 3.92050000000000E+0003	 2.32724991078067E-0001	
 3.92250000000000E+0003	 2.32657821561338E-0001	
 3.92450000000000E+0003	 2.32646652044610E-0001	
 3.92650000000000E+0003	 2.32600482527881E-0001	
 3.92850000000000E+0003	 2.32542313011152E-0001	
 3.93050000000000E+0003	 2.32537143494424E-0001	
 3.93250000000000E+0003	 2.32504973977695E-0001	
 3.93450000000000E+0003	 2.32428804460967E-0001	
 3.93650000000000E+0003	 2.32361134944238E-0001	
 3.93850000000000E+0003	 2.32312965427509E-0001	
 3.94050000000000E+0003	 2.32229295910781E-0001	
 3.94250000000000E+0003	 2.32193626394052E-0001	
 3.94450000000000E+0003	 2.32128956877323E-0001	
 3.94650000000000E+0003	 2.32043287360595E-0001	
 3.94850000000000E+0003	 2.31992117843866E-0001	
 3.95050000000000E+0003	 2.31935448327138E-0001	
 3.95250000000000E+0003	 2.31886278810409E-0001	
 3.95450000000000E+0003	 2.31837609293680E-0001	
 3.95650000000000E+0003	 2.31781939776952E-0001	
 3.95850000000000E+0003	 2.31730270260223E-0001	
 3.96050000000000E+0003	 2.31677100743494E-0001	
 3.96250000000000E+0003	 2.31624431226766E-0001	
 3.96450000000000E+0003	 2.31564261710037E-0001	
 3.96650000000000E+0003	 2.31516592193309E-0001	
 3.96850000000000E+0003	 2.31470422676580E-0001	
 3.97050000000000E+0003	 2.31418753159851E-0001	
 3.97250000000000E+0003	 2.31373583643123E-0001	
 3.97450000000000E+0003	 2.31337414126394E-0001	
 3.97650000000000E+0003	 2.31291744609665E-0001	
 3.97850000000000E+0003	 2.31237075092937E-0001	
 3.98050000000000E+0003	 2.31197905576208E-0001	
 3.98250000000000E+0003	 2.31187236059480E-0001	
 3.98450000000000E+0003	 2.31158066542751E-0001	
 3.98650000000000E+0003	 2.31088897026022E-0001	
 3.98850000000000E+0003	 2.31012227509294E-0001	
 3.99050000000000E+0003	 2.30958557992565E-0001	
 3.99250000000000E+0003	 2.30908888475836E-0001	
 3.99450000000000E+0003	 2.30879218959108E-0001	
 3.99650000000000E+0003	 2.30843049442379E-0001	
 3.99850000000000E+0003	 2.30806879925651E-0001	

>1	DATALINE
