*CPCWIN*

>1	DATALINE
DATALINE
1
Operator:

Description:

Remarks:





15.9.2008
10:54


_x	_y
	
	
UNIT	UNIT
 4.50500000000000E+0002	 1.17939885187939E-0001	
 4.52500000000000E+0002	 1.18093617389508E-0001	
 4.54500000000000E+0002	 1.18344849591078E-0001	
 4.56500000000000E+0002	 1.18395081792648E-0001	
 4.58500000000000E+0002	 1.18562813994217E-0001	
 4.60500000000000E+0002	 1.19294546195787E-0001	
 4.62500000000000E+0002	 1.19963778397356E-0001	
 4.64500000000000E+0002	 1.20627510598926E-0001	
 4.66500000000000E+0002	 1.20849242800496E-0001	
 4.68500000000000E+0002	 1.20995475002065E-0001	
 4.70500000000000E+0002	 1.21376707203635E-0001	
 4.72500000000000E+0002	 1.21814439405204E-0001	
 4.74500000000000E+0002	 1.22451171606774E-0001	
 4.76500000000000E+0002	 1.23060403808344E-0001	
 4.78500000000000E+0002	 1.23571136009913E-0001	
 4.80500000000000E+0002	 1.24108368211483E-0001	
 4.82500000000000E+0002	 1.24643100413052E-0001	
 4.84500000000000E+0002	 1.25147832614622E-0001	
 4.86500000000000E+0002	 1.25707564816192E-0001	
 4.88500000000000E+0002	 1.26439797017761E-0001	
 4.90500000000000E+0002	 1.26999029219331E-0001	
 4.92500000000000E+0002	 1.27630261420900E-0001	
 4.94500000000000E+0002	 1.28502493622470E-0001	
 4.96500000000000E+0002	 1.29344725824040E-0001	
 4.98500000000000E+0002	 1.30034958025609E-0001	
 5.00500000000000E+0002	 1.30688190227179E-0001	
 5.02500000000000E+0002	 1.31384422428748E-0001	
 5.04500000000000E+0002	 1.31893654630318E-0001	
 5.06500000000000E+0002	 1.32429386831888E-0001	
 5.08500000000000E+0002	 1.32996619033457E-0001	
 5.10500000000000E+0002	 1.33571351235027E-0001	
 5.12500000000000E+0002	 1.34260583436596E-0001	
 5.14500000000000E+0002	 1.34923815638166E-0001	
 5.16500000000000E+0002	 1.35547547839736E-0001	
 5.18500000000000E+0002	 1.36364280041305E-0001	
 5.20500000000000E+0002	 1.37390512242875E-0001	
 5.22500000000000E+0002	 1.38308744444444E-0001	
 5.24500000000000E+0002	 1.38756476646014E-0001	
 5.26500000000000E+0002	 1.39153208847584E-0001	
 5.28500000000000E+0002	 1.40036441049153E-0001	
 5.30500000000000E+0002	 1.40985673250723E-0001	
 5.32500000000000E+0002	 1.41570405452292E-0001	
 5.34500000000000E+0002	 1.41792137653862E-0001	
 5.36500000000000E+0002	 1.41813369855432E-0001	
 5.38500000000000E+0002	 1.41748102057001E-0001	
 5.40500000000000E+0002	 1.41608834258571E-0001	
 5.42500000000000E+0002	 1.41460066460140E-0001	
 5.44500000000000E+0002	 1.41325298661710E-0001	
 5.46500000000000E+0002	 1.41236030863280E-0001	
 5.48500000000000E+0002	 1.41208763064849E-0001	
 5.50500000000000E+0002	 1.41285495266419E-0001	
 5.52500000000000E+0002	 1.41356227467988E-0001	
 5.54500000000000E+0002	 1.41263959669558E-0001	
 5.56500000000000E+0002	 1.41037191871128E-0001	
 5.58500000000000E+0002	 1.40824424072697E-0001	
 5.60500000000000E+0002	 1.40549156274267E-0001	
 5.62500000000000E+0002	 1.40189388475836E-0001	
 5.64500000000000E+0002	 1.39771120677406E-0001	
 5.66500000000000E+0002	 1.39419352878976E-0001	
 5.68500000000000E+0002	 1.39127085080545E-0001	
 5.70500000000000E+0002	 1.38901317282115E-0001	
 5.72500000000000E+0002	 1.38705049483684E-0001	
 5.74500000000000E+0002	 1.38487781685254E-0001	
 5.76500000000000E+0002	 1.38254513886824E-0001	
 5.78500000000000E+0002	 1.38192246088393E-0001	
 5.80500000000000E+0002	 1.38048478289963E-0001	
 5.82500000000000E+0002	 1.37902210491532E-0001	
 5.84500000000000E+0002	 1.37708442693102E-0001	
 5.86500000000000E+0002	 1.37573674894672E-0001	
 5.88500000000000E+0002	 1.37451407096241E-0001	
 5.90500000000000E+0002	 1.37302139297811E-0001	
 5.92500000000000E+0002	 1.37199371499380E-0001	
 5.94500000000000E+0002	 1.37328603700950E-0001	
 5.96500000000000E+0002	 1.37483835902520E-0001	
 5.98500000000000E+0002	 1.37596068104089E-0001	
 6.00500000000000E+0002	 1.37663800305659E-0001	
 6.02500000000000E+0002	 1.37830532507228E-0001	
 6.04500000000000E+0002	 1.37852764708798E-0001	
 6.06500000000000E+0002	 1.37777496910368E-0001	
 6.08500000000000E+0002	 1.37601729111937E-0001	
 6.10500000000000E+0002	 1.37412961313507E-0001	
 6.12500000000000E+0002	 1.37174193515076E-0001	
 6.14500000000000E+0002	 1.36964925716646E-0001	
 6.16500000000000E+0002	 1.36723657918216E-0001	
 6.18500000000000E+0002	 1.36532390119785E-0001	
 6.20500000000000E+0002	 1.36309622321355E-0001	
 6.22500000000000E+0002	 1.36081854522924E-0001	
 6.24500000000000E+0002	 1.35761086724494E-0001	
 6.26500000000000E+0002	 1.35469318926064E-0001	
 6.28500000000000E+0002	 1.35216051127633E-0001	
 6.30500000000000E+0002	 1.34944283329203E-0001	
 6.32500000000000E+0002	 1.34572515530772E-0001	
 6.34500000000000E+0002	 1.34192747732342E-0001	
 6.36500000000000E+0002	 1.33896979933912E-0001	
 6.38500000000000E+0002	 1.33683712135481E-0001	
 6.40500000000000E+0002	 1.33412944337051E-0001	
 6.42500000000000E+0002	 1.33159676538620E-0001	
 6.44500000000000E+0002	 1.32909408740190E-0001	
 6.46500000000000E+0002	 1.32678640941760E-0001	
 6.48500000000000E+0002	 1.32417873143329E-0001	
 6.50500000000000E+0002	 1.32098605344899E-0001	
 6.52500000000000E+0002	 1.31730337546468E-0001	
 6.54500000000000E+0002	 1.31442569748038E-0001	
 6.56500000000000E+0002	 1.31199801949608E-0001	
 6.58500000000000E+0002	 1.30931534151177E-0001	
 6.60500000000000E+0002	 1.30664766352747E-0001	
 6.62500000000000E+0002	 1.30427998554316E-0001	
 6.64500000000000E+0002	 1.30092230755886E-0001	
 6.66500000000000E+0002	 1.29995462957456E-0001	
 6.68500000000000E+0002	 1.29905695159025E-0001	
 6.70500000000000E+0002	 1.28940927360595E-0001	
 6.72500000000000E+0002	 1.28665659562164E-0001	
 6.74500000000000E+0002	 1.28363391763734E-0001	
 6.76500000000000E+0002	 1.27987623965304E-0001	
 6.78500000000000E+0002	 1.27577356166873E-0001	
 6.80500000000000E+0002	 1.27162588368443E-0001	
 6.82500000000000E+0002	 1.26733320570012E-0001	
 6.84500000000000E+0002	 1.26340552771582E-0001	
 6.86500000000000E+0002	 1.25966784973152E-0001	
 6.88500000000000E+0002	 1.25595517174721E-0001	
 6.90500000000000E+0002	 1.25265249376291E-0001	
 6.92500000000000E+0002	 1.25018481577860E-0001	
 6.94500000000000E+0002	 1.24779213779430E-0001	
 6.96500000000000E+0002	 1.24607945981000E-0001	
 6.98500000000000E+0002	 1.24473178182569E-0001	
 7.00500000000000E+0002	 1.24293410384139E-0001	
 7.02500000000000E+0002	 1.23952142585708E-0001	
 7.04500000000000E+0002	 1.23516874787278E-0001	
 7.06500000000000E+0002	 1.23065606988848E-0001	
 7.08500000000000E+0002	 1.22621839190417E-0001	
 7.10500000000000E+0002	 1.22163571391987E-0001	
 7.12500000000000E+0002	 1.21691803593556E-0001	
 7.14500000000000E+0002	 1.21114035795126E-0001	
 7.16500000000000E+0002	 1.20465267996696E-0001	
 7.18500000000000E+0002	 1.19790000198265E-0001	
 7.20500000000000E+0002	 1.19114232399835E-0001	
 7.22500000000000E+0002	 1.18443964601404E-0001	
 7.24500000000000E+0002	 1.17627196802974E-0001	
 7.26500000000000E+0002	 1.16614929004544E-0001	
 7.28500000000000E+0002	 1.15500661206113E-0001	
 7.30500000000000E+0002	 1.14382393407683E-0001	
 7.32500000000000E+0002	 1.13360125609252E-0001	
 7.34500000000000E+0002	 1.12475357810822E-0001	
 7.36500000000000E+0002	 1.11720090012392E-0001	
 7.38500000000000E+0002	 1.11055322213961E-0001	
 7.40500000000000E+0002	 1.10448054415531E-0001	
 7.42500000000000E+0002	 1.09915786617100E-0001	
 7.44500000000000E+0002	 1.09424018818670E-0001	
 7.46500000000000E+0002	 1.08954751020240E-0001	
 7.48500000000000E+0002	 1.08508483221809E-0001	
 7.50500000000000E+0002	 1.08113215423379E-0001	
 7.52500000000000E+0002	 1.07799447624948E-0001	
 7.54500000000000E+0002	 1.07598179826518E-0001	
 7.56500000000000E+0002	 1.07501912028088E-0001	
 7.58500000000000E+0002	 1.07499644229657E-0001	
 7.60500000000000E+0002	 1.07602876431227E-0001	
 7.62500000000000E+0002	 1.07777108632796E-0001	
 7.64500000000000E+0002	 1.07822340834366E-0001	
 7.66500000000000E+0002	 1.07450073035936E-0001	
 7.68500000000000E+0002	 1.06577305237505E-0001	
 7.70500000000000E+0002	 1.05498037439075E-0001	
 7.72500000000000E+0002	 1.04561769640644E-0001	
 7.74500000000000E+0002	 1.04040001842214E-0001	
 7.76500000000000E+0002	 1.04130734043784E-0001	
 7.78500000000000E+0002	 1.04626966245353E-0001	
 7.80500000000000E+0002	 1.04741698446923E-0001	
 7.82500000000000E+0002	 1.04113430648492E-0001	
 7.84500000000000E+0002	 1.03225162850062E-0001	
 7.86500000000000E+0002	 1.02410895051632E-0001	
 7.88500000000000E+0002	 1.01588627253201E-0001	
 7.90500000000000E+0002	 1.00800359454771E-0001	
 7.92500000000000E+0002	 1.00298591656340E-0001	
 7.94500000000000E+0002	 1.00100823857910E-0001	
 7.96500000000000E+0002	 9.98540560594796E-0002	
 7.98500000000000E+0002	 9.93147882610492E-0002	
 8.00500000000000E+0002	 9.86240204626188E-0002	
 8.02500000000000E+0002	 9.80047526641884E-0002	
 8.04500000000000E+0002	 9.75719848657580E-0002	
 8.06500000000000E+0002	 9.72942170673276E-0002	
 8.08500000000000E+0002	 9.70944492688971E-0002	
 8.10500000000000E+0002	 9.68681814704667E-0002	
 8.12500000000000E+0002	 9.65254136720363E-0002	
 8.14500000000000E+0002	 9.60276458736059E-0002	
 8.16500000000000E+0002	 9.54193780751755E-0002	
 8.18500000000000E+0002	 9.47861102767451E-0002	
 8.20500000000000E+0002	 9.42038424783147E-0002	
 8.22500000000000E+0002	 9.37190746798843E-0002	
 8.24500000000000E+0002	 9.33578068814539E-0002	
 8.26500000000000E+0002	 9.30850390830235E-0002	
 8.28500000000000E+0002	 9.28767712845931E-0002	
 8.30500000000000E+0002	 9.27545034861627E-0002	
 8.32500000000000E+0002	 9.27107356877323E-0002	
 8.34500000000000E+0002	 9.27409678893019E-0002	
 8.36500000000000E+0002	 9.28217000908715E-0002	
 8.38500000000000E+0002	 9.29239322924411E-0002	
 8.40500000000000E+0002	 9.30216644940107E-0002	
 8.42500000000000E+0002	 9.31013966955803E-0002	
 8.44500000000000E+0002	 9.31186288971499E-0002	
 8.46500000000000E+0002	 9.30903610987195E-0002	
 8.48500000000000E+0002	 9.30655933002891E-0002	
 8.50500000000000E+0002	 9.31203255018587E-0002	
 8.52500000000000E+0002	 9.32970577034283E-0002	
 8.54500000000000E+0002	 9.35732899049979E-0002	
 8.56500000000000E+0002	 9.38440221065675E-0002	
 8.58500000000000E+0002	 9.39952543081371E-0002	
 8.60500000000000E+0002	 9.39259865097067E-0002	
 8.62500000000000E+0002	 9.35892187112763E-0002	
 8.64500000000000E+0002	 9.29899509128459E-0002	
 8.66500000000000E+0002	 9.22101831144155E-0002	
 8.68500000000000E+0002	 9.14574153159851E-0002	
 8.70500000000000E+0002	 9.09826475175547E-0002	
 8.72500000000000E+0002	 9.06088797191243E-0002	
 8.74500000000000E+0002	 8.99701119206939E-0002	
 8.76500000000000E+0002	 8.92693441222635E-0002	
 8.78500000000000E+0002	 8.87580763238331E-0002	
 8.80500000000000E+0002	 8.84228085254027E-0002	
 8.82500000000000E+0002	 8.81535407269723E-0002	
 8.84500000000000E+0002	 8.78702729285419E-0002	
 8.86500000000000E+0002	 8.75200051301115E-0002	
 8.88500000000000E+0002	 8.71602373316811E-0002	
 8.90500000000000E+0002	 8.68044695332507E-0002	
 8.92500000000000E+0002	 8.64547017348203E-0002	
 8.94500000000000E+0002	 8.60984339363899E-0002	
 8.96500000000000E+0002	 8.58056661379595E-0002	
 8.98500000000000E+0002	 8.56048983395291E-0002	
 9.00500000000000E+0002	 8.55926305410987E-0002	
 9.02500000000000E+0002	 8.58478627426683E-0002	
 9.04500000000000E+0002	 8.64655949442379E-0002	
 9.06500000000000E+0002	 8.74148271458075E-0002	
 9.08500000000000E+0002	 8.86325593473771E-0002	
 9.10500000000000E+0002	 8.99017915489467E-0002	
 9.12500000000000E+0002	 9.10145237505163E-0002	
 9.14500000000000E+0002	 9.17147559520859E-0002	
 9.16500000000000E+0002	 9.19044881536555E-0002	
 9.18500000000000E+0002	 9.15442203552251E-0002	
 9.20500000000000E+0002	 9.07734525567947E-0002	
 9.22500000000000E+0002	 8.97576847583643E-0002	
 9.24500000000000E+0002	 8.87089169599339E-0002	
 9.26500000000000E+0002	 8.77111491615035E-0002	
 9.28500000000000E+0002	 8.68623813630731E-0002	
 9.30500000000000E+0002	 8.61581135646427E-0002	
 9.32500000000000E+0002	 8.56113457662123E-0002	
 9.34500000000000E+0002	 8.51555779677819E-0002	
 9.36500000000000E+0002	 8.47903101693515E-0002	
 9.38500000000000E+0002	 8.44810423709211E-0002	
 9.40500000000000E+0002	 8.42702745724907E-0002	
 9.42500000000000E+0002	 8.41755067740603E-0002	
 9.44500000000000E+0002	 8.42482389756299E-0002	
 9.46500000000000E+0002	 8.44904711771995E-0002	
 9.48500000000000E+0002	 8.49207033787691E-0002	
 9.50500000000000E+0002	 8.55389355803387E-0002	
 9.52500000000000E+0002	 8.63866677819083E-0002	
 9.54500000000000E+0002	 8.74753999834779E-0002	
 9.56500000000000E+0002	 8.88211321850475E-0002	
 9.58500000000000E+0002	 9.03733643866171E-0002	
 9.60500000000000E+0002	 9.20535965881867E-0002	
 9.62500000000000E+0002	 9.37558287897563E-0002	
 9.64500000000000E+0002	 9.53735609913259E-0002	
 9.66500000000000E+0002	 9.68267931928955E-0002	
 9.68500000000000E+0002	 9.80905253944651E-0002	
 9.70500000000000E+0002	 9.91712575960347E-0002	
 9.72500000000000E+0002	 1.00168989797604E-0001	
 9.74500000000000E+0002	 1.01281721999174E-0001	
 9.76500000000000E+0002	 1.02770954200743E-0001	
 9.78500000000000E+0002	 1.04925186402313E-0001	
 9.80500000000000E+0002	 1.07898918603883E-0001	
 9.82500000000000E+0002	 1.11621150805452E-0001	
 9.84500000000000E+0002	 1.15799383007022E-0001	
 9.86500000000000E+0002	 1.20000615208591E-0001	
 9.88500000000000E+0002	 1.23791847410161E-0001	
 9.90500000000000E+0002	 1.26938079611731E-0001	
 9.92500000000000E+0002	 1.29457811813300E-0001	
 9.94500000000000E+0002	 1.31583544014870E-0001	
 9.96500000000000E+0002	 1.33659276216439E-0001	
 9.98500000000000E+0002	 1.36010008418009E-0001	
 1.00050000000000E+0003	 1.38825240619579E-0001	
 1.00250000000000E+0003	 1.42113472821148E-0001	
 1.00450000000000E+0003	 1.45715205022718E-0001	
 1.00650000000000E+0003	 1.49451437224287E-0001	
 1.00850000000000E+0003	 1.53170669425857E-0001	
 1.01050000000000E+0003	 1.56777401627427E-0001	
 1.01250000000000E+0003	 1.60238633828996E-0001	
 1.01450000000000E+0003	 1.63524366030566E-0001	
 1.01650000000000E+0003	 1.66532098232135E-0001	
 1.01850000000000E+0003	 1.69142330433705E-0001	
 1.02050000000000E+0003	 1.71265562635275E-0001	
 1.02250000000000E+0003	 1.72933294836844E-0001	
 1.02450000000000E+0003	 1.74295527038414E-0001	
 1.02650000000000E+0003	 1.75558759239983E-0001	
 1.02850000000000E+0003	 1.76863991441553E-0001	
 1.03050000000000E+0003	 1.78213223643123E-0001	
 1.03250000000000E+0003	 1.79525955844692E-0001	
 1.03450000000000E+0003	 1.80795188046262E-0001	
 1.03650000000000E+0003	 1.81948920247831E-0001	
 1.03850000000000E+0003	 1.82877652449401E-0001	
 1.04050000000000E+0003	 1.83638884650971E-0001	
 1.04250000000000E+0003	 1.84406616852540E-0001	
 1.04450000000000E+0003	 1.85337849054110E-0001	
 1.04650000000000E+0003	 1.86559081255679E-0001	
 1.04850000000000E+0003	 1.88074313457249E-0001	
 1.05050000000000E+0003	 1.89689545658819E-0001	
 1.05250000000000E+0003	 1.91013277860388E-0001	
 1.05450000000000E+0003	 1.91730510061958E-0001	
 1.05650000000000E+0003	 1.91713742263527E-0001	
 1.05850000000000E+0003	 1.91088474465097E-0001	
 1.06050000000000E+0003	 1.90096706666667E-0001	
 1.06250000000000E+0003	 1.89122438868236E-0001	
 1.06450000000000E+0003	 1.88570671069806E-0001	
 1.06650000000000E+0003	 1.88792903271375E-0001	
 1.06850000000000E+0003	 1.89838135472945E-0001	
 1.07050000000000E+0003	 1.91556367674515E-0001	
 1.07250000000000E+0003	 1.93625099876084E-0001	
 1.07450000000000E+0003	 1.95756832077654E-0001	
 1.07650000000000E+0003	 1.97635564279223E-0001	
 1.07850000000000E+0003	 1.99039296480793E-0001	
 1.08050000000000E+0003	 1.99751028682363E-0001	
 1.08250000000000E+0003	 1.99669760883932E-0001	
 1.08450000000000E+0003	 1.98629993085502E-0001	
 1.08650000000000E+0003	 1.96531225287071E-0001	
 1.08850000000000E+0003	 1.93354957488641E-0001	
 1.09050000000000E+0003	 1.89462189690211E-0001	
 1.09250000000000E+0003	 1.85517421891780E-0001	
 1.09450000000000E+0003	 1.82198154093350E-0001	
 1.09650000000000E+0003	 1.79680386294919E-0001	
 1.09850000000000E+0003	 1.77754618496489E-0001	
 1.10050000000000E+0003	 1.76032850698059E-0001	
 1.10250000000000E+0003	 1.74266082899628E-0001	
 1.10450000000000E+0003	 1.72351815101198E-0001	
 1.10650000000000E+0003	 1.70386547302767E-0001	
 1.10850000000000E+0003	 1.68536279504337E-0001	
 1.11050000000000E+0003	 1.66971511705907E-0001	
 1.11250000000000E+0003	 1.65704743907476E-0001	
 1.11450000000000E+0003	 1.64601976109046E-0001	
 1.11650000000000E+0003	 1.63460208310615E-0001	
 1.11850000000000E+0003	 1.62141440512185E-0001	
 1.12050000000000E+0003	 1.60557672713755E-0001	
 1.12250000000000E+0003	 1.58710904915324E-0001	
 1.12450000000000E+0003	 1.56664137116894E-0001	
 1.12650000000000E+0003	 1.54499369318463E-0001	
 1.12850000000000E+0003	 1.52278601520033E-0001	
 1.13050000000000E+0003	 1.50020833721603E-0001	
 1.13250000000000E+0003	 1.47799565923172E-0001	
 1.13450000000000E+0003	 1.45689298124742E-0001	
 1.13650000000000E+0003	 1.43758530326311E-0001	
 1.13850000000000E+0003	 1.42098262527881E-0001	
 1.14050000000000E+0003	 1.40806494729451E-0001	
 1.14250000000000E+0003	 1.39920726931020E-0001	
 1.14450000000000E+0003	 1.39397959132590E-0001	
 1.14650000000000E+0003	 1.39057191334159E-0001	
 1.14850000000000E+0003	 1.38672423535729E-0001	
 1.15050000000000E+0003	 1.37990655737299E-0001	
 1.15250000000000E+0003	 1.36870387938868E-0001	
 1.15450000000000E+0003	 1.35290120140438E-0001	
 1.15650000000000E+0003	 1.33378352342007E-0001	
 1.15850000000000E+0003	 1.31286584543577E-0001	
 1.16050000000000E+0003	 1.29105816745147E-0001	
 1.16250000000000E+0003	 1.26809548946716E-0001	
 1.16450000000000E+0003	 1.24374281148286E-0001	
 1.16650000000000E+0003	 1.21820013349855E-0001	
 1.16850000000000E+0003	 1.19249245551425E-0001	
 1.17050000000000E+0003	 1.16743477752995E-0001	
 1.17250000000000E+0003	 1.14343209954564E-0001	
 1.17450000000000E+0003	 1.12025442156134E-0001	
 1.17650000000000E+0003	 1.09831174357703E-0001	
 1.17850000000000E+0003	 1.07851406559273E-0001	
 1.18050000000000E+0003	 1.06179138760843E-0001	
 1.18250000000000E+0003	 1.04850370962412E-0001	
 1.18450000000000E+0003	 1.03913603163982E-0001	
 1.18650000000000E+0003	 1.03393335365551E-0001	
 1.18850000000000E+0003	 1.03301067567121E-0001	
 1.19050000000000E+0003	 1.03605299768691E-0001	
 1.19250000000000E+0003	 1.04270031970260E-0001	
 1.19450000000000E+0003	 1.05260764171830E-0001	
 1.19650000000000E+0003	 1.06524996373399E-0001	
 1.19850000000000E+0003	 1.07995728574969E-0001	
 1.20050000000000E+0003	 1.09615460776539E-0001	
 1.20250000000000E+0003	 1.11327692978108E-0001	
 1.20450000000000E+0003	 1.13086925179678E-0001	
 1.20650000000000E+0003	 1.14857657381247E-0001	
 1.20850000000000E+0003	 1.16605889582817E-0001	
 1.21050000000000E+0003	 1.18286621784387E-0001	
 1.21250000000000E+0003	 1.19852353985956E-0001	
 1.21450000000000E+0003	 1.21221086187526E-0001	
 1.21650000000000E+0003	 1.22605318389095E-0001	
 1.21850000000000E+0003	 1.24572550590665E-0001	
 1.22050000000000E+0003	 1.26813782792235E-0001	
 1.22250000000000E+0003	 1.28316014993804E-0001	
 1.22450000000000E+0003	 1.29107247195374E-0001	
 1.22650000000000E+0003	 1.29796479396943E-0001	
 1.22850000000000E+0003	 1.30630211598513E-0001	
 1.23050000000000E+0003	 1.31606443800083E-0001	
 1.23250000000000E+0003	 1.32652176001652E-0001	
 1.23450000000000E+0003	 1.33660908203222E-0001	
 1.23650000000000E+0003	 1.34545640404791E-0001	
 1.23850000000000E+0003	 1.35218372606361E-0001	
 1.24050000000000E+0003	 1.35605604807931E-0001	
 1.24250000000000E+0003	 1.35662837009500E-0001	
 1.24450000000000E+0003	 1.35406569211070E-0001	
 1.24650000000000E+0003	 1.34878301412639E-0001	
 1.24850000000000E+0003	 1.34098533614209E-0001	
 1.25050000000000E+0003	 1.33099265815779E-0001	
 1.25250000000000E+0003	 1.31930998017348E-0001	
 1.25450000000000E+0003	 1.30624730218918E-0001	
 1.25650000000000E+0003	 1.29234962420487E-0001	
 1.25850000000000E+0003	 1.27803194622057E-0001	
 1.26050000000000E+0003	 1.26351426823627E-0001	
 1.26250000000000E+0003	 1.24905159025196E-0001	
 1.26450000000000E+0003	 1.23477391226766E-0001	
 1.26650000000000E+0003	 1.22091123428335E-0001	
 1.26850000000000E+0003	 1.20830355629905E-0001	
 1.27050000000000E+0003	 1.19713587831475E-0001	
 1.27250000000000E+0003	 1.18749320033044E-0001	
 1.27450000000000E+0003	 1.17911052234614E-0001	
 1.27650000000000E+0003	 1.17173784436183E-0001	
 1.27850000000000E+0003	 1.16516016637753E-0001	
 1.28050000000000E+0003	 1.15935748839323E-0001	
 1.28250000000000E+0003	 1.15395981040892E-0001	
 1.28450000000000E+0003	 1.14855713242462E-0001	
 1.28650000000000E+0003	 1.14295445444031E-0001	
 1.28850000000000E+0003	 1.13832177645601E-0001	
 1.29050000000000E+0003	 1.13560909847171E-0001	
 1.29250000000000E+0003	 1.13426142048740E-0001	
 1.29450000000000E+0003	 1.13332874250310E-0001	
 1.29650000000000E+0003	 1.13312106451879E-0001	
 1.29850000000000E+0003	 1.13449838653449E-0001	
 1.30050000000000E+0003	 1.13723570855019E-0001	
 1.30250000000000E+0003	 1.14013803056588E-0001	
 1.30450000000000E+0003	 1.14282035258158E-0001	
 1.30650000000000E+0003	 1.14501767459727E-0001	
 1.30850000000000E+0003	 1.14692999661297E-0001	
 1.31050000000000E+0003	 1.14809231862867E-0001	
 1.31250000000000E+0003	 1.14800464064436E-0001	
 1.31450000000000E+0003	 1.14717196266006E-0001	
 1.31650000000000E+0003	 1.14565928467575E-0001	
 1.31850000000000E+0003	 1.14318660669145E-0001	
 1.32050000000000E+0003	 1.14064392870715E-0001	
 1.32250000000000E+0003	 1.13833125072284E-0001	
 1.32450000000000E+0003	 1.13639857273854E-0001	
 1.32650000000000E+0003	 1.13513089475423E-0001	
 1.32850000000000E+0003	 1.13513321676993E-0001	
 1.33050000000000E+0003	 1.13632553878563E-0001	
 1.33250000000000E+0003	 1.13839786080132E-0001	
 1.33450000000000E+0003	 1.13954018281702E-0001	
 1.33650000000000E+0003	 1.13784250483271E-0001	
 1.33850000000000E+0003	 1.13408482684841E-0001	
 1.34050000000000E+0003	 1.13280714886411E-0001	
 1.34250000000000E+0003	 1.13457947087980E-0001	
 1.34450000000000E+0003	 1.13430179289550E-0001	
 1.34650000000000E+0003	 1.13134411491119E-0001	
 1.34850000000000E+0003	 1.12860643692689E-0001	
 1.35050000000000E+0003	 1.12759875894259E-0001	
 1.35250000000000E+0003	 1.12855608095828E-0001	
 1.35450000000000E+0003	 1.13130840297398E-0001	
 1.35650000000000E+0003	 1.13541072498967E-0001	
 1.35850000000000E+0003	 1.13897804700537E-0001	
 1.36050000000000E+0003	 1.13924036902107E-0001	
 1.36250000000000E+0003	 1.13965769103676E-0001	
 1.36450000000000E+0003	 1.14657001305246E-0001	
 1.36650000000000E+0003	 1.16007733506815E-0001	
 1.36850000000000E+0003	 1.17334965708385E-0001	
 1.37050000000000E+0003	 1.18222697909955E-0001	
 1.37250000000000E+0003	 1.18862930111524E-0001	
 1.37450000000000E+0003	 1.19567162313094E-0001	
 1.37650000000000E+0003	 1.20406894514663E-0001	
 1.37850000000000E+0003	 1.21191126716233E-0001	
 1.38050000000000E+0003	 1.22061858917803E-0001	
 1.38250000000000E+0003	 1.23133591119372E-0001	
 1.38450000000000E+0003	 1.24050823320942E-0001	
 1.38650000000000E+0003	 1.24435055522511E-0001	
 1.38850000000000E+0003	 1.24995787724081E-0001	
 1.39050000000000E+0003	 1.26101019925651E-0001	
 1.39250000000000E+0003	 1.27064752127220E-0001	
 1.39450000000000E+0003	 1.27702984328790E-0001	
 1.39650000000000E+0003	 1.28440216530359E-0001	
 1.39850000000000E+0003	 1.29349448731929E-0001	
 1.40050000000000E+0003	 1.30270180933499E-0001	
 1.40250000000000E+0003	 1.30756913135068E-0001	
 1.40450000000000E+0003	 1.30759145336638E-0001	
 1.40650000000000E+0003	 1.30456877538207E-0001	
 1.40850000000000E+0003	 1.30131609739777E-0001	
 1.41050000000000E+0003	 1.29632341941347E-0001	
 1.41250000000000E+0003	 1.29058574142916E-0001	
 1.41450000000000E+0003	 1.28411806344486E-0001	
 1.41650000000000E+0003	 1.27332038546055E-0001	
 1.41850000000000E+0003	 1.25898270747625E-0001	
 1.42050000000000E+0003	 1.24827502949195E-0001	
 1.42250000000000E+0003	 1.24325235150764E-0001	
 1.42450000000000E+0003	 1.23613467352334E-0001	
 1.42650000000000E+0003	 1.22503199553903E-0001	
 1.42850000000000E+0003	 1.21529431755473E-0001	
 1.43050000000000E+0003	 1.20702663957043E-0001	
 1.43250000000000E+0003	 1.20152896158612E-0001	
 1.43450000000000E+0003	 1.19743128360182E-0001	
 1.43650000000000E+0003	 1.19493360561751E-0001	
 1.43850000000000E+0003	 1.20065092763321E-0001	
 1.44050000000000E+0003	 1.21293324964891E-0001	
 1.44250000000000E+0003	 1.22286557166460E-0001	
 1.44450000000000E+0003	 1.22831789368030E-0001	
 1.44650000000000E+0003	 1.23205521569599E-0001	
 1.44850000000000E+0003	 1.23606753771169E-0001	
 1.45050000000000E+0003	 1.24082985972739E-0001	
 1.45250000000000E+0003	 1.24488218174308E-0001	
 1.45450000000000E+0003	 1.24071950375878E-0001	
 1.45650000000000E+0003	 1.22753682577447E-0001	
 1.45850000000000E+0003	 1.21539414779017E-0001	
 1.46050000000000E+0003	 1.21027646980587E-0001	
 1.46250000000000E+0003	 1.20466879182156E-0001	
 1.46450000000000E+0003	 1.19220611383726E-0001	
 1.46650000000000E+0003	 1.17652843585295E-0001	
 1.46850000000000E+0003	 1.16230075786865E-0001	
 1.47050000000000E+0003	 1.14402807988435E-0001	
 1.47250000000000E+0003	 1.11653040190004E-0001	
 1.47450000000000E+0003	 1.08907272391574E-0001	
 1.47650000000000E+0003	 1.07384004593143E-0001	
 1.47850000000000E+0003	 1.06665736794713E-0001	
 1.48050000000000E+0003	 1.06202968996283E-0001	
 1.48250000000000E+0003	 1.05897201197852E-0001	
 1.48450000000000E+0003	 1.05740433399422E-0001	
 1.48650000000000E+0003	 1.05840165600991E-0001	
 1.48850000000000E+0003	 1.05996897802561E-0001	
 1.49050000000000E+0003	 1.06721130004131E-0001	
 1.49250000000000E+0003	 1.08194862205700E-0001	
 1.49450000000000E+0003	 1.09790094407270E-0001	
 1.49650000000000E+0003	 1.11404326608839E-0001	
 1.49850000000000E+0003	 1.13060058810409E-0001	
 1.50050000000000E+0003	 1.14847291011979E-0001	
 1.50250000000000E+0003	 1.16802523213548E-0001	
 1.50450000000000E+0003	 1.18521755415118E-0001	
 1.50650000000000E+0003	 1.20728487616687E-0001	
 1.50850000000000E+0003	 1.23203719818257E-0001	
 1.51050000000000E+0003	 1.26551452019827E-0001	
 1.51250000000000E+0003	 1.30890184221396E-0001	
 1.51450000000000E+0003	 1.34634916422966E-0001	
 1.51650000000000E+0003	 1.37937148624535E-0001	
 1.51850000000000E+0003	 1.40415880826105E-0001	
 1.52050000000000E+0003	 1.42225113027675E-0001	
 1.52250000000000E+0003	 1.45089345229244E-0001	
 1.52450000000000E+0003	 1.47897577430814E-0001	
 1.52650000000000E+0003	 1.51038809632383E-0001	
 1.52850000000000E+0003	 1.54355541833953E-0001	
 1.53050000000000E+0003	 1.57344274035523E-0001	
 1.53250000000000E+0003	 1.60139006237092E-0001	
 1.53450000000000E+0003	 1.63207238438662E-0001	
 1.53650000000000E+0003	 1.65435970640231E-0001	
 1.53850000000000E+0003	 1.67743702841801E-0001	
 1.54050000000000E+0003	 1.70424935043371E-0001	
 1.54250000000000E+0003	 1.71734667244940E-0001	
 1.54450000000000E+0003	 1.72999399446510E-0001	
 1.54650000000000E+0003	 1.74305131648079E-0001	
 1.54850000000000E+0003	 1.74666363849649E-0001	
 1.55050000000000E+0003	 1.73810596051219E-0001	
 1.55250000000000E+0003	 1.72038828252788E-0001	
 1.55450000000000E+0003	 1.69586060454358E-0001	
 1.55650000000000E+0003	 1.66693292655927E-0001	
 1.55850000000000E+0003	 1.63406024857497E-0001	
 1.56050000000000E+0003	 1.58979257059067E-0001	
 1.56250000000000E+0003	 1.56489489260636E-0001	
 1.56450000000000E+0003	 1.55495721462206E-0001	
 1.56650000000000E+0003	 1.53414453663775E-0001	
 1.56850000000000E+0003	 1.51175185865345E-0001	
 1.57050000000000E+0003	 1.48967918066914E-0001	
 1.57250000000000E+0003	 1.46799650268484E-0001	
 1.57450000000000E+0003	 1.45089382470054E-0001	
 1.57650000000000E+0003	 1.43142114671623E-0001	
 1.57850000000000E+0003	 1.41051846873193E-0001	
 1.58050000000000E+0003	 1.39958079074762E-0001	
 1.58250000000000E+0003	 1.39033811276332E-0001	
 1.58450000000000E+0003	 1.38159543477902E-0001	
 1.58650000000000E+0003	 1.37666775679471E-0001	
 1.58850000000000E+0003	 1.37666507881041E-0001	
 1.59050000000000E+0003	 1.38108240082610E-0001	
 1.59250000000000E+0003	 1.39045472284180E-0001	
 1.59450000000000E+0003	 1.40337204485750E-0001	
 1.59650000000000E+0003	 1.41917936687319E-0001	
 1.59850000000000E+0003	 1.43681668888889E-0001	
 1.60050000000000E+0003	 1.45785401090458E-0001	
 1.60250000000000E+0003	 1.48151633292028E-0001	
 1.60450000000000E+0003	 1.50824365493598E-0001	
 1.60650000000000E+0003	 1.53748597695167E-0001	
 1.60850000000000E+0003	 1.57162829896737E-0001	
 1.61050000000000E+0003	 1.60948562098306E-0001	
 1.61250000000000E+0003	 1.65063294299876E-0001	
 1.61450000000000E+0003	 1.69173526501446E-0001	
 1.61650000000000E+0003	 1.74319758703015E-0001	
 1.61850000000000E+0003	 1.79879990904585E-0001	
 1.62050000000000E+0003	 1.85055723106154E-0001	
 1.62250000000000E+0003	 1.91279455307724E-0001	
 1.62450000000000E+0003	 1.98009187509294E-0001	
 1.62650000000000E+0003	 2.04202919710863E-0001	
 1.62850000000000E+0003	 2.10938651912433E-0001	
 1.63050000000000E+0003	 2.17290384114002E-0001	
 1.63250000000000E+0003	 2.22709616315572E-0001	
 1.63450000000000E+0003	 2.27876848517142E-0001	
 1.63650000000000E+0003	 2.33162580718711E-0001	
 1.63850000000000E+0003	 2.36620812920281E-0001	
 1.64050000000000E+0003	 2.39510545121850E-0001	
 1.64250000000000E+0003	 2.41898277323420E-0001	
 1.64450000000000E+0003	 2.43467009524990E-0001	
 1.64650000000000E+0003	 2.45410741726559E-0001	
 1.64850000000000E+0003	 2.47407973928129E-0001	
 1.65050000000000E+0003	 2.48457706129698E-0001	
 1.65250000000000E+0003	 2.49590438331268E-0001	
 1.65450000000000E+0003	 2.50654670532838E-0001	
 1.65650000000000E+0003	 2.50635402734407E-0001	
 1.65850000000000E+0003	 2.50912634935977E-0001	
 1.66050000000000E+0003	 2.49418867137546E-0001	
 1.66250000000000E+0003	 2.46693099339116E-0001	
 1.66450000000000E+0003	 2.43066831540686E-0001	
 1.66650000000000E+0003	 2.39485063742255E-0001	
 1.66850000000000E+0003	 2.35863295943825E-0001	
 1.67050000000000E+0003	 2.31766028145394E-0001	
 1.67250000000000E+0003	 2.27728260346964E-0001	
 1.67450000000000E+0003	 2.24069992548534E-0001	
 1.67650000000000E+0003	 2.20057724750103E-0001	
 1.67850000000000E+0003	 2.16452956951673E-0001	
 1.68050000000000E+0003	 2.13217189153242E-0001	
 1.68250000000000E+0003	 2.09619921354812E-0001	
 1.68450000000000E+0003	 2.05312653556382E-0001	
 1.68650000000000E+0003	 2.00678385757951E-0001	
 1.68850000000000E+0003	 1.97424617959521E-0001	
 1.69050000000000E+0003	 1.94061350161090E-0001	
 1.69250000000000E+0003	 1.90011582362660E-0001	
 1.69450000000000E+0003	 1.85517314564230E-0001	
 1.69650000000000E+0003	 1.80357046765799E-0001	
 1.69850000000000E+0003	 1.75748778967369E-0001	
 1.70050000000000E+0003	 1.71607511168938E-0001	
 1.70250000000000E+0003	 1.67562243370508E-0001	
 1.70450000000000E+0003	 1.65268975572078E-0001	
 1.70650000000000E+0003	 1.63009707773647E-0001	
 1.70850000000000E+0003	 1.60013439975217E-0001	
 1.71050000000000E+0003	 1.57261672176786E-0001	
 1.71250000000000E+0003	 1.54256404378356E-0001	
 1.71450000000000E+0003	 1.50750636579926E-0001	
 1.71650000000000E+0003	 1.46479368781495E-0001	
 1.71850000000000E+0003	 1.41814600983065E-0001	
 1.72050000000000E+0003	 1.37738333184634E-0001	
 1.72250000000000E+0003	 1.34490565386204E-0001	
 1.72450000000000E+0003	 1.31022797587774E-0001	
 1.72650000000000E+0003	 1.27658529789343E-0001	
 1.72850000000000E+0003	 1.24645761990913E-0001	
 1.73050000000000E+0003	 1.21913494192482E-0001	
 1.73250000000000E+0003	 1.19039226394052E-0001	
 1.73450000000000E+0003	 1.16197958595622E-0001	
 1.73650000000000E+0003	 1.14075690797191E-0001	
 1.73850000000000E+0003	 1.13348422998761E-0001	
 1.74050000000000E+0003	 1.12613655200330E-0001	
 1.74250000000000E+0003	 1.11173887401900E-0001	
 1.74450000000000E+0003	 1.09950119603470E-0001	
 1.74650000000000E+0003	 1.08838351805039E-0001	
 1.74850000000000E+0003	 1.07405084006609E-0001	
 1.75050000000000E+0003	 1.05338816208178E-0001	
 1.75250000000000E+0003	 1.03459048409748E-0001	
 1.75450000000000E+0003	 1.02301280611318E-0001	
 1.75650000000000E+0003	 1.01098012812887E-0001	
 1.75850000000000E+0003	 9.95282450144568E-0002	
 1.76050000000000E+0003	 9.80189772160264E-0002	
 1.76250000000000E+0003	 9.67602094175960E-0002	
 1.76450000000000E+0003	 9.55679416191656E-0002	
 1.76650000000000E+0003	 9.44936738207352E-0002	
 1.76850000000000E+0003	 9.33199060223048E-0002	
 1.77050000000000E+0003	 9.24436382238744E-0002	
 1.77250000000000E+0003	 9.18818704254440E-0002	
 1.77450000000000E+0003	 9.08706026270136E-0002	
 1.77650000000000E+0003	 9.02093348285832E-0002	
 1.77850000000000E+0003	 8.98265670301528E-0002	
 1.78050000000000E+0003	 8.92292992317224E-0002	
 1.78250000000000E+0003	 8.84915314332920E-0002	
 1.78450000000000E+0003	 8.76667636348616E-0002	
 1.78650000000000E+0003	 8.71244958364312E-0002	
 1.78850000000000E+0003	 8.66772280380008E-0002	
 1.79050000000000E+0003	 8.60449602395704E-0002	
 1.79250000000000E+0003	 8.54166924411400E-0002	
 1.79450000000000E+0003	 8.48154246427096E-0002	
 1.79650000000000E+0003	 8.44441568442792E-0002	
 1.79850000000000E+0003	 8.42543890458488E-0002	
 1.80050000000000E+0003	 8.36846212474184E-0002	
 1.80250000000000E+0003	 8.29588534489880E-0002	
 1.80450000000000E+0003	 8.26760856505576E-0002	
 1.80650000000000E+0003	 8.25388178521272E-0002	
 1.80850000000000E+0003	 8.21775500536968E-0002	
 1.81050000000000E+0003	 8.17972822552664E-0002	
 1.81250000000000E+0003	 8.13755144568360E-0002	
 1.81450000000000E+0003	 8.09932466584056E-0002	
 1.81650000000000E+0003	 8.06619788599752E-0002	
 1.81850000000000E+0003	 8.03157110615448E-0002	
 1.82050000000000E+0003	 8.00394432631144E-0002	
 1.82250000000000E+0003	 7.96671754646840E-0002	
 1.82450000000000E+0003	 7.91749076662536E-0002	
 1.82650000000000E+0003	 7.87816398678232E-0002	
 1.82850000000000E+0003	 7.85223720693928E-0002	
 1.83050000000000E+0003	 7.84296042709624E-0002	
 1.83250000000000E+0003	 7.79678364725320E-0002	
 1.83450000000000E+0003	 7.77645686741016E-0002	
 1.83650000000000E+0003	 7.76908008756712E-0002	
 1.83850000000000E+0003	 7.74645330772408E-0002	
 1.84050000000000E+0003	 7.71332652788104E-0002	
 1.84250000000000E+0003	 7.66244974803800E-0002	
 1.84450000000000E+0003	 7.62342296819496E-0002	
 1.84650000000000E+0003	 7.58529618835192E-0002	
 1.84850000000000E+0003	 7.58106940850888E-0002	
 1.85050000000000E+0003	 7.59694262866584E-0002	
 1.85250000000000E+0003	 7.59156584882280E-0002	
 1.85450000000000E+0003	 7.57773906897976E-0002	
 1.85650000000000E+0003	 7.55641228913672E-0002	
 1.85850000000000E+0003	 7.53433550929368E-0002	
 1.86050000000000E+0003	 7.51240872945064E-0002	
 1.86250000000000E+0003	 7.49523194960760E-0002	
 1.86450000000000E+0003	 7.48005516976456E-0002	
 1.86650000000000E+0003	 7.45757838992152E-0002	
 1.86850000000000E+0003	 7.42905161007848E-0002	
 1.87050000000000E+0003	 7.39897483023544E-0002	
 1.87250000000000E+0003	 7.38779805039240E-0002	
 1.87450000000000E+0003	 7.40192127054936E-0002	
 1.87650000000000E+0003	 7.39864449070632E-0002	
 1.87850000000000E+0003	 7.38361771086328E-0002	
 1.88050000000000E+0003	 7.36964093102024E-0002	
 1.88250000000000E+0003	 7.35861415117720E-0002	
 1.88450000000000E+0003	 7.34708737133416E-0002	
 1.88650000000000E+0003	 7.33086059149112E-0002	
 1.88850000000000E+0003	 7.30993381164808E-0002	
 1.89050000000000E+0003	 7.29615703180504E-0002	
 1.89250000000000E+0003	 7.28143025196200E-0002	
 1.89450000000000E+0003	 7.27830347211896E-0002	
 1.89650000000000E+0003	 7.27357669227592E-0002	
 1.89850000000000E+0003	 7.26394991243288E-0002	
 1.90050000000000E+0003	 7.25832313258984E-0002	
 1.90250000000000E+0003	 7.25044635274680E-0002	
 1.90450000000000E+0003	 7.24166957290376E-0002	
 1.90650000000000E+0003	 7.23064279306072E-0002	
 1.90850000000000E+0003	 7.21741601321768E-0002	
 1.91050000000000E+0003	 7.20898923337464E-0002	
 1.91250000000000E+0003	 7.20236245353160E-0002	
 1.91450000000000E+0003	 7.19683567368856E-0002	
 1.91650000000000E+0003	 7.17955889384552E-0002	
 1.91850000000000E+0003	 7.16603211400248E-0002	
 1.92050000000000E+0003	 7.14905533415944E-0002	
 1.92250000000000E+0003	 7.14457855431640E-0002	
 1.92450000000000E+0003	 7.15010177447336E-0002	
 1.92650000000000E+0003	 7.15247499463032E-0002	
 1.92850000000000E+0003	 7.15734821478728E-0002	
 1.93050000000000E+0003	 7.15472143494424E-0002	
 1.93250000000000E+0003	 7.14834465510120E-0002	
 1.93450000000000E+0003	 7.14351787525816E-0002	
 1.93650000000000E+0003	 7.13914109541512E-0002	
 1.93850000000000E+0003	 7.13486431557208E-0002	
 1.94050000000000E+0003	 7.12038753572904E-0002	
 1.94250000000000E+0003	 7.10781075588600E-0002	
 1.94450000000000E+0003	 7.10308397604296E-0002	
 1.94650000000000E+0003	 7.10815719619992E-0002	
 1.94850000000000E+0003	 7.11483041635688E-0002	
 1.95050000000000E+0003	 7.11410363651384E-0002	
 1.95250000000000E+0003	 7.11162685667080E-0002	
 1.95450000000000E+0003	 7.10785007682776E-0002	
 1.95650000000000E+0003	 7.10482329698472E-0002	
 1.95850000000000E+0003	 7.10424651714168E-0002	
 1.96050000000000E+0003	 7.10326973729864E-0002	
 1.96250000000000E+0003	 7.10079295745560E-0002	
 1.96450000000000E+0003	 7.09421617761256E-0002	
 1.96650000000000E+0003	 7.08558939776952E-0002	
 1.96850000000000E+0003	 7.08161261792648E-0002	
 1.97050000000000E+0003	 7.08408583808344E-0002	
 1.97250000000000E+0003	 7.08920905824040E-0002	
 1.97450000000000E+0003	 7.09008227839736E-0002	
 1.97650000000000E+0003	 7.08840549855432E-0002	
 1.97850000000000E+0003	 7.08707871871128E-0002	
 1.98050000000000E+0003	 7.08565193886824E-0002	
 1.98250000000000E+0003	 7.08462515902520E-0002	
 1.98450000000000E+0003	 7.08319837918216E-0002	
 1.98650000000000E+0003	 7.07932159933912E-0002	
 1.98850000000000E+0003	 7.07344481949608E-0002	
 1.99050000000000E+0003	 7.06396803965304E-0002	
 1.99250000000000E+0003	 7.05959125981000E-0002	
 1.99450000000000E+0003	 7.06386447996696E-0002	
 1.99650000000000E+0003	 7.07323770012392E-0002	
 1.99850000000000E+0003	 7.08041092028088E-0002	
 2.00050000000000E+0003	 7.08098414043784E-0002	
 2.00250000000000E+0003	 7.08130736059480E-0002	
 2.00450000000000E+0003	 7.08173058075176E-0002	
 2.00650000000000E+0003	 7.08195380090872E-0002	
 2.00850000000000E+0003	 7.08237702106568E-0002	
 2.01050000000000E+0003	 7.08435024122264E-0002	
 2.01250000000000E+0003	 7.08657346137960E-0002	
 2.01450000000000E+0003	 7.08584668153656E-0002	
 2.01650000000000E+0003	 7.08116990169352E-0002	
 2.01850000000000E+0003	 7.08064312185048E-0002	
 2.02050000000000E+0003	 7.08646634200743E-0002	
 2.02250000000000E+0003	 7.09463956216439E-0002	
 2.02450000000000E+0003	 7.09941278232135E-0002	
 2.02650000000000E+0003	 7.10333600247831E-0002	
 2.02850000000000E+0003	 7.10665922263527E-0002	
 2.03050000000000E+0003	 7.10973244279223E-0002	
 2.03250000000000E+0003	 7.11175566294919E-0002	
 2.03450000000000E+0003	 7.11437888310615E-0002	
 2.03650000000000E+0003	 7.11685210326311E-0002	
 2.03850000000000E+0003	 7.11842532342007E-0002	
 2.04050000000000E+0003	 7.11719854357703E-0002	
 2.04250000000000E+0003	 7.11807176373399E-0002	
 2.04450000000000E+0003	 7.12174498389095E-0002	
 2.04650000000000E+0003	 7.12641820404791E-0002	
 2.04850000000000E+0003	 7.12934142420487E-0002	
 2.05050000000000E+0003	 7.13156464436183E-0002	
 2.05250000000000E+0003	 7.13303786451879E-0002	
 2.05450000000000E+0003	 7.13431108467575E-0002	
 2.05650000000000E+0003	 7.13478430483271E-0002	
 2.05850000000000E+0003	 7.13565752498967E-0002	
 2.06050000000000E+0003	 7.13598074514663E-0002	
 2.06250000000000E+0003	 7.13485396530359E-0002	
 2.06450000000000E+0003	 7.13107718546055E-0002	
 2.06650000000000E+0003	 7.13080040561751E-0002	
 2.06850000000000E+0003	 7.13412362577447E-0002	
 2.07050000000000E+0003	 7.13809684593143E-0002	
 2.07250000000000E+0003	 7.13927006608839E-0002	
 2.07450000000000E+0003	 7.13969328624535E-0002	
 2.07650000000000E+0003	 7.13961650640231E-0002	
 2.07850000000000E+0003	 7.13968972655927E-0002	
 2.08050000000000E+0003	 7.13971294671623E-0002	
 2.08250000000000E+0003	 7.13968616687319E-0002	
 2.08450000000000E+0003	 7.13965938703015E-0002	
 2.08650000000000E+0003	 7.13928260718711E-0002	
 2.08850000000000E+0003	 7.13715582734407E-0002	
 2.09050000000000E+0003	 7.13547904750103E-0002	
 2.09250000000000E+0003	 7.13605226765799E-0002	
 2.09450000000000E+0003	 7.13737548781495E-0002	
 2.09650000000000E+0003	 7.13714870797191E-0002	
 2.09850000000000E+0003	 7.13612192812887E-0002	
 2.10050000000000E+0003	 7.13509514828583E-0002	
 2.10250000000000E+0003	 7.13456836844279E-0002	
 2.10450000000000E+0003	 7.13344158859975E-0002	
 2.10650000000000E+0003	 7.13211480875671E-0002	
 2.10850000000000E+0003	 7.13028802891367E-0002	
 2.11050000000000E+0003	 7.12861124907063E-0002	
 2.11250000000000E+0003	 7.12618446922759E-0002	
 2.11450000000000E+0003	 7.12320768938455E-0002	
 2.11650000000000E+0003	 7.12078090954151E-0002	
 2.11850000000000E+0003	 7.11985412969847E-0002	
 2.12050000000000E+0003	 7.11852734985543E-0002	
 2.12250000000000E+0003	 7.11640057001239E-0002	
 2.12450000000000E+0003	 7.11407379016935E-0002	
 2.12650000000000E+0003	 7.11229701032631E-0002	
 2.12850000000000E+0003	 7.11002023048327E-0002	
 2.13050000000000E+0003	 7.10774345064023E-0002	
 2.13250000000000E+0003	 7.10551667079719E-0002	
 2.13450000000000E+0003	 7.10283989095415E-0002	
 2.13650000000000E+0003	 7.09921311111111E-0002	
 2.13850000000000E+0003	 7.09678633126807E-0002	
 2.14050000000000E+0003	 7.09520955142503E-0002	
 2.14250000000000E+0003	 7.09348277158199E-0002	
 2.14450000000000E+0003	 7.09095599173895E-0002	
 2.14650000000000E+0003	 7.08867921189591E-0002	
 2.14850000000000E+0003	 7.08620243205287E-0002	
 2.15050000000000E+0003	 7.08337565220983E-0002	
 2.15250000000000E+0003	 7.08039887236679E-0002	
 2.15450000000000E+0003	 7.07747209252375E-0002	
 2.15650000000000E+0003	 7.07414531268071E-0002	
 2.15850000000000E+0003	 7.07081853283767E-0002	
 2.16050000000000E+0003	 7.06689175299463E-0002	
 2.16250000000000E+0003	 7.06281497315159E-0002	
 2.16450000000000E+0003	 7.05883819330855E-0002	
 2.16650000000000E+0003	 7.05556141346551E-0002	
 2.16850000000000E+0003	 7.05268463362247E-0002	
 2.17050000000000E+0003	 7.04875785377943E-0002	
 2.17250000000000E+0003	 7.04288107393639E-0002	
 2.17450000000000E+0003	 7.03715429409335E-0002	
 2.17650000000000E+0003	 7.03237751425031E-0002	
 2.17850000000000E+0003	 7.02770073440727E-0002	
 2.18050000000000E+0003	 7.02272395456423E-0002	
 2.18250000000000E+0003	 7.01779717472119E-0002	
 2.18450000000000E+0003	 7.01302039487815E-0002	
 2.18650000000000E+0003	 7.00829361503511E-0002	
 2.18850000000000E+0003	 7.00351683519207E-0002	
 2.19050000000000E+0003	 6.99904005534903E-0002	
 2.19250000000000E+0003	 6.99451327550599E-0002	
 2.19450000000000E+0003	 6.98953649566295E-0002	
 2.19650000000000E+0003	 6.98470971581991E-0002	
 2.19850000000000E+0003	 6.98008293597687E-0002	
 2.20050000000000E+0003	 6.97540615613383E-0002	
 2.20250000000000E+0003	 6.97097937629079E-0002	
 2.20450000000000E+0003	 6.96665259644775E-0002	
 2.20650000000000E+0003	 6.96217581660471E-0002	
 2.20850000000000E+0003	 6.95784903676167E-0002	
 2.21050000000000E+0003	 6.95367225691863E-0002	
 2.21250000000000E+0003	 6.94929547707559E-0002	
 2.21450000000000E+0003	 6.94521869723255E-0002	
 2.21650000000000E+0003	 6.94114191738951E-0002	
 2.21850000000000E+0003	 6.93681513754647E-0002	
 2.22050000000000E+0003	 6.93253835770343E-0002	
 2.22250000000000E+0003	 6.92846157786039E-0002	
 2.22450000000000E+0003	 6.92383479801735E-0002	
 2.22650000000000E+0003	 6.91945801817431E-0002	
 2.22850000000000E+0003	 6.91518123833127E-0002	
 2.23050000000000E+0003	 6.91105445848823E-0002	
 2.23250000000000E+0003	 6.90717767864519E-0002	
 2.23450000000000E+0003	 6.90360089880215E-0002	
 2.23650000000000E+0003	 6.89992411895911E-0002	
 2.23850000000000E+0003	 6.89614733911607E-0002	
 2.24050000000000E+0003	 6.89242055927303E-0002	
 2.24250000000000E+0003	 6.88894377942999E-0002	
 2.24450000000000E+0003	 6.88521699958695E-0002	
 2.24650000000000E+0003	 6.88169021974391E-0002	
 2.24850000000000E+0003	 6.87836343990087E-0002	
 2.25050000000000E+0003	 6.87543666005783E-0002	
 2.25250000000000E+0003	 6.87290988021479E-0002	
 2.25450000000000E+0003	 6.87053310037175E-0002	
 2.25650000000000E+0003	 6.86805632052871E-0002	
 2.25850000000000E+0003	 6.86552954068567E-0002	
 2.26050000000000E+0003	 6.86300276084263E-0002	
 2.26250000000000E+0003	 6.86117598099959E-0002	
 2.26450000000000E+0003	 6.85939920115655E-0002	
 2.26650000000000E+0003	 6.85737242131351E-0002	
 2.26850000000000E+0003	 6.85529564147047E-0002	
 2.27050000000000E+0003	 6.85316886162743E-0002	
 2.27250000000000E+0003	 6.85049208178439E-0002	
 2.27450000000000E+0003	 6.84726530194135E-0002	
 2.27650000000000E+0003	 6.84308852209831E-0002	
 2.27850000000000E+0003	 6.83806174225527E-0002	
 2.28050000000000E+0003	 6.83208496241223E-0002	
 2.28250000000000E+0003	 6.82630818256919E-0002	
 2.28450000000000E+0003	 6.82223140272615E-0002	
 2.28650000000000E+0003	 6.81835462288311E-0002	
 2.28850000000000E+0003	 6.81272784304007E-0002	
 2.29050000000000E+0003	 6.80615106319703E-0002	
 2.29250000000000E+0003	 6.79757428335399E-0002	
 2.29450000000000E+0003	 6.78794750351095E-0002	
 2.29650000000000E+0003	 6.78047072366791E-0002	
 2.29850000000000E+0003	 6.77649394382487E-0002	
 2.30050000000000E+0003	 6.77721716398183E-0002	
 2.30250000000000E+0003	 6.78389038413879E-0002	
 2.30450000000000E+0003	 6.78881360429575E-0002	
 2.30650000000000E+0003	 6.78728682445271E-0002	
 2.30850000000000E+0003	 6.78636004460967E-0002	
 2.31050000000000E+0003	 6.79118326476663E-0002	
 2.31250000000000E+0003	 6.80180648492359E-0002	
 2.31450000000000E+0003	 6.80662970508055E-0002	
 2.31650000000000E+0003	 6.80165292523751E-0002	
 2.31850000000000E+0003	 6.80027614539447E-0002	
 2.32050000000000E+0003	 6.79824936555143E-0002	
 2.32250000000000E+0003	 6.78902258570838E-0002	
 2.32450000000000E+0003	 6.78194580586534E-0002	
 2.32650000000000E+0003	 6.78761902602230E-0002	
 2.32850000000000E+0003	 6.80284224617926E-0002	
 2.33050000000000E+0003	 6.81136546633622E-0002	
 2.33250000000000E+0003	 6.81393868649318E-0002	
 2.33450000000000E+0003	 6.82691190665014E-0002	
 2.33650000000000E+0003	 6.84223512680710E-0002	
 2.33850000000000E+0003	 6.84530834696406E-0002	
 2.34050000000000E+0003	 6.83628156712102E-0002	
 2.34250000000000E+0003	 6.82495478727798E-0002	
 2.34450000000000E+0003	 6.82867800743494E-0002	
 2.34650000000000E+0003	 6.82020122759190E-0002	
 2.34850000000000E+0003	 6.81002444774886E-0002	
 2.35050000000000E+0003	 6.83534766790582E-0002	
 2.35250000000000E+0003	 6.85427088806278E-0002	
 2.35450000000000E+0003	 6.84484410821974E-0002	
 2.35650000000000E+0003	 6.84026732837670E-0002	
 2.35850000000000E+0003	 6.84714054853366E-0002	
 2.36050000000000E+0003	 6.85711376869062E-0002	
 2.36250000000000E+0003	 6.85768698884758E-0002	
 2.36450000000000E+0003	 6.84896020900454E-0002	
 2.36650000000000E+0003	 6.83768342916150E-0002	
 2.36850000000000E+0003	 6.82940664931846E-0002	
 2.37050000000000E+0003	 6.83372986947542E-0002	
 2.37250000000000E+0003	 6.86220308963238E-0002	
 2.37450000000000E+0003	 6.90127630978934E-0002	
 2.37650000000000E+0003	 6.91729952994630E-0002	
 2.37850000000000E+0003	 6.89022275010326E-0002	
 2.38050000000000E+0003	 6.84229597026022E-0002	
 2.38250000000000E+0003	 6.81211919041718E-0002	
 2.38450000000000E+0003	 6.81509241057414E-0002	
 2.38650000000000E+0003	 6.83666563073110E-0002	
 2.38850000000000E+0003	 6.85903885088806E-0002	
 2.39050000000000E+0003	 6.87381207104502E-0002	
 2.39250000000000E+0003	 6.88198529120198E-0002	
 2.39450000000000E+0003	 6.88725851135894E-0002	
 2.39650000000000E+0003	 6.89183173151590E-0002	
 2.39850000000000E+0003	 6.89585495167286E-0002	
 2.40050000000000E+0003	 6.90032817182982E-0002	
 2.40250000000000E+0003	 6.90510139198678E-0002	
 2.40450000000000E+0003	 6.91032461214374E-0002	
 2.40650000000000E+0003	 6.91569783230070E-0002	
 2.40850000000000E+0003	 6.92117105245766E-0002	
 2.41050000000000E+0003	 6.92669427261462E-0002	
 2.41250000000000E+0003	 6.93246749277158E-0002	
 2.41450000000000E+0003	 6.93829071292854E-0002	
 2.41650000000000E+0003	 6.94441393308550E-0002	
 2.41850000000000E+0003	 6.95093715324246E-0002	
 2.42050000000000E+0003	 6.95771037339942E-0002	
 2.42250000000000E+0003	 6.96503359355638E-0002	
 2.42450000000000E+0003	 6.97245681371334E-0002	
 2.42650000000000E+0003	 6.97998003387030E-0002	
 2.42850000000000E+0003	 6.98760325402726E-0002	
 2.43050000000000E+0003	 6.99532647418422E-0002	
 2.43250000000000E+0003	 7.00309969434118E-0002	
 2.43450000000000E+0003	 7.01117291449814E-0002	
 2.43650000000000E+0003	 7.01904613465510E-0002	
 2.43850000000000E+0003	 7.02711935481206E-0002	
 2.44050000000000E+0003	 7.03524257496902E-0002	
 2.44250000000000E+0003	 7.04366579512598E-0002	
 2.44450000000000E+0003	 7.05183901528294E-0002	
 2.44650000000000E+0003	 7.06021223543990E-0002	
 2.44850000000000E+0003	 7.06853545559686E-0002	
 2.45050000000000E+0003	 7.07710867575382E-0002	
 2.45250000000000E+0003	 7.08558189591078E-0002	
 2.45450000000000E+0003	 7.09410511606774E-0002	
 2.45650000000000E+0003	 7.10292833622470E-0002	
 2.45850000000000E+0003	 7.11210155638166E-0002	
 2.46050000000000E+0003	 7.12147477653862E-0002	
 2.46250000000000E+0003	 7.13079799669558E-0002	
 2.46450000000000E+0003	 7.14052121685254E-0002	
 2.46650000000000E+0003	 7.15009443700950E-0002	
 2.46850000000000E+0003	 7.15956765716646E-0002	
 2.47050000000000E+0003	 7.16914087732342E-0002	
 2.47250000000000E+0003	 7.17906409748038E-0002	
 2.47450000000000E+0003	 7.18903731763734E-0002	
 2.47650000000000E+0003	 7.19926053779430E-0002	
 2.47850000000000E+0003	 7.20938375795126E-0002	
 2.48050000000000E+0003	 7.21940697810822E-0002	
 2.48250000000000E+0003	 7.22883019826518E-0002	
 2.48450000000000E+0003	 7.23810341842214E-0002	
 2.48650000000000E+0003	 7.24717663857910E-0002	
 2.48850000000000E+0003	 7.25669985873606E-0002	
 2.49050000000000E+0003	 7.26642307889302E-0002	
 2.49250000000000E+0003	 7.27584629904998E-0002	
 2.49450000000000E+0003	 7.28481951920694E-0002	
 2.49650000000000E+0003	 7.29409273936390E-0002	
 2.49850000000000E+0003	 7.30326595952086E-0002	
 2.50050000000000E+0003	 7.31238917967782E-0002	
 2.50250000000000E+0003	 7.32146239983478E-0002	
 2.50450000000000E+0003	 7.33053561999174E-0002	
 2.50650000000000E+0003	 7.33950884014870E-0002	
 2.50850000000000E+0003	 7.34853206030566E-0002	
 2.51050000000000E+0003	 7.35715528046262E-0002	
 2.51250000000000E+0003	 7.36572850061958E-0002	
 2.51450000000000E+0003	 7.37435172077654E-0002	
 2.51650000000000E+0003	 7.38277494093350E-0002	
 2.51850000000000E+0003	 7.39104816109046E-0002	
 2.52050000000000E+0003	 7.39932138124742E-0002	
 2.52250000000000E+0003	 7.40749460140438E-0002	
 2.52450000000000E+0003	 7.41566782156134E-0002	
 2.52650000000000E+0003	 7.42379104171830E-0002	
 2.52850000000000E+0003	 7.43186426187526E-0002	
 2.53050000000000E+0003	 7.43988748203222E-0002	
 2.53250000000000E+0003	 7.44806070218918E-0002	
 2.53450000000000E+0003	 7.45623392234614E-0002	
 2.53650000000000E+0003	 7.46445714250310E-0002	
 2.53850000000000E+0003	 7.47283036266006E-0002	
 2.54050000000000E+0003	 7.48125358281702E-0002	
 2.54250000000000E+0003	 7.48997680297398E-0002	
 2.54450000000000E+0003	 7.49850002313094E-0002	
 2.54650000000000E+0003	 7.50687324328790E-0002	
 2.54850000000000E+0003	 7.51549646344486E-0002	
 2.55050000000000E+0003	 7.52436968360182E-0002	
 2.55250000000000E+0003	 7.53304290375878E-0002	
 2.55450000000000E+0003	 7.54181612391574E-0002	
 2.55650000000000E+0003	 7.55073934407270E-0002	
 2.55850000000000E+0003	 7.55971256422966E-0002	
 2.56050000000000E+0003	 7.56863578438662E-0002	
 2.56250000000000E+0003	 7.57750900454358E-0002	
 2.56450000000000E+0003	 7.58638222470054E-0002	
 2.56650000000000E+0003	 7.59535544485750E-0002	
 2.56850000000000E+0003	 7.60452866501446E-0002	
 2.57050000000000E+0003	 7.61385188517142E-0002	
 2.57250000000000E+0003	 7.62352510532838E-0002	
 2.57450000000000E+0003	 7.63379832548534E-0002	
 2.57650000000000E+0003	 7.64457154564230E-0002	
 2.57850000000000E+0003	 7.65569476579926E-0002	
 2.58050000000000E+0003	 7.66711798595622E-0002	
 2.58250000000000E+0003	 7.67894120611318E-0002	
 2.58450000000000E+0003	 7.69121442627014E-0002	
 2.58650000000000E+0003	 7.70373764642710E-0002	
 2.58850000000000E+0003	 7.71631086658406E-0002	
 2.59050000000000E+0003	 7.72893408674102E-0002	
 2.59250000000000E+0003	 7.74210730689798E-0002	
 2.59450000000000E+0003	 7.75588052705494E-0002	
 2.59650000000000E+0003	 7.76995374721190E-0002	
 2.59850000000000E+0003	 7.78382696736886E-0002	
 2.60050000000000E+0003	 7.79810018752582E-0002	
 2.60250000000000E+0003	 7.81262340768278E-0002	
 2.60450000000000E+0003	 7.82739662783974E-0002	
 2.60650000000000E+0003	 7.84216984799670E-0002	
 2.60850000000000E+0003	 7.85724306815366E-0002	
 2.61050000000000E+0003	 7.87231628831062E-0002	
 2.61250000000000E+0003	 7.88743950846758E-0002	
 2.61450000000000E+0003	 7.90261272862454E-0002	
 2.61650000000000E+0003	 7.91803594878150E-0002	
 2.61850000000000E+0003	 7.93335916893846E-0002	
 2.62050000000000E+0003	 7.94888238909542E-0002	
 2.62250000000000E+0003	 7.96480560925238E-0002	
 2.62450000000000E+0003	 7.98102882940933E-0002	
 2.62650000000000E+0003	 7.99705204956629E-0002	
 2.62850000000000E+0003	 8.01317526972325E-0002	
 2.63050000000000E+0003	 8.02929848988021E-0002	
 2.63250000000000E+0003	 8.04577171003717E-0002	
 2.63450000000000E+0003	 8.06264493019413E-0002	
 2.63650000000000E+0003	 8.07971815035109E-0002	
 2.63850000000000E+0003	 8.09679137050805E-0002	
 2.64050000000000E+0003	 8.11351459066501E-0002	
 2.64250000000000E+0003	 8.13013781082197E-0002	
 2.64450000000000E+0003	 8.14741103097893E-0002	
 2.64650000000000E+0003	 8.16478425113589E-0002	
 2.64850000000000E+0003	 8.18215747129285E-0002	
 2.65050000000000E+0003	 8.19958069144981E-0002	
 2.65250000000000E+0003	 8.21715391160677E-0002	
 2.65450000000000E+0003	 8.23467713176373E-0002	
 2.65650000000000E+0003	 8.25205035192069E-0002	
 2.65850000000000E+0003	 8.26992357207765E-0002	
 2.66050000000000E+0003	 8.28804679223461E-0002	
 2.66250000000000E+0003	 8.30587001239157E-0002	
 2.66450000000000E+0003	 8.32364323254853E-0002	
 2.66650000000000E+0003	 8.34146645270549E-0002	
 2.66850000000000E+0003	 8.35938967286245E-0002	
 2.67050000000000E+0003	 8.37751289301941E-0002	
 2.67250000000000E+0003	 8.39618611317637E-0002	
 2.67450000000000E+0003	 8.41495933333333E-0002	
 2.67650000000000E+0003	 8.43368255349029E-0002	
 2.67850000000000E+0003	 8.45225577364725E-0002	
 2.68050000000000E+0003	 8.47002899380421E-0002	
 2.68250000000000E+0003	 8.48650221396117E-0002	
 2.68450000000000E+0003	 8.50252543411813E-0002	
 2.68650000000000E+0003	 8.51939865427509E-0002	
 2.68850000000000E+0003	 8.53672187443205E-0002	
 2.69050000000000E+0003	 8.55424509458901E-0002	
 2.69250000000000E+0003	 8.57166831474597E-0002	
 2.69450000000000E+0003	 8.58929153490293E-0002	
 2.69650000000000E+0003	 8.60736475505989E-0002	
 2.69850000000000E+0003	 8.62588797521685E-0002	
 2.70050000000000E+0003	 8.64436119537381E-0002	
 2.70250000000000E+0003	 8.66333441553077E-0002	
 2.70450000000000E+0003	 8.68290763568773E-0002	
 2.70650000000000E+0003	 8.70303085584469E-0002	
 2.70850000000000E+0003	 8.72380407600165E-0002	
 2.71050000000000E+0003	 8.74552729615861E-0002	
 2.71250000000000E+0003	 8.76725051631557E-0002	
 2.71450000000000E+0003	 8.78962373647253E-0002	
 2.71650000000000E+0003	 8.81284695662949E-0002	
 2.71850000000000E+0003	 8.83657017678645E-0002	
 2.72050000000000E+0003	 8.86104339694341E-0002	
 2.72250000000000E+0003	 8.88631661710037E-0002	
 2.72450000000000E+0003	 8.91163983725733E-0002	
 2.72650000000000E+0003	 8.93671305741429E-0002	
 2.72850000000000E+0003	 8.95873627757125E-0002	
 2.73050000000000E+0003	 8.98020949772821E-0002	
 2.73250000000000E+0003	 9.00308271788517E-0002	
 2.73450000000000E+0003	 9.02600593804213E-0002	
 2.73650000000000E+0003	 9.04922915819909E-0002	
 2.73850000000000E+0003	 9.07175237835605E-0002	
 2.74050000000000E+0003	 9.09297559851301E-0002	
 2.74250000000000E+0003	 9.11404881866997E-0002	
 2.74450000000000E+0003	 9.13567203882693E-0002	
 2.74650000000000E+0003	 9.15889525898389E-0002	
 2.74850000000000E+0003	 9.18191847914085E-0002	
 2.75050000000000E+0003	 9.20224169929781E-0002	
 2.75250000000000E+0003	 9.22131491945477E-0002	
 2.75450000000000E+0003	 9.24208813961173E-0002	
 2.75650000000000E+0003	 9.26451135976869E-0002	
 2.75850000000000E+0003	 9.28698457992565E-0002	
 2.76050000000000E+0003	 9.30935780008261E-0002	
 2.76250000000000E+0003	 9.33243102023957E-0002	
 2.76450000000000E+0003	 9.35605424039653E-0002	
 2.76650000000000E+0003	 9.38002746055349E-0002	
 2.76850000000000E+0003	 9.40415068071045E-0002	
 2.77050000000000E+0003	 9.42887390086741E-0002	
 2.77250000000000E+0003	 9.45514712102437E-0002	
 2.77450000000000E+0003	 9.48307034118133E-0002	
 2.77650000000000E+0003	 9.50834356133829E-0002	
 2.77850000000000E+0003	 9.53196678149525E-0002	
 2.78050000000000E+0003	 9.55784000165221E-0002	
 2.78250000000000E+0003	 9.58576322180917E-0002	
 2.78450000000000E+0003	 9.61408644196613E-0002	
 2.78650000000000E+0003	 9.64450966212309E-0002	
 2.78850000000000E+0003	 9.67798288228005E-0002	
 2.79050000000000E+0003	 9.71035610243701E-0002	
 2.79250000000000E+0003	 9.73937932259397E-0002	
 2.79450000000000E+0003	 9.76975254275093E-0002	
 2.79650000000000E+0003	 9.80357576290789E-0002	
 2.79850000000000E+0003	 9.83859898306485E-0002	
 2.80050000000000E+0003	 9.87007220322181E-0002	
 2.80250000000000E+0003	 9.90099542337877E-0002	
 2.80450000000000E+0003	 9.93461864353573E-0002	
 2.80650000000000E+0003	 9.97004186369269E-0002	
 2.80850000000000E+0003	 1.00074150838496E-0001	
 2.81050000000000E+0003	 1.00455883040066E-0001	
 2.81250000000000E+0003	 1.00813615241636E-0001	
 2.81450000000000E+0003	 1.01180347443205E-0001	
 2.81650000000000E+0003	 1.01566079644775E-0001	
 2.81850000000000E+0003	 1.01966311846344E-0001	
 2.82050000000000E+0003	 1.02382044047914E-0001	
 2.82250000000000E+0003	 1.02817776249484E-0001	
 2.82450000000000E+0003	 1.03265508451053E-0001	
 2.82650000000000E+0003	 1.03726740652623E-0001	
 2.82850000000000E+0003	 1.04207972854192E-0001	
 2.83050000000000E+0003	 1.04730705055762E-0001	
 2.83250000000000E+0003	 1.05304937257332E-0001	
 2.83450000000000E+0003	 1.05930669458901E-0001	
 2.83650000000000E+0003	 1.06629901660471E-0001	
 2.83850000000000E+0003	 1.07438133862040E-0001	
 2.84050000000000E+0003	 1.08299366063610E-0001	
 2.84250000000000E+0003	 1.09294598265180E-0001	
 2.84450000000000E+0003	 1.10592830466749E-0001	
 2.84650000000000E+0003	 1.12215062668319E-0001	
 2.84850000000000E+0003	 1.14034794869888E-0001	
 2.85050000000000E+0003	 1.15813527071458E-0001	
 2.85250000000000E+0003	 1.17310259273028E-0001	
 2.85450000000000E+0003	 1.18331991474597E-0001	
 2.85650000000000E+0003	 1.18885223676167E-0001	
 2.85850000000000E+0003	 1.19178455877736E-0001	
 2.86050000000000E+0003	 1.19420188079306E-0001	
 2.86250000000000E+0003	 1.19742920280876E-0001	
 2.86450000000000E+0003	 1.20280152482445E-0001	
 2.86650000000000E+0003	 1.21050384684015E-0001	
 2.86850000000000E+0003	 1.21969116885584E-0001	
 2.87050000000000E+0003	 1.22963349087154E-0001	
 2.87250000000000E+0003	 1.23924581288724E-0001	
 2.87450000000000E+0003	 1.24600813490293E-0001	
 2.87650000000000E+0003	 1.24913545691863E-0001	
 2.87850000000000E+0003	 1.25063777893432E-0001	
 2.88050000000000E+0003	 1.25172010095002E-0001	
 2.88250000000000E+0003	 1.25287742296572E-0001	
 2.88450000000000E+0003	 1.25468474498141E-0001	
 2.88650000000000E+0003	 1.25745206699711E-0001	
 2.88850000000000E+0003	 1.26126438901280E-0001	
 2.89050000000000E+0003	 1.26608671102850E-0001	
 2.89250000000000E+0003	 1.27184903304420E-0001	
 2.89450000000000E+0003	 1.27864135505989E-0001	
 2.89650000000000E+0003	 1.28597867707559E-0001	
 2.89850000000000E+0003	 1.29334599909128E-0001	
 2.90050000000000E+0003	 1.30133832110698E-0001	
 2.90250000000000E+0003	 1.31038564312268E-0001	
 2.90450000000000E+0003	 1.32047796513837E-0001	
 2.90650000000000E+0003	 1.33164528715407E-0001	
 2.90850000000000E+0003	 1.34445260916976E-0001	
 2.91050000000000E+0003	 1.35952493118546E-0001	
 2.91250000000000E+0003	 1.37700225320116E-0001	
 2.91450000000000E+0003	 1.39591457521685E-0001	
 2.91650000000000E+0003	 1.41514689723255E-0001	
 2.91850000000000E+0003	 1.43422421924824E-0001	
 2.92050000000000E+0003	 1.45196654126394E-0001	
 2.92250000000000E+0003	 1.46734386327964E-0001	
 2.92450000000000E+0003	 1.47938618529533E-0001	
 2.92650000000000E+0003	 1.48785850731103E-0001	
 2.92850000000000E+0003	 1.49344082932672E-0001	
 2.93050000000000E+0003	 1.49577315134242E-0001	
 2.93250000000000E+0003	 1.49438047335812E-0001	
 2.93450000000000E+0003	 1.49045279537381E-0001	
 2.93650000000000E+0003	 1.48421511738951E-0001	
 2.93850000000000E+0003	 1.47555743940520E-0001	
 2.94050000000000E+0003	 1.46530976142090E-0001	
 2.94250000000000E+0003	 1.45500208343660E-0001	
 2.94450000000000E+0003	 1.44521440545229E-0001	
 2.94650000000000E+0003	 1.43620172746799E-0001	
 2.94850000000000E+0003	 1.42894904948368E-0001	
 2.95050000000000E+0003	 1.42507637149938E-0001	
 2.95250000000000E+0003	 1.42497369351508E-0001	
 2.95450000000000E+0003	 1.42645601553077E-0001	
 2.95650000000000E+0003	 1.42843333754647E-0001	
 2.95850000000000E+0003	 1.43026565956216E-0001	
 2.96050000000000E+0003	 1.43057798157786E-0001	
 2.96250000000000E+0003	 1.42826030359356E-0001	
 2.96450000000000E+0003	 1.42248762560925E-0001	
 2.96650000000000E+0003	 1.41326494762495E-0001	
 2.96850000000000E+0003	 1.40117726964064E-0001	
 2.97050000000000E+0003	 1.38894459165634E-0001	
 2.97250000000000E+0003	 1.37942191367204E-0001	
 2.97450000000000E+0003	 1.37104423568773E-0001	
 2.97650000000000E+0003	 1.36173655770343E-0001	
 2.97850000000000E+0003	 1.35238887971912E-0001	
 2.98050000000000E+0003	 1.34336620173482E-0001	
 2.98250000000000E+0003	 1.33407852375052E-0001	
 2.98450000000000E+0003	 1.32499584576621E-0001	
 2.98650000000000E+0003	 1.31693816778191E-0001	
 2.98850000000000E+0003	 1.30999548979760E-0001	
 2.99050000000000E+0003	 1.30437781181330E-0001	
 2.99250000000000E+0003	 1.29976513382900E-0001	
 2.99450000000000E+0003	 1.29527245584469E-0001	
 2.99650000000000E+0003	 1.29193977786039E-0001	
 2.99850000000000E+0003	 1.28997709987608E-0001	
 3.00050000000000E+0003	 1.28866942189178E-0001	
 3.00250000000000E+0003	 1.28871174390748E-0001	
 3.00450000000000E+0003	 1.29000906592317E-0001	
 3.00650000000000E+0003	 1.29210138793887E-0001	
 3.00850000000000E+0003	 1.29544370995456E-0001	
 3.01050000000000E+0003	 1.30034603197026E-0001	
 3.01250000000000E+0003	 1.30567335398596E-0001	
 3.01450000000000E+0003	 1.31024567600165E-0001	
 3.01650000000000E+0003	 1.31448799801735E-0001	
 3.01850000000000E+0003	 1.31962032003304E-0001	
 3.02050000000000E+0003	 1.32553764204874E-0001	
 3.02250000000000E+0003	 1.33195996406444E-0001	
 3.02450000000000E+0003	 1.33917728608013E-0001	
 3.02650000000000E+0003	 1.34635960809583E-0001	
 3.02850000000000E+0003	 1.35368193011152E-0001	
 3.03050000000000E+0003	 1.36163925212722E-0001	
 3.03250000000000E+0003	 1.37001157414292E-0001	
 3.03450000000000E+0003	 1.37838889615861E-0001	
 3.03650000000000E+0003	 1.38596621817431E-0001	
 3.03850000000000E+0003	 1.39375354019000E-0001	
 3.04050000000000E+0003	 1.40291586220570E-0001	
 3.04250000000000E+0003	 1.41221818422140E-0001	
 3.04450000000000E+0003	 1.42061050623709E-0001	
 3.04650000000000E+0003	 1.42846282825279E-0001	
 3.04850000000000E+0003	 1.43668015026848E-0001	
 3.05050000000000E+0003	 1.44570747228418E-0001	
 3.05250000000000E+0003	 1.45452479429988E-0001	
 3.05450000000000E+0003	 1.46306711631557E-0001	
 3.05650000000000E+0003	 1.47167443833127E-0001	
 3.05850000000000E+0003	 1.47986676034696E-0001	
 3.06050000000000E+0003	 1.48775908236266E-0001	
 3.06250000000000E+0003	 1.49572140437836E-0001	
 3.06450000000000E+0003	 1.50362872639405E-0001	
 3.06650000000000E+0003	 1.51137104840975E-0001	
 3.06850000000000E+0003	 1.51830337042544E-0001	
 3.07050000000000E+0003	 1.52421569244114E-0001	
 3.07250000000000E+0003	 1.53016301445684E-0001	
 3.07450000000000E+0003	 1.53659033647253E-0001	
 3.07650000000000E+0003	 1.54369265848823E-0001	
 3.07850000000000E+0003	 1.55087998050392E-0001	
 3.08050000000000E+0003	 1.55699230251962E-0001	
 3.08250000000000E+0003	 1.56241462453532E-0001	
 3.08450000000000E+0003	 1.56796694655101E-0001	
 3.08650000000000E+0003	 1.57315926856671E-0001	
 3.08850000000000E+0003	 1.57833159058240E-0001	
 3.09050000000000E+0003	 1.58375891259810E-0001	
 3.09250000000000E+0003	 1.58861123461380E-0001	
 3.09450000000000E+0003	 1.59324855662949E-0001	
 3.09650000000000E+0003	 1.59836087864519E-0001	
 3.09850000000000E+0003	 1.60398320066088E-0001	
 3.10050000000000E+0003	 1.60967552267658E-0001	
 3.10250000000000E+0003	 1.61481784469228E-0001	
 3.10450000000000E+0003	 1.62003516670797E-0001	
 3.10650000000000E+0003	 1.62617748872367E-0001	
 3.10850000000000E+0003	 1.63292981073936E-0001	
 3.11050000000000E+0003	 1.63905213275506E-0001	
 3.11250000000000E+0003	 1.64520445477076E-0001	
 3.11450000000000E+0003	 1.65288177678645E-0001	
 3.11650000000000E+0003	 1.66121409880215E-0001	
 3.11850000000000E+0003	 1.66900642081784E-0001	
 3.12050000000000E+0003	 1.67622874283354E-0001	
 3.12250000000000E+0003	 1.68274606484924E-0001	
 3.12450000000000E+0003	 1.68959838686493E-0001	
 3.12650000000000E+0003	 1.69765070888063E-0001	
 3.12850000000000E+0003	 1.70658303089632E-0001	
 3.13050000000000E+0003	 1.71563535291202E-0001	
 3.13250000000000E+0003	 1.72435267492772E-0001	
 3.13450000000000E+0003	 1.73339499694341E-0001	
 3.13650000000000E+0003	 1.74337231895911E-0001	
 3.13850000000000E+0003	 1.75408464097480E-0001	
 3.14050000000000E+0003	 1.76402696299050E-0001	
 3.14250000000000E+0003	 1.77307428500620E-0001	
 3.14450000000000E+0003	 1.78273160702189E-0001	
 3.14650000000000E+0003	 1.79313892903759E-0001	
 3.14850000000000E+0003	 1.80409625105328E-0001	
 3.15050000000000E+0003	 1.81621857306898E-0001	
 3.15250000000000E+0003	 1.82858089508468E-0001	
 3.15450000000000E+0003	 1.83920321710037E-0001	
 3.15650000000000E+0003	 1.84933553911607E-0001	
 3.15850000000000E+0003	 1.86041786113176E-0001	
 3.16050000000000E+0003	 1.87210018314746E-0001	
 3.16250000000000E+0003	 1.88405250516316E-0001	
 3.16450000000000E+0003	 1.89614982717885E-0001	
 3.16650000000000E+0003	 1.90831214919455E-0001	
 3.16850000000000E+0003	 1.92051447121024E-0001	
 3.17050000000000E+0003	 1.93277179322594E-0001	
 3.17250000000000E+0003	 1.94506911524164E-0001	
 3.17450000000000E+0003	 1.95738143725733E-0001	
 3.17650000000000E+0003	 1.96972375927303E-0001	
 3.17850000000000E+0003	 1.98214608128872E-0001	
 3.18050000000000E+0003	 1.99449340330442E-0001	
 3.18250000000000E+0003	 2.00669072532012E-0001	
 3.18450000000000E+0003	 2.01886304733581E-0001	
 3.18650000000000E+0003	 2.03101036935151E-0001	
 3.18850000000000E+0003	 2.04306769136720E-0001	
 3.19050000000000E+0003	 2.05488001338290E-0001	
 3.19250000000000E+0003	 2.06649233539860E-0001	
 3.19450000000000E+0003	 2.07796965741429E-0001	
 3.19650000000000E+0003	 2.08931697942999E-0001	
 3.19850000000000E+0003	 2.10060430144568E-0001	
 3.20050000000000E+0003	 2.11183162346138E-0001	
 3.20250000000000E+0003	 2.12291894547708E-0001	
 3.20450000000000E+0003	 2.13387626749277E-0001	
 3.20650000000000E+0003	 2.14472358950847E-0001	
 3.20850000000000E+0003	 2.15535091152416E-0001	
 3.21050000000000E+0003	 2.16591823353986E-0001	
 3.21250000000000E+0003	 2.17665055555556E-0001	
 3.21450000000000E+0003	 2.18737787757125E-0001	
 3.21650000000000E+0003	 2.19794019958695E-0001	
 3.21850000000000E+0003	 2.20849752160264E-0001	
 3.22050000000000E+0003	 2.21892484361834E-0001	
 3.22250000000000E+0003	 2.22919716563404E-0001	
 3.22450000000000E+0003	 2.23964448764973E-0001	
 3.22650000000000E+0003	 2.25027180966543E-0001	
 3.22850000000000E+0003	 2.26113913168112E-0001	
 3.23050000000000E+0003	 2.27268145369682E-0001	
 3.23250000000000E+0003	 2.28508377571252E-0001	
 3.23450000000000E+0003	 2.29647109772821E-0001	
 3.23650000000000E+0003	 2.30640341974391E-0001	
 3.23850000000000E+0003	 2.31691574175960E-0001	
 3.24050000000000E+0003	 2.32842806377530E-0001	
 3.24250000000000E+0003	 2.34043038579100E-0001	
 3.24450000000000E+0003	 2.35313770780669E-0001	
 3.24650000000000E+0003	 2.36631502982239E-0001	
 3.24850000000000E+0003	 2.37867235183808E-0001	
 3.25050000000000E+0003	 2.39049467385378E-0001	
 3.25250000000000E+0003	 2.40310699586948E-0001	
 3.25450000000000E+0003	 2.41660931788517E-0001	
 3.25650000000000E+0003	 2.43008163990087E-0001	
 3.25850000000000E+0003	 2.44294896191656E-0001	
 3.26050000000000E+0003	 2.45590628393226E-0001	
 3.26250000000000E+0003	 2.46913860594796E-0001	
 3.26450000000000E+0003	 2.48237592796365E-0001	
 3.26650000000000E+0003	 2.49556324997935E-0001	
 3.26850000000000E+0003	 2.50922557199504E-0001	
 3.27050000000000E+0003	 2.52298289401074E-0001	
 3.27250000000000E+0003	 2.53514021602644E-0001	
 3.27450000000000E+0003	 2.54600753804213E-0001	
 3.27650000000000E+0003	 2.55664486005783E-0001	
 3.27850000000000E+0003	 2.56695718207352E-0001	
 3.28050000000000E+0003	 2.57707950408922E-0001	
 3.28250000000000E+0003	 2.58689182610492E-0001	
 3.28450000000000E+0003	 2.59620414812061E-0001	
 3.28650000000000E+0003	 2.60497147013631E-0001	
 3.28850000000000E+0003	 2.61351379215200E-0001	
 3.29050000000000E+0003	 2.62225111416770E-0001	
 3.29250000000000E+0003	 2.63050343618340E-0001	
 3.29450000000000E+0003	 2.63747075819909E-0001	
 3.29650000000000E+0003	 2.64356808021479E-0001	
 3.29850000000000E+0003	 2.64900040223048E-0001	
 3.30050000000000E+0003	 2.65435272424618E-0001	
 3.30250000000000E+0003	 2.66044504626188E-0001	
 3.30450000000000E+0003	 2.66728736827757E-0001	
 3.30650000000000E+0003	 2.67327469029327E-0001	
 3.30850000000000E+0003	 2.67747701230896E-0001	
 3.31050000000000E+0003	 2.68073933432466E-0001	
 3.31250000000000E+0003	 2.68420665634036E-0001	
 3.31450000000000E+0003	 2.68828897835605E-0001	
 3.31650000000000E+0003	 2.69263630037175E-0001	
 3.31850000000000E+0003	 2.69697862238744E-0001	
 3.32050000000000E+0003	 2.70142094440314E-0001	
 3.32250000000000E+0003	 2.70619326641884E-0001	
 3.32450000000000E+0003	 2.71145058843453E-0001	
 3.32650000000000E+0003	 2.71637291045023E-0001	
 3.32850000000000E+0003	 2.72053023246592E-0001	
 3.33050000000000E+0003	 2.72488755448162E-0001	
 3.33250000000000E+0003	 2.72980487649732E-0001	
 3.33450000000000E+0003	 2.73516219851301E-0001	
 3.33650000000000E+0003	 2.74130452052871E-0001	
 3.33850000000000E+0003	 2.74751684254440E-0001	
 3.34050000000000E+0003	 2.75273416456010E-0001	
 3.34250000000000E+0003	 2.75771648657580E-0001	
 3.34450000000000E+0003	 2.76284380859149E-0001	
 3.34650000000000E+0003	 2.76798113060719E-0001	
 3.34850000000000E+0003	 2.77421345262288E-0001	
 3.35050000000000E+0003	 2.78094077463858E-0001	
 3.35250000000000E+0003	 2.78615809665428E-0001	
 3.35450000000000E+0003	 2.79058041866997E-0001	
 3.35650000000000E+0003	 2.79583774068567E-0001	
 3.35850000000000E+0003	 2.80186006270136E-0001	
 3.36050000000000E+0003	 2.80800738471706E-0001	
 3.36250000000000E+0003	 2.81365470673276E-0001	
 3.36450000000000E+0003	 2.81977202874845E-0001	
 3.36650000000000E+0003	 2.82709935076415E-0001	
 3.36850000000000E+0003	 2.83420667277984E-0001	
 3.37050000000000E+0003	 2.83908899479554E-0001	
 3.37250000000000E+0003	 2.84244631681124E-0001	
 3.37450000000000E+0003	 2.84676363882693E-0001	
 3.37650000000000E+0003	 2.85227096084263E-0001	
 3.37850000000000E+0003	 2.85773828285832E-0001	
 3.38050000000000E+0003	 2.86289560487402E-0001	
 3.38250000000000E+0003	 2.86768292688971E-0001	
 3.38450000000000E+0003	 2.87246524890541E-0001	
 3.38650000000000E+0003	 2.87757257092111E-0001	
 3.38850000000000E+0003	 2.88362989293680E-0001	
 3.39050000000000E+0003	 2.89082221495250E-0001	
 3.39250000000000E+0003	 2.89648953696819E-0001	
 3.39450000000000E+0003	 2.89953685898389E-0001	
 3.39650000000000E+0003	 2.90316418099959E-0001	
 3.39850000000000E+0003	 2.90944650301528E-0001	
 3.40050000000000E+0003	 2.91601382503098E-0001	
 3.40250000000000E+0003	 2.91884114704667E-0001	
 3.40450000000000E+0003	 2.91965846906237E-0001	
 3.40650000000000E+0003	 2.92232079107807E-0001	
 3.40850000000000E+0003	 2.92650311309376E-0001	
 3.41050000000000E+0003	 2.93024543510946E-0001	
 3.41250000000000E+0003	 2.93333275712515E-0001	
 3.41450000000000E+0003	 2.93532007914085E-0001	
 3.41650000000000E+0003	 2.93670240115655E-0001	
 3.41850000000000E+0003	 2.93871472317224E-0001	
 3.42050000000000E+0003	 2.94094704518794E-0001	
 3.42250000000000E+0003	 2.94241436720363E-0001	
 3.42450000000000E+0003	 2.94364668921933E-0001	
 3.42650000000000E+0003	 2.94545901123503E-0001	
 3.42850000000000E+0003	 2.94761633325072E-0001	
 3.43050000000000E+0003	 2.94878365526642E-0001	
 3.43250000000000E+0003	 2.94929597728211E-0001	
 3.43450000000000E+0003	 2.95050329929781E-0001	
 3.43650000000000E+0003	 2.95054562131351E-0001	
 3.43850000000000E+0003	 2.94779794332920E-0001	
 3.44050000000000E+0003	 2.94426026534490E-0001	
 3.44250000000000E+0003	 2.94182258736059E-0001	
 3.44450000000000E+0003	 2.94018990937629E-0001	
 3.44650000000000E+0003	 2.93843723139199E-0001	
 3.44850000000000E+0003	 2.93592455340768E-0001	
 3.45050000000000E+0003	 2.93284187542338E-0001	
 3.45250000000000E+0003	 2.92971419743907E-0001	
 3.45450000000000E+0003	 2.92643651945477E-0001	
 3.45650000000000E+0003	 2.92325384147047E-0001	
 3.45850000000000E+0003	 2.92059616348616E-0001	
 3.46050000000000E+0003	 2.91726848550186E-0001	
 3.46250000000000E+0003	 2.91248080751755E-0001	
 3.46450000000000E+0003	 2.90877312953325E-0001	
 3.46650000000000E+0003	 2.90696545154895E-0001	
 3.46850000000000E+0003	 2.90362777356464E-0001	
 3.47050000000000E+0003	 2.89611009558034E-0001	
 3.47250000000000E+0003	 2.88717741759603E-0001	
 3.47450000000000E+0003	 2.88000473961173E-0001	
 3.47650000000000E+0003	 2.87451706162743E-0001	
 3.47850000000000E+0003	 2.86996938364312E-0001	
 3.48050000000000E+0003	 2.86385170565882E-0001	
 3.48250000000000E+0003	 2.85544402767451E-0001	
 3.48450000000000E+0003	 2.84804634969021E-0001	
 3.48650000000000E+0003	 2.84164367170591E-0001	
 3.48850000000000E+0003	 2.83405099372160E-0001	
 3.49050000000000E+0003	 2.82584331573730E-0001	
 3.49250000000000E+0003	 2.81840063775299E-0001	
 3.49450000000000E+0003	 2.81139795976869E-0001	
 3.49650000000000E+0003	 2.80416528178439E-0001	
 3.49850000000000E+0003	 2.79614260380008E-0001	
 3.50050000000000E+0003	 2.78834992581578E-0001	
 3.50250000000000E+0003	 2.78055224783147E-0001	
 3.50450000000000E+0003	 2.77046456984717E-0001	
 3.50650000000000E+0003	 2.75963689186287E-0001	
 3.50850000000000E+0003	 2.75008921387856E-0001	
 3.51050000000000E+0003	 2.74148153589426E-0001	
 3.51250000000000E+0003	 2.73365885790995E-0001	
 3.51450000000000E+0003	 2.72487117992565E-0001	
 3.51650000000000E+0003	 2.71447350194135E-0001	
 3.51850000000000E+0003	 2.70418082395704E-0001	
 3.52050000000000E+0003	 2.69516314597274E-0001	
 3.52250000000000E+0003	 2.68727546798843E-0001	
 3.52450000000000E+0003	 2.67768779000413E-0001	
 3.52650000000000E+0003	 2.66574011201983E-0001	
 3.52850000000000E+0003	 2.65419243403552E-0001	
 3.53050000000000E+0003	 2.64344975605122E-0001	
 3.53250000000000E+0003	 2.63317207806691E-0001	
 3.53450000000000E+0003	 2.62385940008261E-0001	
 3.53650000000000E+0003	 2.61395172209831E-0001	
 3.53850000000000E+0003	 2.60182904411400E-0001	
 3.54050000000000E+0003	 2.59039136612970E-0001	
 3.54250000000000E+0003	 2.58096368814539E-0001	
 3.54450000000000E+0003	 2.57090601016109E-0001	
 3.54650000000000E+0003	 2.55734833217679E-0001	
 3.54850000000000E+0003	 2.54219065419248E-0001	
 3.55050000000000E+0003	 2.52880297620818E-0001	
 3.55250000000000E+0003	 2.51564029822387E-0001	
 3.55450000000000E+0003	 2.50162262023957E-0001	
 3.55650000000000E+0003	 2.48815994225527E-0001	
 3.55850000000000E+0003	 2.47525726427096E-0001	
 3.56050000000000E+0003	 2.46224458628666E-0001	
 3.56250000000000E+0003	 2.44827190830235E-0001	
 3.56450000000000E+0003	 2.43355923031805E-0001	
 3.56650000000000E+0003	 2.41857655233375E-0001	
 3.56850000000000E+0003	 2.40364887434944E-0001	
 3.57050000000000E+0003	 2.38872119636514E-0001	
 3.57250000000000E+0003	 2.37310851838083E-0001	
 3.57450000000000E+0003	 2.35723084039653E-0001	
 3.57650000000000E+0003	 2.34159316241223E-0001	
 3.57850000000000E+0003	 2.32620548442792E-0001	
 3.58050000000000E+0003	 2.31138280644362E-0001	
 3.58250000000000E+0003	 2.29709512845931E-0001	
 3.58450000000000E+0003	 2.28281745047501E-0001	
 3.58650000000000E+0003	 2.26585477249071E-0001	
 3.58850000000000E+0003	 2.24577709450640E-0001	
 3.59050000000000E+0003	 2.22753941652210E-0001	
 3.59250000000000E+0003	 2.21126673853779E-0001	
 3.59450000000000E+0003	 2.19395906055349E-0001	
 3.59650000000000E+0003	 2.17660638256919E-0001	
 3.59850000000000E+0003	 2.16023370458488E-0001	
 3.60050000000000E+0003	 2.14314602660058E-0001	
 3.60250000000000E+0003	 2.12534834861627E-0001	
 3.60450000000000E+0003	 2.10791567063197E-0001	
 3.60650000000000E+0003	 2.08991799264767E-0001	
 3.60850000000000E+0003	 2.07095031466336E-0001	
 3.61050000000000E+0003	 2.05224763667906E-0001	
 3.61250000000000E+0003	 2.03450995869475E-0001	
 3.61450000000000E+0003	 2.01708228071045E-0001	
 3.61650000000000E+0003	 1.99978960272615E-0001	
 3.61850000000000E+0003	 1.98221192474184E-0001	
 3.62050000000000E+0003	 1.96380424675754E-0001	
 3.62250000000000E+0003	 1.94513656877323E-0001	
 3.62450000000000E+0003	 1.92701389078893E-0001	
 3.62650000000000E+0003	 1.90905621280463E-0001	
 3.62850000000000E+0003	 1.88954853482032E-0001	
 3.63050000000000E+0003	 1.86902085683602E-0001	
 3.63250000000000E+0003	 1.85109317885171E-0001	
 3.63450000000000E+0003	 1.83392050086741E-0001	
 3.63650000000000E+0003	 1.81585282288311E-0001	
 3.63850000000000E+0003	 1.79790014489880E-0001	
 3.64050000000000E+0003	 1.78016746691450E-0001	
 3.64250000000000E+0003	 1.76293478893019E-0001	
 3.64450000000000E+0003	 1.74647211094589E-0001	
 3.64650000000000E+0003	 1.73055943296159E-0001	
 3.64850000000000E+0003	 1.71412675497728E-0001	
 3.65050000000000E+0003	 1.69679407699298E-0001	
 3.65250000000000E+0003	 1.67887139900867E-0001	
 3.65450000000000E+0003	 1.66217372102437E-0001	
 3.65650000000000E+0003	 1.64656104304007E-0001	
 3.65850000000000E+0003	 1.63156336505576E-0001	
 3.66050000000000E+0003	 1.61666568707146E-0001	
 3.66250000000000E+0003	 1.60055800908715E-0001	
 3.66450000000000E+0003	 1.58504533110285E-0001	
 3.66650000000000E+0003	 1.57125765311855E-0001	
 3.66850000000000E+0003	 1.55779997513424E-0001	
 3.67050000000000E+0003	 1.54416229714994E-0001	
 3.67250000000000E+0003	 1.53150461916563E-0001	
 3.67450000000000E+0003	 1.51996194118133E-0001	
 3.67650000000000E+0003	 1.50735426319703E-0001	
 3.67850000000000E+0003	 1.49509658521272E-0001	
 3.68050000000000E+0003	 1.48429390722842E-0001	
 3.68250000000000E+0003	 1.47409622924411E-0001	
 3.68450000000000E+0003	 1.46501355125981E-0001	
 3.68650000000000E+0003	 1.45757087327551E-0001	
 3.68850000000000E+0003	 1.45024319529120E-0001	
 3.69050000000000E+0003	 1.43997551730690E-0001	
 3.69250000000000E+0003	 1.42952783932259E-0001	
 3.69450000000000E+0003	 1.42125516133829E-0001	
 3.69650000000000E+0003	 1.41399248335399E-0001	
 3.69850000000000E+0003	 1.40660980536968E-0001	
 3.70050000000000E+0003	 1.39950712738538E-0001	
 3.70250000000000E+0003	 1.39283444940107E-0001	
 3.70450000000000E+0003	 1.38647177141677E-0001	
 3.70650000000000E+0003	 1.38049409343247E-0001	
 3.70850000000000E+0003	 1.37470641544816E-0001	
 3.71050000000000E+0003	 1.36900873746386E-0001	
 3.71250000000000E+0003	 1.36374105947955E-0001	
 3.71450000000000E+0003	 1.35867338149525E-0001	
 3.71650000000000E+0003	 1.35412570351095E-0001	
 3.71850000000000E+0003	 1.34992302552664E-0001	
 3.72050000000000E+0003	 1.34558034754234E-0001	
 3.72250000000000E+0003	 1.34140266955803E-0001	
 3.72450000000000E+0003	 1.33699499157373E-0001	
 3.72650000000000E+0003	 1.33246731358943E-0001	
 3.72850000000000E+0003	 1.32816463560512E-0001	
 3.73050000000000E+0003	 1.32474695762082E-0001	
 3.73250000000000E+0003	 1.32210927963651E-0001	
 3.73450000000000E+0003	 1.31913160165221E-0001	
 3.73650000000000E+0003	 1.31579892366791E-0001	
 3.73850000000000E+0003	 1.31220124568360E-0001	
 3.74050000000000E+0003	 1.30832856769930E-0001	
 3.74250000000000E+0003	 1.30390588971499E-0001	
 3.74450000000000E+0003	 1.30042321173069E-0001	
 3.74650000000000E+0003	 1.29728053374639E-0001	
 3.74850000000000E+0003	 1.29452785576208E-0001	
 3.75050000000000E+0003	 1.29190517777778E-0001	
 3.75250000000000E+0003	 1.28948749979347E-0001	
 3.75450000000000E+0003	 1.28676982180917E-0001	
 3.75650000000000E+0003	 1.28404214382487E-0001	
 3.75850000000000E+0003	 1.28138946584056E-0001	
 3.76050000000000E+0003	 1.27885678785626E-0001	
 3.76250000000000E+0003	 1.27624410987195E-0001	
 3.76450000000000E+0003	 1.27392643188765E-0001	
 3.76650000000000E+0003	 1.27167875390335E-0001	
 3.76850000000000E+0003	 1.26928607591904E-0001	
 3.77050000000000E+0003	 1.26706839793474E-0001	
 3.77250000000000E+0003	 1.26460571995043E-0001	
 3.77450000000000E+0003	 1.26232804196613E-0001	
 3.77650000000000E+0003	 1.26052036398183E-0001	
 3.77850000000000E+0003	 1.25921268599752E-0001	
 3.78050000000000E+0003	 1.25741000801322E-0001	
 3.78250000000000E+0003	 1.25466233002891E-0001	
 3.78450000000000E+0003	 1.25226465204461E-0001	
 3.78650000000000E+0003	 1.25032197406031E-0001	
 3.78850000000000E+0003	 1.24856429607600E-0001	
 3.79050000000000E+0003	 1.24690161809170E-0001	
 3.79250000000000E+0003	 1.24510394010739E-0001	
 3.79450000000000E+0003	 1.24313126212309E-0001	
 3.79650000000000E+0003	 1.24166358413879E-0001	
 3.79850000000000E+0003	 1.23995590615448E-0001	
 3.80050000000000E+0003	 1.23814822817018E-0001	
 3.80250000000000E+0003	 1.23699055018587E-0001	
 3.80450000000000E+0003	 1.23529787220157E-0001	
 3.80650000000000E+0003	 1.23366519421727E-0001	
 3.80850000000000E+0003	 1.23209251623296E-0001	
 3.81050000000000E+0003	 1.23053983824866E-0001	
 3.81250000000000E+0003	 1.22917216026435E-0001	
 3.81450000000000E+0003	 1.22791948228005E-0001	
 3.81650000000000E+0003	 1.22722180429575E-0001	
 3.81850000000000E+0003	 1.22598912631144E-0001	
 3.82050000000000E+0003	 1.22485644832714E-0001	
 3.82250000000000E+0003	 1.22359877034283E-0001	
 3.82450000000000E+0003	 1.22172609235853E-0001	
 3.82650000000000E+0003	 1.22034841437423E-0001	
 3.82850000000000E+0003	 1.21913573638992E-0001	
 3.83050000000000E+0003	 1.21791305840562E-0001	
 3.83250000000000E+0003	 1.21707038042131E-0001	
 3.83450000000000E+0003	 1.21692770243701E-0001	
 3.83650000000000E+0003	 1.21672502445271E-0001	
 3.83850000000000E+0003	 1.21538234646840E-0001	
 3.84050000000000E+0003	 1.21354966848410E-0001	
 3.84250000000000E+0003	 1.21228699049979E-0001	
 3.84450000000000E+0003	 1.21157931251549E-0001	
 3.84650000000000E+0003	 1.21067163453119E-0001	
 3.84850000000000E+0003	 1.20955395654688E-0001	
 3.85050000000000E+0003	 1.20835127856258E-0001	
 3.85250000000000E+0003	 1.20710860057827E-0001	
 3.85450000000000E+0003	 1.20612592259397E-0001	
 3.85650000000000E+0003	 1.20519824460967E-0001	
 3.85850000000000E+0003	 1.20447056662536E-0001	
 3.86050000000000E+0003	 1.20393788864106E-0001	
 3.86250000000000E+0003	 1.20320521065675E-0001	
 3.86450000000000E+0003	 1.20264253267245E-0001	
 3.86650000000000E+0003	 1.20198485468815E-0001	
 3.86850000000000E+0003	 1.20123717670384E-0001	
 3.87050000000000E+0003	 1.20076449871954E-0001	
 3.87250000000000E+0003	 1.19966182073523E-0001	
 3.87450000000000E+0003	 1.19892914275093E-0001	
 3.87650000000000E+0003	 1.19824646476663E-0001	
 3.87850000000000E+0003	 1.19759378678232E-0001	
 3.88050000000000E+0003	 1.19737110879802E-0001	
 3.88250000000000E+0003	 1.19712343081371E-0001	
 3.88450000000000E+0003	 1.19709075282941E-0001	
 3.88650000000000E+0003	 1.19666307484511E-0001	
 3.88850000000000E+0003	 1.19522539686080E-0001	
 3.89050000000000E+0003	 1.19445271887650E-0001	
 3.89250000000000E+0003	 1.19392504089219E-0001	
 3.89450000000000E+0003	 1.19321236290789E-0001	
 3.89650000000000E+0003	 1.19273468492359E-0001	
 3.89850000000000E+0003	 1.19270200693928E-0001	
 3.90050000000000E+0003	 1.19264432895498E-0001	
 3.90250000000000E+0003	 1.19219165097067E-0001	
 3.90450000000000E+0003	 1.19153897298637E-0001	
 3.90650000000000E+0003	 1.19065129500207E-0001	
 3.90850000000000E+0003	 1.18993861701776E-0001	
 3.91050000000000E+0003	 1.18951093903346E-0001	
 3.91250000000000E+0003	 1.18927826104915E-0001	
 3.91450000000000E+0003	 1.18918558306485E-0001	
 3.91650000000000E+0003	 1.18917290508055E-0001	
 3.91850000000000E+0003	 1.18885022709624E-0001	
 3.92050000000000E+0003	 1.18846754911194E-0001	
 3.92250000000000E+0003	 1.18809487112763E-0001	
 3.92450000000000E+0003	 1.18781219314333E-0001	
 3.92650000000000E+0003	 1.18745951515903E-0001	
 3.92850000000000E+0003	 1.18724183717472E-0001	
 3.93050000000000E+0003	 1.18720415919042E-0001	
 3.93250000000000E+0003	 1.18712648120611E-0001	
 3.93450000000000E+0003	 1.18677380322181E-0001	
 3.93650000000000E+0003	 1.18626612523751E-0001	
 3.93850000000000E+0003	 1.18586844725320E-0001	
 3.94050000000000E+0003	 1.18562576926890E-0001	
 3.94250000000000E+0003	 1.18552809128459E-0001	
 3.94450000000000E+0003	 1.18522041330029E-0001	
 3.94650000000000E+0003	 1.18489273531599E-0001	
 3.94850000000000E+0003	 1.18462005733168E-0001	
 3.95050000000000E+0003	 1.18424237934738E-0001	
 3.95250000000000E+0003	 1.18392970136307E-0001	
 3.95450000000000E+0003	 1.18372202337877E-0001	
 3.95650000000000E+0003	 1.18350934539447E-0001	
 3.95850000000000E+0003	 1.18326166741016E-0001	
 3.96050000000000E+0003	 1.18299398942586E-0001	
 3.96250000000000E+0003	 1.18274631144155E-0001	
 3.96450000000000E+0003	 1.18253863345725E-0001	
 3.96650000000000E+0003	 1.18234595547295E-0001	
 3.96850000000000E+0003	 1.18213827748864E-0001	
 3.97050000000000E+0003	 1.18193559950434E-0001	
 3.97250000000000E+0003	 1.18175792152003E-0001	
 3.97450000000000E+0003	 1.18163024353573E-0001	
 3.97650000000000E+0003	 1.18147756555143E-0001	
 3.97850000000000E+0003	 1.18120988756712E-0001	
 3.98050000000000E+0003	 1.18101220958282E-0001	
 3.98250000000000E+0003	 1.18111453159851E-0001	
 3.98450000000000E+0003	 1.18116685361421E-0001	
 3.98650000000000E+0003	 1.18078417562991E-0001	
 3.98850000000000E+0003	 1.18029649764560E-0001	
 3.99050000000000E+0003	 1.18000881966130E-0001	
 3.99250000000000E+0003	 1.17980614167699E-0001	
 3.99450000000000E+0003	 1.17965846369269E-0001	
 3.99650000000000E+0003	 1.17949578570838E-0001	
 3.99850000000000E+0003	 1.17932310772408E-0001	

>1	DATALINE
