*CPCWIN*

>1	DATALINE
DATALINE
1
Operator:

Description:

Remarks:





15.9.2008
10:55


_x	_y
	
	
UNIT	UNIT
 4.50500000000000E+0002	 2.19052272100145E-0001	
 4.52500000000000E+0002	 2.19525860500724E-0001	
 4.54500000000000E+0002	 2.20162948901304E-0001	
 4.56500000000000E+0002	 2.20581537301883E-0001	
 4.58500000000000E+0002	 2.20846625702462E-0001	
 4.60500000000000E+0002	 2.22509214103042E-0001	
 4.62500000000000E+0002	 2.24149302503621E-0001	
 4.64500000000000E+0002	 2.25831390904200E-0001	
 4.66500000000000E+0002	 2.26788979304780E-0001	
 4.68500000000000E+0002	 2.27397067705359E-0001	
 4.70500000000000E+0002	 2.28308656105938E-0001	
 4.72500000000000E+0002	 2.29470244506518E-0001	
 4.74500000000000E+0002	 2.30925332907097E-0001	
 4.76500000000000E+0002	 2.32540921307676E-0001	
 4.78500000000000E+0002	 2.33950009708256E-0001	
 4.80500000000000E+0002	 2.35509598108835E-0001	
 4.82500000000000E+0002	 2.36958186509414E-0001	
 4.84500000000000E+0002	 2.38612274909994E-0001	
 4.86500000000000E+0002	 2.40271363310573E-0001	
 4.88500000000000E+0002	 2.42311951711152E-0001	
 4.90500000000000E+0002	 2.44122040111732E-0001	
 4.92500000000000E+0002	 2.45729128512311E-0001	
 4.94500000000000E+0002	 2.47629216912891E-0001	
 4.96500000000000E+0002	 2.49627805313470E-0001	
 4.98500000000000E+0002	 2.51302893714049E-0001	
 5.00500000000000E+0002	 2.52664482114629E-0001	
 5.02500000000000E+0002	 2.53938570515208E-0001	
 5.04500000000000E+0002	 2.56028158915787E-0001	
 5.06500000000000E+0002	 2.58182747316367E-0001	
 5.08500000000000E+0002	 2.59997335716946E-0001	
 5.10500000000000E+0002	 2.61700924117525E-0001	
 5.12500000000000E+0002	 2.63525012518105E-0001	
 5.14500000000000E+0002	 2.65249600918684E-0001	
 5.16500000000000E+0002	 2.66799689319263E-0001	
 5.18500000000000E+0002	 2.68624777719843E-0001	
 5.20500000000000E+0002	 2.71120366120422E-0001	
 5.22500000000000E+0002	 2.73678954521001E-0001	
 5.24500000000000E+0002	 2.75625542921581E-0001	
 5.26500000000000E+0002	 2.77329631322160E-0001	
 5.28500000000000E+0002	 2.79535719722739E-0001	
 5.30500000000000E+0002	 2.81453308123319E-0001	
 5.32500000000000E+0002	 2.82574896523898E-0001	
 5.34500000000000E+0002	 2.83071984924478E-0001	
 5.36500000000000E+0002	 2.83126073325057E-0001	
 5.38500000000000E+0002	 2.82848661725636E-0001	
 5.40500000000000E+0002	 2.82516750126216E-0001	
 5.42500000000000E+0002	 2.82175838526795E-0001	
 5.44500000000000E+0002	 2.81923926927374E-0001	
 5.46500000000000E+0002	 2.81780515327954E-0001	
 5.48500000000000E+0002	 2.81737603728533E-0001	
 5.50500000000000E+0002	 2.81713692129112E-0001	
 5.52500000000000E+0002	 2.81644280529692E-0001	
 5.54500000000000E+0002	 2.81292868930271E-0001	
 5.56500000000000E+0002	 2.80695457330850E-0001	
 5.58500000000000E+0002	 2.79891045731430E-0001	
 5.60500000000000E+0002	 2.78917634132009E-0001	
 5.62500000000000E+0002	 2.77813222532588E-0001	
 5.64500000000000E+0002	 2.76774810933168E-0001	
 5.66500000000000E+0002	 2.75836899333747E-0001	
 5.68500000000000E+0002	 2.75064987734327E-0001	
 5.70500000000000E+0002	 2.74450076134906E-0001	
 5.72500000000000E+0002	 2.74001664535485E-0001	
 5.74500000000000E+0002	 2.73556252936065E-0001	
 5.76500000000000E+0002	 2.73212341336644E-0001	
 5.78500000000000E+0002	 2.73161929737223E-0001	
 5.80500000000000E+0002	 2.73065518137803E-0001	
 5.82500000000000E+0002	 2.72860606538382E-0001	
 5.84500000000000E+0002	 2.72632194938961E-0001	
 5.86500000000000E+0002	 2.72409783339541E-0001	
 5.88500000000000E+0002	 2.72396871740120E-0001	
 5.90500000000000E+0002	 2.72313460140699E-0001	
 5.92500000000000E+0002	 2.72389048541279E-0001	
 5.94500000000000E+0002	 2.72996636941858E-0001	
 5.96500000000000E+0002	 2.73872225342437E-0001	
 5.98500000000000E+0002	 2.74605313743017E-0001	
 6.00500000000000E+0002	 2.75186902143596E-0001	
 6.02500000000000E+0002	 2.75684990544175E-0001	
 6.04500000000000E+0002	 2.75887078944755E-0001	
 6.06500000000000E+0002	 2.75621167345334E-0001	
 6.08500000000000E+0002	 2.75031255745914E-0001	
 6.10500000000000E+0002	 2.74275344146493E-0001	
 6.12500000000000E+0002	 2.73556432547072E-0001	
 6.14500000000000E+0002	 2.72918520947652E-0001	
 6.16500000000000E+0002	 2.72401109348231E-0001	
 6.18500000000000E+0002	 2.71853197748810E-0001	
 6.20500000000000E+0002	 2.71276286149390E-0001	
 6.22500000000000E+0002	 2.70812374549969E-0001	
 6.24500000000000E+0002	 2.70320962950548E-0001	
 6.26500000000000E+0002	 2.69824551351128E-0001	
 6.28500000000000E+0002	 2.69464639751707E-0001	
 6.30500000000000E+0002	 2.69007228152286E-0001	
 6.32500000000000E+0002	 2.68359316552866E-0001	
 6.34500000000000E+0002	 2.67508404953445E-0001	
 6.36500000000000E+0002	 2.66640993354024E-0001	
 6.38500000000000E+0002	 2.65854581754604E-0001	
 6.40500000000000E+0002	 2.65024170155183E-0001	
 6.42500000000000E+0002	 2.64171258555762E-0001	
 6.44500000000000E+0002	 2.63296346956342E-0001	
 6.46500000000000E+0002	 2.62446435356921E-0001	
 6.48500000000000E+0002	 2.61668023757501E-0001	
 6.50500000000000E+0002	 2.60829612158080E-0001	
 6.52500000000000E+0002	 2.59938700558659E-0001	
 6.54500000000000E+0002	 2.59155288959239E-0001	
 6.56500000000000E+0002	 2.58488877359818E-0001	
 6.58500000000000E+0002	 2.57819465760397E-0001	
 6.60500000000000E+0002	 2.57217554160977E-0001	
 6.62500000000000E+0002	 2.56631642561556E-0001	
 6.64500000000000E+0002	 2.55765730962135E-0001	
 6.66500000000000E+0002	 2.54261819362715E-0001	
 6.68500000000000E+0002	 2.53157907763294E-0001	
 6.70500000000000E+0002	 2.53101996163873E-0001	
 6.72500000000000E+0002	 2.52568584564453E-0001	
 6.74500000000000E+0002	 2.51641672965032E-0001	
 6.76500000000000E+0002	 2.50646761365611E-0001	
 6.78500000000000E+0002	 2.49674849766191E-0001	
 6.80500000000000E+0002	 2.48782938166770E-0001	
 6.82500000000000E+0002	 2.47962026567349E-0001	
 6.84500000000000E+0002	 2.47212614967929E-0001	
 6.86500000000000E+0002	 2.46526703368508E-0001	
 6.88500000000000E+0002	 2.45910291769088E-0001	
 6.90500000000000E+0002	 2.45441380169667E-0001	
 6.92500000000000E+0002	 2.45082468570246E-0001	
 6.94500000000000E+0002	 2.44730056970826E-0001	
 6.96500000000000E+0002	 2.44387645371405E-0001	
 6.98500000000000E+0002	 2.44030733771984E-0001	
 7.00500000000000E+0002	 2.43559822172564E-0001	
 7.02500000000000E+0002	 2.42833910573143E-0001	
 7.04500000000000E+0002	 2.41851498973722E-0001	
 7.06500000000000E+0002	 2.40809587374302E-0001	
 7.08500000000000E+0002	 2.39792675774881E-0001	
 7.10500000000000E+0002	 2.38765764175460E-0001	
 7.12500000000000E+0002	 2.37650852576040E-0001	
 7.14500000000000E+0002	 2.36361440976619E-0001	
 7.16500000000000E+0002	 2.34957029377198E-0001	
 7.18500000000000E+0002	 2.33573117777778E-0001	
 7.20500000000000E+0002	 2.32064206178357E-0001	
 7.22500000000000E+0002	 2.30245794578936E-0001	
 7.24500000000000E+0002	 2.28140382979516E-0001	
 7.26500000000000E+0002	 2.25695971380095E-0001	
 7.28500000000000E+0002	 2.22984059780675E-0001	
 7.30500000000000E+0002	 2.20225648181254E-0001	
 7.32500000000000E+0002	 2.17686736581833E-0001	
 7.34500000000000E+0002	 2.15516824982413E-0001	
 7.36500000000000E+0002	 2.13687913382992E-0001	
 7.38500000000000E+0002	 2.12129501783571E-0001	
 7.40500000000000E+0002	 2.10746590184151E-0001	
 7.42500000000000E+0002	 2.09484678584730E-0001	
 7.44500000000000E+0002	 2.08318266985309E-0001	
 7.46500000000000E+0002	 2.07260355385889E-0001	
 7.48500000000000E+0002	 2.06304943786468E-0001	
 7.50500000000000E+0002	 2.05510532187047E-0001	
 7.52500000000000E+0002	 2.04982120587627E-0001	
 7.54500000000000E+0002	 2.04849708988206E-0001	
 7.56500000000000E+0002	 2.05147797388785E-0001	
 7.58500000000000E+0002	 2.05878885789365E-0001	
 7.60500000000000E+0002	 2.07006474189944E-0001	
 7.62500000000000E+0002	 2.08252062590523E-0001	
 7.64500000000000E+0002	 2.08922650991103E-0001	
 7.66500000000000E+0002	 2.08234239391682E-0001	
 7.68500000000000E+0002	 2.06020827792262E-0001	
 7.70500000000000E+0002	 2.03040416192841E-0001	
 7.72500000000000E+0002	 2.00367504593420E-0001	
 7.74500000000000E+0002	 1.98825592994000E-0001	
 7.76500000000000E+0002	 1.98842681394579E-0001	
 7.78500000000000E+0002	 1.99802269795158E-0001	
 7.80500000000000E+0002	 1.99942358195738E-0001	
 7.82500000000000E+0002	 1.98480946596317E-0001	
 7.84500000000000E+0002	 1.96335534996896E-0001	
 7.86500000000000E+0002	 1.94231623397476E-0001	
 7.88500000000000E+0002	 1.92125711798055E-0001	
 7.90500000000000E+0002	 1.90144300198634E-0001	
 7.92500000000000E+0002	 1.88819888599214E-0001	
 7.94500000000000E+0002	 1.88199476999793E-0001	
 7.96500000000000E+0002	 1.87534065400372E-0001	
 7.98500000000000E+0002	 1.86286653800952E-0001	
 8.00500000000000E+0002	 1.84739242201531E-0001	
 8.02500000000000E+0002	 1.83382830602110E-0001	
 8.04500000000000E+0002	 1.82448919002690E-0001	
 8.06500000000000E+0002	 1.81865507403269E-0001	
 8.08500000000000E+0002	 1.81415095803849E-0001	
 8.10500000000000E+0002	 1.80830684204428E-0001	
 8.12500000000000E+0002	 1.79927272605007E-0001	
 8.14500000000000E+0002	 1.78676861005587E-0001	
 8.16500000000000E+0002	 1.77265949406166E-0001	
 8.18500000000000E+0002	 1.75911037806745E-0001	
 8.20500000000000E+0002	 1.74843626207325E-0001	
 8.22500000000000E+0002	 1.74168714607904E-0001	
 8.24500000000000E+0002	 1.73901303008483E-0001	
 8.26500000000000E+0002	 1.73904891409063E-0001	
 8.28500000000000E+0002	 1.74091479809642E-0001	
 8.30500000000000E+0002	 1.74419568210221E-0001	
 8.32500000000000E+0002	 1.74924156610801E-0001	
 8.34500000000000E+0002	 1.75567745011380E-0001	
 8.36500000000000E+0002	 1.76230333411959E-0001	
 8.38500000000000E+0002	 1.76776421812539E-0001	
 8.40500000000000E+0002	 1.77171010213118E-0001	
 8.42500000000000E+0002	 1.77330598613697E-0001	
 8.44500000000000E+0002	 1.77311187014277E-0001	
 8.46500000000000E+0002	 1.77213775414856E-0001	
 8.48500000000000E+0002	 1.77168863815436E-0001	
 8.50500000000000E+0002	 1.77230452216015E-0001	
 8.52500000000000E+0002	 1.77453540616594E-0001	
 8.54500000000000E+0002	 1.77757129017174E-0001	
 8.56500000000000E+0002	 1.78035217417753E-0001	
 8.58500000000000E+0002	 1.78054805818332E-0001	
 8.60500000000000E+0002	 1.77620394218912E-0001	
 8.62500000000000E+0002	 1.76592482619491E-0001	
 8.64500000000000E+0002	 1.75020571020070E-0001	
 8.66500000000000E+0002	 1.73021159420650E-0001	
 8.68500000000000E+0002	 1.70975247821229E-0001	
 8.70500000000000E+0002	 1.69301336221808E-0001	
 8.72500000000000E+0002	 1.68020924622388E-0001	
 8.74500000000000E+0002	 1.66741513022967E-0001	
 8.76500000000000E+0002	 1.65723101423546E-0001	
 8.78500000000000E+0002	 1.65198689824126E-0001	
 8.80500000000000E+0002	 1.65087778224705E-0001	
 8.82500000000000E+0002	 1.65115366625285E-0001	
 8.84500000000000E+0002	 1.65095455025864E-0001	
 8.86500000000000E+0002	 1.64882543426443E-0001	
 8.88500000000000E+0002	 1.64498631827023E-0001	
 8.90500000000000E+0002	 1.63910220227602E-0001	
 8.92500000000000E+0002	 1.63171308628181E-0001	
 8.94500000000000E+0002	 1.62335397028761E-0001	
 8.96500000000000E+0002	 1.61567485429340E-0001	
 8.98500000000000E+0002	 1.61013073829919E-0001	
 9.00500000000000E+0002	 1.60948162230499E-0001	
 9.02500000000000E+0002	 1.61591750631078E-0001	
 9.04500000000000E+0002	 1.63185339031657E-0001	
 9.06500000000000E+0002	 1.65695427432237E-0001	
 9.08500000000000E+0002	 1.68923015832816E-0001	
 9.10500000000000E+0002	 1.72348604233395E-0001	
 9.12500000000000E+0002	 1.75414692633975E-0001	
 9.14500000000000E+0002	 1.77595781034554E-0001	
 9.16500000000000E+0002	 1.78651369435133E-0001	
 9.18500000000000E+0002	 1.78462957835713E-0001	
 9.20500000000000E+0002	 1.77209546236292E-0001	
 9.22500000000000E+0002	 1.75166634636872E-0001	
 9.24500000000000E+0002	 1.72711223037451E-0001	
 9.26500000000000E+0002	 1.70075811438030E-0001	
 9.28500000000000E+0002	 1.67542899838610E-0001	
 9.30500000000000E+0002	 1.65280988239189E-0001	
 9.32500000000000E+0002	 1.63470576639768E-0001	
 9.34500000000000E+0002	 1.62103665040348E-0001	
 9.36500000000000E+0002	 1.61155253440927E-0001	
 9.38500000000000E+0002	 1.60534841841506E-0001	
 9.40500000000000E+0002	 1.60260930242086E-0001	
 9.42500000000000E+0002	 1.60337018642665E-0001	
 9.44500000000000E+0002	 1.60904107043244E-0001	
 9.46500000000000E+0002	 1.61993695443824E-0001	
 9.48500000000000E+0002	 1.63637783844403E-0001	
 9.50500000000000E+0002	 1.65783372244982E-0001	
 9.52500000000000E+0002	 1.68476960645562E-0001	
 9.54500000000000E+0002	 1.71685549046141E-0001	
 9.56500000000000E+0002	 1.75391137446720E-0001	
 9.58500000000000E+0002	 1.79427725847300E-0001	
 9.60500000000000E+0002	 1.83673814247879E-0001	
 9.62500000000000E+0002	 1.87940902648459E-0001	
 9.64500000000000E+0002	 1.92140991049038E-0001	
 9.66500000000000E+0002	 1.96187579449617E-0001	
 9.68500000000000E+0002	 2.00160667850197E-0001	
 9.70500000000000E+0002	 2.04189256250776E-0001	
 9.72500000000000E+0002	 2.08610344651355E-0001	
 9.74500000000000E+0002	 2.13825933051935E-0001	
 9.76500000000000E+0002	 2.20391021452514E-0001	
 9.78500000000000E+0002	 2.28776609853093E-0001	
 9.80500000000000E+0002	 2.39238198253673E-0001	
 9.82500000000000E+0002	 2.51450786654252E-0001	
 9.84500000000000E+0002	 2.64562875054831E-0001	
 9.86500000000000E+0002	 2.77286463455411E-0001	
 9.88500000000000E+0002	 2.88490051855990E-0001	
 9.90500000000000E+0002	 2.97589140256569E-0001	
 9.92500000000000E+0002	 3.04866228657149E-0001	
 9.94500000000000E+0002	 3.11209317057728E-0001	
 9.96500000000000E+0002	 3.17825905458307E-0001	
 9.98500000000000E+0002	 3.25665993858887E-0001	
 1.00050000000000E+0003	 3.35175082259466E-0001	
 1.00250000000000E+0003	 3.46073170660046E-0001	
 1.00450000000000E+0003	 3.57676759060625E-0001	
 1.00650000000000E+0003	 3.69232847461204E-0001	
 1.00850000000000E+0003	 3.80196435861784E-0001	
 1.01050000000000E+0003	 3.90273024262363E-0001	
 1.01250000000000E+0003	 3.99455612662942E-0001	
 1.01450000000000E+0003	 4.07703701063522E-0001	
 1.01650000000000E+0003	 4.14817789464101E-0001	
 1.01850000000000E+0003	 4.20493377864680E-0001	
 1.02050000000000E+0003	 4.24600966265260E-0001	
 1.02250000000000E+0003	 4.27387554665839E-0001	
 1.02450000000000E+0003	 4.29466143066418E-0001	
 1.02650000000000E+0003	 4.31484731466998E-0001	
 1.02850000000000E+0003	 4.33885319867577E-0001	
 1.03050000000000E+0003	 4.36626408268156E-0001	
 1.03250000000000E+0003	 4.39448496668736E-0001	
 1.03450000000000E+0003	 4.42116085069315E-0001	
 1.03650000000000E+0003	 4.44316673469894E-0001	
 1.03850000000000E+0003	 4.45799261870474E-0001	
 1.04050000000000E+0003	 4.46699350271053E-0001	
 1.04250000000000E+0003	 4.47421438671633E-0001	
 1.04450000000000E+0003	 4.48541527072212E-0001	
 1.04650000000000E+0003	 4.50438115472791E-0001	
 1.04850000000000E+0003	 4.53167703873371E-0001	
 1.05050000000000E+0003	 4.56357292273950E-0001	
 1.05250000000000E+0003	 4.59230880674529E-0001	
 1.05450000000000E+0003	 4.60904969075109E-0001	
 1.05650000000000E+0003	 4.60907557475688E-0001	
 1.05850000000000E+0003	 4.59259645876267E-0001	
 1.06050000000000E+0003	 4.56491734276847E-0001	
 1.06250000000000E+0003	 4.53526822677426E-0001	
 1.06450000000000E+0003	 4.51569911078005E-0001	
 1.06650000000000E+0003	 4.51649499478585E-0001	
 1.06850000000000E+0003	 4.54265087879164E-0001	
 1.07050000000000E+0003	 4.59190176279743E-0001	
 1.07250000000000E+0003	 4.65571264680323E-0001	
 1.07450000000000E+0003	 4.72187353080902E-0001	
 1.07650000000000E+0003	 4.77924941481481E-0001	
 1.07850000000000E+0003	 4.81923029882061E-0001	
 1.08050000000000E+0003	 4.83668618282640E-0001	
 1.08250000000000E+0003	 4.82836206683220E-0001	
 1.08450000000000E+0003	 4.79145295083799E-0001	
 1.08650000000000E+0003	 4.72348383484378E-0001	
 1.08850000000000E+0003	 4.62621471884958E-0001	
 1.09050000000000E+0003	 4.50955560285537E-0001	
 1.09250000000000E+0003	 4.39200148686116E-0001	
 1.09450000000000E+0003	 4.29086237086696E-0001	
 1.09650000000000E+0003	 4.21289325487275E-0001	
 1.09850000000000E+0003	 4.15259413887854E-0001	
 1.10050000000000E+0003	 4.09960002288434E-0001	
 1.10250000000000E+0003	 4.04558590689013E-0001	
 1.10450000000000E+0003	 3.98753679089592E-0001	
 1.10650000000000E+0003	 3.92600767490172E-0001	
 1.10850000000000E+0003	 3.86490855890751E-0001	
 1.11050000000000E+0003	 3.80789944291330E-0001	
 1.11250000000000E+0003	 3.75706032691910E-0001	
 1.11450000000000E+0003	 3.71117621092489E-0001	
 1.11650000000000E+0003	 3.66762709493068E-0001	
 1.11850000000000E+0003	 3.62298797893648E-0001	
 1.12050000000000E+0003	 3.57524886294227E-0001	
 1.12250000000000E+0003	 3.52326474694807E-0001	
 1.12450000000000E+0003	 3.46806063095386E-0001	
 1.12650000000000E+0003	 3.41130651495965E-0001	
 1.12850000000000E+0003	 3.35478239896545E-0001	
 1.13050000000000E+0003	 3.29870328297124E-0001	
 1.13250000000000E+0003	 3.24494416697703E-0001	
 1.13450000000000E+0003	 3.19565505098283E-0001	
 1.13650000000000E+0003	 3.15270093498862E-0001	
 1.13850000000000E+0003	 3.11748181899441E-0001	
 1.14050000000000E+0003	 3.09155770300021E-0001	
 1.14250000000000E+0003	 3.07466358700600E-0001	
 1.14450000000000E+0003	 3.06524447101179E-0001	
 1.14650000000000E+0003	 3.05851535501759E-0001	
 1.14850000000000E+0003	 3.04781123902338E-0001	
 1.15050000000000E+0003	 3.02590712302917E-0001	
 1.15250000000000E+0003	 2.98880300703497E-0001	
 1.15450000000000E+0003	 2.93662389104076E-0001	
 1.15650000000000E+0003	 2.87425477504655E-0001	
 1.15850000000000E+0003	 2.80689065905235E-0001	
 1.16050000000000E+0003	 2.73767154305814E-0001	
 1.16250000000000E+0003	 2.66631742706394E-0001	
 1.16450000000000E+0003	 2.59245331106973E-0001	
 1.16650000000000E+0003	 2.51657919507552E-0001	
 1.16850000000000E+0003	 2.44171507908132E-0001	
 1.17050000000000E+0003	 2.37026096308711E-0001	
 1.17250000000000E+0003	 2.30347684709290E-0001	
 1.17450000000000E+0003	 2.24120773109870E-0001	
 1.17650000000000E+0003	 2.18489861510449E-0001	
 1.17850000000000E+0003	 2.13625949911028E-0001	
 1.18050000000000E+0003	 2.09745038311608E-0001	
 1.18250000000000E+0003	 2.06996126712187E-0001	
 1.18450000000000E+0003	 2.05526215112766E-0001	
 1.18650000000000E+0003	 2.05317803513346E-0001	
 1.18850000000000E+0003	 2.06369891913925E-0001	
 1.19050000000000E+0003	 2.08584480314504E-0001	
 1.19250000000000E+0003	 2.11837068715084E-0001	
 1.19450000000000E+0003	 2.15909657115663E-0001	
 1.19650000000000E+0003	 2.20582245516242E-0001	
 1.19850000000000E+0003	 2.25535333916822E-0001	
 1.20050000000000E+0003	 2.30523422317401E-0001	
 1.20250000000000E+0003	 2.35303010717981E-0001	
 1.20450000000000E+0003	 2.39764099118560E-0001	
 1.20650000000000E+0003	 2.43851687519139E-0001	
 1.20850000000000E+0003	 2.47646275919719E-0001	
 1.21050000000000E+0003	 2.51259364320298E-0001	
 1.21250000000000E+0003	 2.54830452720877E-0001	
 1.21450000000000E+0003	 2.58373041121457E-0001	
 1.21650000000000E+0003	 2.61930129522036E-0001	
 1.21850000000000E+0003	 2.65543717922615E-0001	
 1.22050000000000E+0003	 2.68975806323195E-0001	
 1.22250000000000E+0003	 2.71775894723774E-0001	
 1.22450000000000E+0003	 2.73986483124353E-0001	
 1.22650000000000E+0003	 2.75873071524933E-0001	
 1.22850000000000E+0003	 2.77566659925512E-0001	
 1.23050000000000E+0003	 2.79022748326091E-0001	
 1.23250000000000E+0003	 2.80178336726671E-0001	
 1.23450000000000E+0003	 2.80976425127250E-0001	
 1.23650000000000E+0003	 2.81397513527830E-0001	
 1.23850000000000E+0003	 2.81384601928409E-0001	
 1.24050000000000E+0003	 2.80907690328988E-0001	
 1.24250000000000E+0003	 2.79955278729568E-0001	
 1.24450000000000E+0003	 2.78573867130147E-0001	
 1.24650000000000E+0003	 2.76810455530726E-0001	
 1.24850000000000E+0003	 2.74735043931306E-0001	
 1.25050000000000E+0003	 2.72375632331885E-0001	
 1.25250000000000E+0003	 2.69792220732464E-0001	
 1.25450000000000E+0003	 2.67034309133044E-0001	
 1.25650000000000E+0003	 2.64185897533623E-0001	
 1.25850000000000E+0003	 2.61289985934202E-0001	
 1.26050000000000E+0003	 2.58421074334782E-0001	
 1.26250000000000E+0003	 2.55681662735361E-0001	
 1.26450000000000E+0003	 2.53127251135940E-0001	
 1.26650000000000E+0003	 2.50707839536520E-0001	
 1.26850000000000E+0003	 2.48451927937099E-0001	
 1.27050000000000E+0003	 2.46367516337678E-0001	
 1.27250000000000E+0003	 2.44525604738258E-0001	
 1.27450000000000E+0003	 2.42949693138837E-0001	
 1.27650000000000E+0003	 2.41582281539417E-0001	
 1.27850000000000E+0003	 2.40350369939996E-0001	
 1.28050000000000E+0003	 2.39237458340575E-0001	
 1.28250000000000E+0003	 2.38227546741155E-0001	
 1.28450000000000E+0003	 2.37317135141734E-0001	
 1.28650000000000E+0003	 2.36446223542313E-0001	
 1.28850000000000E+0003	 2.35690311942893E-0001	
 1.29050000000000E+0003	 2.35242400343472E-0001	
 1.29250000000000E+0003	 2.35164988744051E-0001	
 1.29450000000000E+0003	 2.35310077144631E-0001	
 1.29650000000000E+0003	 2.35657165545210E-0001	
 1.29850000000000E+0003	 2.36291753945789E-0001	
 1.30050000000000E+0003	 2.37251842346369E-0001	
 1.30250000000000E+0003	 2.38325930746948E-0001	
 1.30450000000000E+0003	 2.39379519147527E-0001	
 1.30650000000000E+0003	 2.40342607548107E-0001	
 1.30850000000000E+0003	 2.41217695948686E-0001	
 1.31050000000000E+0003	 2.41925284349265E-0001	
 1.31250000000000E+0003	 2.42274872749845E-0001	
 1.31450000000000E+0003	 2.42219461150424E-0001	
 1.31650000000000E+0003	 2.41901049551004E-0001	
 1.31850000000000E+0003	 2.41312137951583E-0001	
 1.32050000000000E+0003	 2.40674726352162E-0001	
 1.32250000000000E+0003	 2.40162314752742E-0001	
 1.32450000000000E+0003	 2.39855403153321E-0001	
 1.32650000000000E+0003	 2.39779491553900E-0001	
 1.32850000000000E+0003	 2.39997079954480E-0001	
 1.33050000000000E+0003	 2.40507168355059E-0001	
 1.33250000000000E+0003	 2.41293256755638E-0001	
 1.33450000000000E+0003	 2.42116845156218E-0001	
 1.33650000000000E+0003	 2.42597933556797E-0001	
 1.33850000000000E+0003	 2.42491021957376E-0001	
 1.34050000000000E+0003	 2.42362610357956E-0001	
 1.34250000000000E+0003	 2.42851198758535E-0001	
 1.34450000000000E+0003	 2.43404787159114E-0001	
 1.34650000000000E+0003	 2.43390875559694E-0001	
 1.34850000000000E+0003	 2.43122963960273E-0001	
 1.35050000000000E+0003	 2.42992052360852E-0001	
 1.35250000000000E+0003	 2.43060640761432E-0001	
 1.35450000000000E+0003	 2.43295229162011E-0001	
 1.35650000000000E+0003	 2.43779317562591E-0001	
 1.35850000000000E+0003	 2.44387905963170E-0001	
 1.36050000000000E+0003	 2.44850994363749E-0001	
 1.36250000000000E+0003	 2.45424582764329E-0001	
 1.36450000000000E+0003	 2.47266671164908E-0001	
 1.36650000000000E+0003	 2.50393759565487E-0001	
 1.36850000000000E+0003	 2.53624347966067E-0001	
 1.37050000000000E+0003	 2.56065436366646E-0001	
 1.37250000000000E+0003	 2.57859024767225E-0001	
 1.37450000000000E+0003	 2.59587613167805E-0001	
 1.37650000000000E+0003	 2.61501701568384E-0001	
 1.37850000000000E+0003	 2.63119289968963E-0001	
 1.38050000000000E+0003	 2.64626378369543E-0001	
 1.38250000000000E+0003	 2.66282466770122E-0001	
 1.38450000000000E+0003	 2.67801555170701E-0001	
 1.38650000000000E+0003	 2.68372643571281E-0001	
 1.38850000000000E+0003	 2.68747731971860E-0001	
 1.39050000000000E+0003	 2.70281320372439E-0001	
 1.39250000000000E+0003	 2.72449908773019E-0001	
 1.39450000000000E+0003	 2.73899997173598E-0001	
 1.39650000000000E+0003	 2.75324085574178E-0001	
 1.39850000000000E+0003	 2.77066173974757E-0001	
 1.40050000000000E+0003	 2.79218762375336E-0001	
 1.40250000000000E+0003	 2.80609350775916E-0001	
 1.40450000000000E+0003	 2.80997439176495E-0001	
 1.40650000000000E+0003	 2.80745027577074E-0001	
 1.40850000000000E+0003	 2.80059115977654E-0001	
 1.41050000000000E+0003	 2.79072204378233E-0001	
 1.41250000000000E+0003	 2.77763792778812E-0001	
 1.41450000000000E+0003	 2.76214381179392E-0001	
 1.41650000000000E+0003	 2.73965469579971E-0001	
 1.41850000000000E+0003	 2.70234557980550E-0001	
 1.42050000000000E+0003	 2.66471646381130E-0001	
 1.42250000000000E+0003	 2.64405734781709E-0001	
 1.42450000000000E+0003	 2.63346323182288E-0001	
 1.42650000000000E+0003	 2.61373911582868E-0001	
 1.42850000000000E+0003	 2.58914499983447E-0001	
 1.43050000000000E+0003	 2.57237088384026E-0001	
 1.43250000000000E+0003	 2.56380176784606E-0001	
 1.43450000000000E+0003	 2.55818765185185E-0001	
 1.43650000000000E+0003	 2.55120353585765E-0001	
 1.43850000000000E+0003	 2.55710941986344E-0001	
 1.44050000000000E+0003	 2.58008030386923E-0001	
 1.44250000000000E+0003	 2.60958618787503E-0001	
 1.44450000000000E+0003	 2.62600707188082E-0001	
 1.44650000000000E+0003	 2.63441295588661E-0001	
 1.44850000000000E+0003	 2.64256383989241E-0001	
 1.45050000000000E+0003	 2.65113972389820E-0001	
 1.45250000000000E+0003	 2.65615560790399E-0001	
 1.45450000000000E+0003	 2.64769649190979E-0001	
 1.45650000000000E+0003	 2.60116737591558E-0001	
 1.45850000000000E+0003	 2.55054325992137E-0001	
 1.46050000000000E+0003	 2.53396414392717E-0001	
 1.46250000000000E+0003	 2.52455502793296E-0001	
 1.46450000000000E+0003	 2.49150091193875E-0001	
 1.46650000000000E+0003	 2.45283679594455E-0001	
 1.46850000000000E+0003	 2.41351767995034E-0001	
 1.47050000000000E+0003	 2.36516356395613E-0001	
 1.47250000000000E+0003	 2.29369944796193E-0001	
 1.47450000000000E+0003	 2.22523033196772E-0001	
 1.47650000000000E+0003	 2.18244121597352E-0001	
 1.47850000000000E+0003	 2.16587709997931E-0001	
 1.48050000000000E+0003	 2.15282798398510E-0001	
 1.48250000000000E+0003	 2.14551386799090E-0001	
 1.48450000000000E+0003	 2.14276975199669E-0001	
 1.48650000000000E+0003	 2.14487563600248E-0001	
 1.48850000000000E+0003	 2.15345152000828E-0001	
 1.49050000000000E+0003	 2.17325240401407E-0001	
 1.49250000000000E+0003	 2.20867828801986E-0001	
 1.49450000000000E+0003	 2.24701917202566E-0001	
 1.49650000000000E+0003	 2.28252505603145E-0001	
 1.49850000000000E+0003	 2.32587594003724E-0001	
 1.50050000000000E+0003	 2.38328182404304E-0001	
 1.50250000000000E+0003	 2.44155770804883E-0001	
 1.50450000000000E+0003	 2.48453359205462E-0001	
 1.50650000000000E+0003	 2.52780447606042E-0001	
 1.50850000000000E+0003	 2.60258536006621E-0001	
 1.51050000000000E+0003	 2.68840124407200E-0001	
 1.51250000000000E+0003	 2.80150712807780E-0001	
 1.51450000000000E+0003	 2.90090801208359E-0001	
 1.51650000000000E+0003	 2.98160889608939E-0001	
 1.51850000000000E+0003	 3.05100978009518E-0001	
 1.52050000000000E+0003	 3.09219066410097E-0001	
 1.52250000000000E+0003	 3.14484654810677E-0001	
 1.52450000000000E+0003	 3.21909243211256E-0001	
 1.52650000000000E+0003	 3.30525331611835E-0001	
 1.52850000000000E+0003	 3.39194420012415E-0001	
 1.53050000000000E+0003	 3.46972008412994E-0001	
 1.53250000000000E+0003	 3.53860596813573E-0001	
 1.53450000000000E+0003	 3.61749185214153E-0001	
 1.53650000000000E+0003	 3.67924273614732E-0001	
 1.53850000000000E+0003	 3.71708862015311E-0001	
 1.54050000000000E+0003	 3.76210450415891E-0001	
 1.54250000000000E+0003	 3.81635038816470E-0001	
 1.54450000000000E+0003	 3.86009627217049E-0001	
 1.54650000000000E+0003	 3.89861215617629E-0001	
 1.54850000000000E+0003	 3.91003304018208E-0001	
 1.55050000000000E+0003	 3.89263892418788E-0001	
 1.55250000000000E+0003	 3.84776980819367E-0001	
 1.55450000000000E+0003	 3.77518069219946E-0001	
 1.55650000000000E+0003	 3.69327157620526E-0001	
 1.55850000000000E+0003	 3.58892246021105E-0001	
 1.56050000000000E+0003	 3.49312334421684E-0001	
 1.56250000000000E+0003	 3.42053422822264E-0001	
 1.56450000000000E+0003	 3.39515511222843E-0001	
 1.56650000000000E+0003	 3.36580599623422E-0001	
 1.56850000000000E+0003	 3.30813188024002E-0001	
 1.57050000000000E+0003	 3.25089276424581E-0001	
 1.57250000000000E+0003	 3.20271364825160E-0001	
 1.57450000000000E+0003	 3.14787953225740E-0001	
 1.57650000000000E+0003	 3.08054041626319E-0001	
 1.57850000000000E+0003	 3.02452130026898E-0001	
 1.58050000000000E+0003	 2.99890718427478E-0001	
 1.58250000000000E+0003	 2.98096806828057E-0001	
 1.58450000000000E+0003	 2.95564895228636E-0001	
 1.58650000000000E+0003	 2.93440983629216E-0001	
 1.58850000000000E+0003	 2.92432072029795E-0001	
 1.59050000000000E+0003	 2.92376660430375E-0001	
 1.59250000000000E+0003	 2.93412248830954E-0001	
 1.59450000000000E+0003	 2.95230337231533E-0001	
 1.59650000000000E+0003	 2.97937925632113E-0001	
 1.59850000000000E+0003	 3.01015514032692E-0001	
 1.60050000000000E+0003	 3.04803602433271E-0001	
 1.60250000000000E+0003	 3.09311190833851E-0001	
 1.60450000000000E+0003	 3.14697779234430E-0001	
 1.60650000000000E+0003	 3.20681367635009E-0001	
 1.60850000000000E+0003	 3.27894956035589E-0001	
 1.61050000000000E+0003	 3.36397544436168E-0001	
 1.61250000000000E+0003	 3.45847632836747E-0001	
 1.61450000000000E+0003	 3.55220221237327E-0001	
 1.61650000000000E+0003	 3.65889309637906E-0001	
 1.61850000000000E+0003	 3.78700398038485E-0001	
 1.62050000000000E+0003	 3.91916986439065E-0001	
 1.62250000000000E+0003	 4.07808074839644E-0001	
 1.62450000000000E+0003	 4.25625663240223E-0001	
 1.62650000000000E+0003	 4.42040751640803E-0001	
 1.62850000000000E+0003	 4.59424340041382E-0001	
 1.63050000000000E+0003	 4.77211928441962E-0001	
 1.63250000000000E+0003	 4.92064016842541E-0001	
 1.63450000000000E+0003	 5.05606605243120E-0001	
 1.63650000000000E+0003	 5.19801693643700E-0001	
 1.63850000000000E+0003	 5.31139282044279E-0001	
 1.64050000000000E+0003	 5.39755870444858E-0001	
 1.64250000000000E+0003	 5.47482458845438E-0001	
 1.64450000000000E+0003	 5.52539047246017E-0001	
 1.64650000000000E+0003	 5.57043135646596E-0001	
 1.64850000000000E+0003	 5.63581224047176E-0001	
 1.65050000000000E+0003	 5.68505312447755E-0001	
 1.65250000000000E+0003	 5.69457900848334E-0001	
 1.65450000000000E+0003	 5.70680489248914E-0001	
 1.65650000000000E+0003	 5.71345077649493E-0001	
 1.65850000000000E+0003	 5.71889166050072E-0001	
 1.66050000000000E+0003	 5.68298754450652E-0001	
 1.66250000000000E+0003	 5.59583342851231E-0001	
 1.66450000000000E+0003	 5.49231431251810E-0001	
 1.66650000000000E+0003	 5.38615519652390E-0001	
 1.66850000000000E+0003	 5.27009608052969E-0001	
 1.67050000000000E+0003	 5.15161196453549E-0001	
 1.67250000000000E+0003	 5.04532784854128E-0001	
 1.67450000000000E+0003	 4.93469373254707E-0001	
 1.67650000000000E+0003	 4.82153961655287E-0001	
 1.67850000000000E+0003	 4.72049550055866E-0001	
 1.68050000000000E+0003	 4.62250138456445E-0001	
 1.68250000000000E+0003	 4.51897226857025E-0001	
 1.68450000000000E+0003	 4.37983315257604E-0001	
 1.68650000000000E+0003	 4.24887903658183E-0001	
 1.68850000000000E+0003	 4.14232492058763E-0001	
 1.69050000000000E+0003	 4.05808080459342E-0001	
 1.69250000000000E+0003	 3.95505168859921E-0001	
 1.69450000000000E+0003	 3.82680257260501E-0001	
 1.69650000000000E+0003	 3.66712345661080E-0001	
 1.69850000000000E+0003	 3.53766934061659E-0001	
 1.70050000000000E+0003	 3.42024522462239E-0001	
 1.70250000000000E+0003	 3.33372110862818E-0001	
 1.70450000000000E+0003	 3.26205199263397E-0001	
 1.70650000000000E+0003	 3.21262787663977E-0001	
 1.70850000000000E+0003	 3.15398376064556E-0001	
 1.71050000000000E+0003	 3.08425464465136E-0001	
 1.71250000000000E+0003	 3.01433552865715E-0001	
 1.71450000000000E+0003	 2.93446641266294E-0001	
 1.71650000000000E+0003	 2.83627729666874E-0001	
 1.71850000000000E+0003	 2.72466818067453E-0001	
 1.72050000000000E+0003	 2.64442406468032E-0001	
 1.72250000000000E+0003	 2.58408994868612E-0001	
 1.72450000000000E+0003	 2.52099083269191E-0001	
 1.72650000000000E+0003	 2.45509671669770E-0001	
 1.72850000000000E+0003	 2.39158760070350E-0001	
 1.73050000000000E+0003	 2.33606848470929E-0001	
 1.73250000000000E+0003	 2.27800936871508E-0001	
 1.73450000000000E+0003	 2.20841025272088E-0001	
 1.73650000000000E+0003	 2.17111113672667E-0001	
 1.73850000000000E+0003	 2.15840702073246E-0001	
 1.74050000000000E+0003	 2.15772290473826E-0001	
 1.74250000000000E+0003	 2.14116378874405E-0001	
 1.74450000000000E+0003	 2.11227967274984E-0001	
 1.74650000000000E+0003	 2.08486555675564E-0001	
 1.74850000000000E+0003	 2.05293144076143E-0001	
 1.75050000000000E+0003	 2.01323232476723E-0001	
 1.75250000000000E+0003	 1.96391820877302E-0001	
 1.75450000000000E+0003	 1.92704909277881E-0001	
 1.75650000000000E+0003	 1.90093497678461E-0001	
 1.75850000000000E+0003	 1.87264086079040E-0001	
 1.76050000000000E+0003	 1.83589674479619E-0001	
 1.76250000000000E+0003	 1.80322262880199E-0001	
 1.76450000000000E+0003	 1.77879351280778E-0001	
 1.76650000000000E+0003	 1.75264439681357E-0001	
 1.76850000000000E+0003	 1.72548528081937E-0001	
 1.77050000000000E+0003	 1.69769616482516E-0001	
 1.77250000000000E+0003	 1.67660204883095E-0001	
 1.77450000000000E+0003	 1.66269793283675E-0001	
 1.77650000000000E+0003	 1.64617381684254E-0001	
 1.77850000000000E+0003	 1.64127970084833E-0001	
 1.78050000000000E+0003	 1.63115058485413E-0001	
 1.78250000000000E+0003	 1.61961146885992E-0001	
 1.78450000000000E+0003	 1.60325735286571E-0001	
 1.78650000000000E+0003	 1.58867323687151E-0001	
 1.78850000000000E+0003	 1.57794912087730E-0001	
 1.79050000000000E+0003	 1.56451000488310E-0001	
 1.79250000000000E+0003	 1.54798088888889E-0001	
 1.79450000000000E+0003	 1.53714177289468E-0001	
 1.79650000000000E+0003	 1.52737765690048E-0001	
 1.79850000000000E+0003	 1.52288854090627E-0001	
 1.80050000000000E+0003	 1.51726442491206E-0001	
 1.80250000000000E+0003	 1.50741030891786E-0001	
 1.80450000000000E+0003	 1.49633119292365E-0001	
 1.80650000000000E+0003	 1.49160707692944E-0001	
 1.80850000000000E+0003	 1.48622296093524E-0001	
 1.81050000000000E+0003	 1.47817884494103E-0001	
 1.81250000000000E+0003	 1.47212972894682E-0001	
 1.81450000000000E+0003	 1.46483061295262E-0001	
 1.81650000000000E+0003	 1.45722149695841E-0001	
 1.81850000000000E+0003	 1.45104738096420E-0001	
 1.82050000000000E+0003	 1.44435826497000E-0001	
 1.82250000000000E+0003	 1.43776414897579E-0001	
 1.82450000000000E+0003	 1.42794003298158E-0001	
 1.82650000000000E+0003	 1.42069591698738E-0001	
 1.82850000000000E+0003	 1.41579680099317E-0001	
 1.83050000000000E+0003	 1.41264268499897E-0001	
 1.83250000000000E+0003	 1.40944856900476E-0001	
 1.83450000000000E+0003	 1.40563445301055E-0001	
 1.83650000000000E+0003	 1.40033533701635E-0001	
 1.83850000000000E+0003	 1.39545622102214E-0001	
 1.84050000000000E+0003	 1.38918210502793E-0001	
 1.84250000000000E+0003	 1.37863798903373E-0001	
 1.84450000000000E+0003	 1.36528887303952E-0001	
 1.84650000000000E+0003	 1.35976475704531E-0001	
 1.84850000000000E+0003	 1.35671064105111E-0001	
 1.85050000000000E+0003	 1.36136652505690E-0001	
 1.85250000000000E+0003	 1.36324240906269E-0001	
 1.85450000000000E+0003	 1.36161329306849E-0001	
 1.85650000000000E+0003	 1.35840417707428E-0001	
 1.85850000000000E+0003	 1.35443006108007E-0001	
 1.86050000000000E+0003	 1.35034594508587E-0001	
 1.86250000000000E+0003	 1.34657682909166E-0001	
 1.86450000000000E+0003	 1.34282271309746E-0001	
 1.86650000000000E+0003	 1.33766859710325E-0001	
 1.86850000000000E+0003	 1.33172448110904E-0001	
 1.87050000000000E+0003	 1.32952536511484E-0001	
 1.87250000000000E+0003	 1.32602624912063E-0001	
 1.87450000000000E+0003	 1.32525713312642E-0001	
 1.87650000000000E+0003	 1.32757301713222E-0001	
 1.87850000000000E+0003	 1.32612390113801E-0001	
 1.88050000000000E+0003	 1.32341478514380E-0001	
 1.88250000000000E+0003	 1.32096566914960E-0001	
 1.88450000000000E+0003	 1.31880655315539E-0001	
 1.88650000000000E+0003	 1.31645243716118E-0001	
 1.88850000000000E+0003	 1.31190832116698E-0001	
 1.89050000000000E+0003	 1.30947920517277E-0001	
 1.89250000000000E+0003	 1.30828508917856E-0001	
 1.89450000000000E+0003	 1.30487097318436E-0001	
 1.89650000000000E+0003	 1.30488685719015E-0001	
 1.89850000000000E+0003	 1.30407774119594E-0001	
 1.90050000000000E+0003	 1.30239862520174E-0001	
 1.90250000000000E+0003	 1.30134450920753E-0001	
 1.90450000000000E+0003	 1.29985039321333E-0001	
 1.90650000000000E+0003	 1.29813627721912E-0001	
 1.90850000000000E+0003	 1.29558216122491E-0001	
 1.91050000000000E+0003	 1.29382804523071E-0001	
 1.91250000000000E+0003	 1.29311392923650E-0001	
 1.91450000000000E+0003	 1.29194481324229E-0001	
 1.91650000000000E+0003	 1.28901069724809E-0001	
 1.91850000000000E+0003	 1.28547158125388E-0001	
 1.92050000000000E+0003	 1.28412746525967E-0001	
 1.92250000000000E+0003	 1.28112334926547E-0001	
 1.92450000000000E+0003	 1.28297923327126E-0001	
 1.92650000000000E+0003	 1.28450011727705E-0001	
 1.92850000000000E+0003	 1.28485100128285E-0001	
 1.93050000000000E+0003	 1.28556188528864E-0001	
 1.93250000000000E+0003	 1.28486276929443E-0001	
 1.93450000000000E+0003	 1.28393865330023E-0001	
 1.93650000000000E+0003	 1.28318953730602E-0001	
 1.93850000000000E+0003	 1.28251542131181E-0001	
 1.94050000000000E+0003	 1.28059630531761E-0001	
 1.94250000000000E+0003	 1.27745718932340E-0001	
 1.94450000000000E+0003	 1.27711807332920E-0001	
 1.94650000000000E+0003	 1.27695395733499E-0001	
 1.94850000000000E+0003	 1.27820984134078E-0001	
 1.95050000000000E+0003	 1.27932572534658E-0001	
 1.95250000000000E+0003	 1.27911160935237E-0001	
 1.95450000000000E+0003	 1.27879249335816E-0001	
 1.95650000000000E+0003	 1.27841837736396E-0001	
 1.95850000000000E+0003	 1.27821426136975E-0001	
 1.96050000000000E+0003	 1.27804514537554E-0001	
 1.96250000000000E+0003	 1.27797602938134E-0001	
 1.96450000000000E+0003	 1.27743191338713E-0001	
 1.96650000000000E+0003	 1.27593279739292E-0001	
 1.96850000000000E+0003	 1.27528368139872E-0001	
 1.97050000000000E+0003	 1.27542456540451E-0001	
 1.97250000000000E+0003	 1.27600044941030E-0001	
 1.97450000000000E+0003	 1.27701633341610E-0001	
 1.97650000000000E+0003	 1.27713221742189E-0001	
 1.97850000000000E+0003	 1.27698310142768E-0001	
 1.98050000000000E+0003	 1.27677398543348E-0001	
 1.98250000000000E+0003	 1.27662486943927E-0001	
 1.98450000000000E+0003	 1.27649575344507E-0001	
 1.98650000000000E+0003	 1.27613663745086E-0001	
 1.98850000000000E+0003	 1.27534252145665E-0001	
 1.99050000000000E+0003	 1.27381840546245E-0001	
 1.99250000000000E+0003	 1.27247928946824E-0001	
 1.99450000000000E+0003	 1.27319017347403E-0001	
 1.99650000000000E+0003	 1.27405605747983E-0001	
 1.99850000000000E+0003	 1.27583194148562E-0001	
 2.00050000000000E+0003	 1.27709782549141E-0001	
 2.00250000000000E+0003	 1.27747870949721E-0001	
 2.00450000000000E+0003	 1.27784459350300E-0001	
 2.00650000000000E+0003	 1.27832547750879E-0001	
 2.00850000000000E+0003	 1.27874136151459E-0001	
 2.01050000000000E+0003	 1.27929224552038E-0001	
 2.01250000000000E+0003	 1.27999312952617E-0001	
 2.01450000000000E+0003	 1.28050401353197E-0001	
 2.01650000000000E+0003	 1.28033489753776E-0001	
 2.01850000000000E+0003	 1.28042078154355E-0001	
 2.02050000000000E+0003	 1.28119666554935E-0001	
 2.02250000000000E+0003	 1.28279754955514E-0001	
 2.02450000000000E+0003	 1.28464843356094E-0001	
 2.02650000000000E+0003	 1.28588931756673E-0001	
 2.02850000000000E+0003	 1.28707020157252E-0001	
 2.03050000000000E+0003	 1.28818108557832E-0001	
 2.03250000000000E+0003	 1.28912696958411E-0001	
 2.03450000000000E+0003	 1.29002785358990E-0001	
 2.03650000000000E+0003	 1.29090373759570E-0001	
 2.03850000000000E+0003	 1.29169962160149E-0001	
 2.04050000000000E+0003	 1.29214550560728E-0001	
 2.04250000000000E+0003	 1.29253138961308E-0001	
 2.04450000000000E+0003	 1.29331227361887E-0001	
 2.04650000000000E+0003	 1.29448315762466E-0001	
 2.04850000000000E+0003	 1.29560904163046E-0001	
 2.05050000000000E+0003	 1.29640492563625E-0001	
 2.05250000000000E+0003	 1.29708080964204E-0001	
 2.05450000000000E+0003	 1.29764669364784E-0001	
 2.05650000000000E+0003	 1.29819257765363E-0001	
 2.05850000000000E+0003	 1.29869346165942E-0001	
 2.06050000000000E+0003	 1.29911934566522E-0001	
 2.06250000000000E+0003	 1.29945022967101E-0001	
 2.06450000000000E+0003	 1.29935611367681E-0001	
 2.06650000000000E+0003	 1.29932699768260E-0001	
 2.06850000000000E+0003	 1.29982788168839E-0001	
 2.07050000000000E+0003	 1.30087876569419E-0001	
 2.07250000000000E+0003	 1.30192964969998E-0001	
 2.07450000000000E+0003	 1.30245053370577E-0001	
 2.07650000000000E+0003	 1.30289641771157E-0001	
 2.07850000000000E+0003	 1.30329730171736E-0001	
 2.08050000000000E+0003	 1.30370318572315E-0001	
 2.08250000000000E+0003	 1.30410906972895E-0001	
 2.08450000000000E+0003	 1.30452495373474E-0001	
 2.08650000000000E+0003	 1.30485583774053E-0001	
 2.08850000000000E+0003	 1.30502172174633E-0001	
 2.09050000000000E+0003	 1.30502760575212E-0001	
 2.09250000000000E+0003	 1.30528348975791E-0001	
 2.09450000000000E+0003	 1.30578437376371E-0001	
 2.09650000000000E+0003	 1.30634025776950E-0001	
 2.09850000000000E+0003	 1.30665114177529E-0001	
 2.10050000000000E+0003	 1.30685202578109E-0001	
 2.10250000000000E+0003	 1.30699790978688E-0001	
 2.10450000000000E+0003	 1.30713879379268E-0001	
 2.10650000000000E+0003	 1.30721967779847E-0001	
 2.10850000000000E+0003	 1.30727056180426E-0001	
 2.11050000000000E+0003	 1.30728144581006E-0001	
 2.11250000000000E+0003	 1.30728232981585E-0001	
 2.11450000000000E+0003	 1.30712321382164E-0001	
 2.11650000000000E+0003	 1.30695909782744E-0001	
 2.11850000000000E+0003	 1.30694498183323E-0001	
 2.12050000000000E+0003	 1.30704086583902E-0001	
 2.12250000000000E+0003	 1.30703674984482E-0001	
 2.12450000000000E+0003	 1.30694263385061E-0001	
 2.12650000000000E+0003	 1.30679851785640E-0001	
 2.12850000000000E+0003	 1.30670940186220E-0001	
 2.13050000000000E+0003	 1.30658528586799E-0001	
 2.13250000000000E+0003	 1.30646116987378E-0001	
 2.13450000000000E+0003	 1.30627705387958E-0001	
 2.13650000000000E+0003	 1.30602793788537E-0001	
 2.13850000000000E+0003	 1.30575882189116E-0001	
 2.14050000000000E+0003	 1.30562470589696E-0001	
 2.14250000000000E+0003	 1.30553058990275E-0001	
 2.14450000000000E+0003	 1.30540647390855E-0001	
 2.14650000000000E+0003	 1.30516735791434E-0001	
 2.14850000000000E+0003	 1.30489324192013E-0001	
 2.15050000000000E+0003	 1.30455912592593E-0001	
 2.15250000000000E+0003	 1.30423000993172E-0001	
 2.15450000000000E+0003	 1.30384089393751E-0001	
 2.15650000000000E+0003	 1.30345677794331E-0001	
 2.15850000000000E+0003	 1.30299266194910E-0001	
 2.16050000000000E+0003	 1.30243854595489E-0001	
 2.16250000000000E+0003	 1.30175942996069E-0001	
 2.16450000000000E+0003	 1.30112031396648E-0001	
 2.16650000000000E+0003	 1.30055119797227E-0001	
 2.16850000000000E+0003	 1.30004208197807E-0001	
 2.17050000000000E+0003	 1.29935796598386E-0001	
 2.17250000000000E+0003	 1.29848884998965E-0001	
 2.17450000000000E+0003	 1.29763473399545E-0001	
 2.17650000000000E+0003	 1.29685061800124E-0001	
 2.17850000000000E+0003	 1.29603650200703E-0001	
 2.18050000000000E+0003	 1.29529738601283E-0001	
 2.18250000000000E+0003	 1.29457327001862E-0001	
 2.18450000000000E+0003	 1.29382415402442E-0001	
 2.18650000000000E+0003	 1.29305503803021E-0001	
 2.18850000000000E+0003	 1.29231592203600E-0001	
 2.19050000000000E+0003	 1.29159180604180E-0001	
 2.19250000000000E+0003	 1.29090269004759E-0001	
 2.19450000000000E+0003	 1.29016857405338E-0001	
 2.19650000000000E+0003	 1.28941445805918E-0001	
 2.19850000000000E+0003	 1.28864034206497E-0001	
 2.20050000000000E+0003	 1.28790122607076E-0001	
 2.20250000000000E+0003	 1.28715211007656E-0001	
 2.20450000000000E+0003	 1.28639799408235E-0001	
 2.20650000000000E+0003	 1.28560887808814E-0001	
 2.20850000000000E+0003	 1.28483476209394E-0001	
 2.21050000000000E+0003	 1.28407064609973E-0001	
 2.21250000000000E+0003	 1.28333653010552E-0001	
 2.21450000000000E+0003	 1.28258241411132E-0001	
 2.21650000000000E+0003	 1.28183329811711E-0001	
 2.21850000000000E+0003	 1.28110918212291E-0001	
 2.22050000000000E+0003	 1.28040506612870E-0001	
 2.22250000000000E+0003	 1.27971095013449E-0001	
 2.22450000000000E+0003	 1.27906183414029E-0001	
 2.22650000000000E+0003	 1.27842771814608E-0001	
 2.22850000000000E+0003	 1.27784360215187E-0001	
 2.23050000000000E+0003	 1.27727448615767E-0001	
 2.23250000000000E+0003	 1.27675537016346E-0001	
 2.23450000000000E+0003	 1.27626125416925E-0001	
 2.23650000000000E+0003	 1.27580213817505E-0001	
 2.23850000000000E+0003	 1.27537302218084E-0001	
 2.24050000000000E+0003	 1.27495890618663E-0001	
 2.24250000000000E+0003	 1.27453979019243E-0001	
 2.24450000000000E+0003	 1.27416567419822E-0001	
 2.24650000000000E+0003	 1.27380655820401E-0001	
 2.24850000000000E+0003	 1.27348744220981E-0001	
 2.25050000000000E+0003	 1.27316332621560E-0001	
 2.25250000000000E+0003	 1.27282421022139E-0001	
 2.25450000000000E+0003	 1.27249009422719E-0001	
 2.25650000000000E+0003	 1.27219097823298E-0001	
 2.25850000000000E+0003	 1.27189686223878E-0001	
 2.26050000000000E+0003	 1.27162774624457E-0001	
 2.26250000000000E+0003	 1.27134863025036E-0001	
 2.26450000000000E+0003	 1.27110951425616E-0001	
 2.26650000000000E+0003	 1.27090039826195E-0001	
 2.26850000000000E+0003	 1.27071128226774E-0001	
 2.27050000000000E+0003	 1.27051716627354E-0001	
 2.27250000000000E+0003	 1.27039805027933E-0001	
 2.27450000000000E+0003	 1.27031393428512E-0001	
 2.27650000000000E+0003	 1.27023981829092E-0001	
 2.27850000000000E+0003	 1.27015070229671E-0001	
 2.28050000000000E+0003	 1.27009158630250E-0001	
 2.28250000000000E+0003	 1.27006747030830E-0001	
 2.28450000000000E+0003	 1.27022335431409E-0001	
 2.28650000000000E+0003	 1.27057423831988E-0001	
 2.28850000000000E+0003	 1.27105512232568E-0001	
 2.29050000000000E+0003	 1.27157600633147E-0001	
 2.29250000000000E+0003	 1.27217189033726E-0001	
 2.29450000000000E+0003	 1.27279777434306E-0001	
 2.29650000000000E+0003	 1.27339865834885E-0001	
 2.29850000000000E+0003	 1.27391954235465E-0001	
 2.30050000000000E+0003	 1.27436542636044E-0001	
 2.30250000000000E+0003	 1.27458631036623E-0001	
 2.30450000000000E+0003	 1.27483719437203E-0001	
 2.30650000000000E+0003	 1.27543307837782E-0001	
 2.30850000000000E+0003	 1.27612396238361E-0001	
 2.31050000000000E+0003	 1.27644984638941E-0001	
 2.31250000000000E+0003	 1.27630573039520E-0001	
 2.31450000000000E+0003	 1.27623161440099E-0001	
 2.31650000000000E+0003	 1.27673749840679E-0001	
 2.31850000000000E+0003	 1.27747838241258E-0001	
 2.32050000000000E+0003	 1.27839926641837E-0001	
 2.32250000000000E+0003	 1.27927015042417E-0001	
 2.32450000000000E+0003	 1.27976103442996E-0001	
 2.32650000000000E+0003	 1.27985191843575E-0001	
 2.32850000000000E+0003	 1.27958780244155E-0001	
 2.33050000000000E+0003	 1.27920868644734E-0001	
 2.33250000000000E+0003	 1.27911957045313E-0001	
 2.33450000000000E+0003	 1.27956545445893E-0001	
 2.33650000000000E+0003	 1.28064633846472E-0001	
 2.33850000000000E+0003	 1.28173222247052E-0001	
 2.34050000000000E+0003	 1.28322810647631E-0001	
 2.34250000000000E+0003	 1.28456399048210E-0001	
 2.34450000000000E+0003	 1.28435487448790E-0001	
 2.34650000000000E+0003	 1.28374075849369E-0001	
 2.34850000000000E+0003	 1.28462164249948E-0001	
 2.35050000000000E+0003	 1.28464752650528E-0001	
 2.35250000000000E+0003	 1.28405341051107E-0001	
 2.35450000000000E+0003	 1.28494929451686E-0001	
 2.35650000000000E+0003	 1.28693517852266E-0001	
 2.35850000000000E+0003	 1.28818606252845E-0001	
 2.36050000000000E+0003	 1.28848694653424E-0001	
 2.36250000000000E+0003	 1.28878783054004E-0001	
 2.36450000000000E+0003	 1.28957871454583E-0001	
 2.36650000000000E+0003	 1.29041959855162E-0001	
 2.36850000000000E+0003	 1.29147048255742E-0001	
 2.37050000000000E+0003	 1.29229136656321E-0001	
 2.37250000000000E+0003	 1.29253225056900E-0001	
 2.37450000000000E+0003	 1.29245313457480E-0001	
 2.37650000000000E+0003	 1.29334401858059E-0001	
 2.37850000000000E+0003	 1.29565990258639E-0001	
 2.38050000000000E+0003	 1.29826578659218E-0001	
 2.38250000000000E+0003	 1.29979167059797E-0001	
 2.38450000000000E+0003	 1.30032255460377E-0001	
 2.38650000000000E+0003	 1.30060843860956E-0001	
 2.38850000000000E+0003	 1.30121432261535E-0001	
 2.39050000000000E+0003	 1.30223520662115E-0001	
 2.39250000000000E+0003	 1.30355109062694E-0001	
 2.39450000000000E+0003	 1.30499697463273E-0001	
 2.39650000000000E+0003	 1.30651785863853E-0001	
 2.39850000000000E+0003	 1.30809374264432E-0001	
 2.40050000000000E+0003	 1.30977462665011E-0001	
 2.40250000000000E+0003	 1.31151051065591E-0001	
 2.40450000000000E+0003	 1.31330639466170E-0001	
 2.40650000000000E+0003	 1.31518227866749E-0001	
 2.40850000000000E+0003	 1.31712816267329E-0001	
 2.41050000000000E+0003	 1.31909404667908E-0001	
 2.41250000000000E+0003	 1.32115493068487E-0001	
 2.41450000000000E+0003	 1.32327581469067E-0001	
 2.41650000000000E+0003	 1.32546169869646E-0001	
 2.41850000000000E+0003	 1.32764758270226E-0001	
 2.42050000000000E+0003	 1.32990346670805E-0001	
 2.42250000000000E+0003	 1.33225935071384E-0001	
 2.42450000000000E+0003	 1.33467523471964E-0001	
 2.42650000000000E+0003	 1.33713111872543E-0001	
 2.42850000000000E+0003	 1.33964200273122E-0001	
 2.43050000000000E+0003	 1.34216788673702E-0001	
 2.43250000000000E+0003	 1.34474877074281E-0001	
 2.43450000000000E+0003	 1.34737965474860E-0001	
 2.43650000000000E+0003	 1.35008053875440E-0001	
 2.43850000000000E+0003	 1.35279142276019E-0001	
 2.44050000000000E+0003	 1.35550230676598E-0001	
 2.44250000000000E+0003	 1.35818819077178E-0001	
 2.44450000000000E+0003	 1.36089407477757E-0001	
 2.44650000000000E+0003	 1.36361495878336E-0001	
 2.44850000000000E+0003	 1.36638584278916E-0001	
 2.45050000000000E+0003	 1.36913172679495E-0001	
 2.45250000000000E+0003	 1.37193761080074E-0001	
 2.45450000000000E+0003	 1.37479349480654E-0001	
 2.45650000000000E+0003	 1.37771937881233E-0001	
 2.45850000000000E+0003	 1.38067526281813E-0001	
 2.46050000000000E+0003	 1.38366114682392E-0001	
 2.46250000000000E+0003	 1.38667703082971E-0001	
 2.46450000000000E+0003	 1.38978791483551E-0001	
 2.46650000000000E+0003	 1.39289879884130E-0001	
 2.46850000000000E+0003	 1.39602468284709E-0001	
 2.47050000000000E+0003	 1.39916556685289E-0001	
 2.47250000000000E+0003	 1.40232645085868E-0001	
 2.47450000000000E+0003	 1.40544733486447E-0001	
 2.47650000000000E+0003	 1.40857821887027E-0001	
 2.47850000000000E+0003	 1.41170410287606E-0001	
 2.48050000000000E+0003	 1.41485498688185E-0001	
 2.48250000000000E+0003	 1.41794087088765E-0001	
 2.48450000000000E+0003	 1.42100675489344E-0001	
 2.48650000000000E+0003	 1.42401763889923E-0001	
 2.48850000000000E+0003	 1.42700852290503E-0001	
 2.49050000000000E+0003	 1.42998440691082E-0001	
 2.49250000000000E+0003	 1.43297029091661E-0001	
 2.49450000000000E+0003	 1.43588117492241E-0001	
 2.49650000000000E+0003	 1.43878705892820E-0001	
 2.49850000000000E+0003	 1.44165294293400E-0001	
 2.50050000000000E+0003	 1.44453382693979E-0001	
 2.50250000000000E+0003	 1.44738971094558E-0001	
 2.50450000000000E+0003	 1.45025059495138E-0001	
 2.50650000000000E+0003	 1.45311147895717E-0001	
 2.50850000000000E+0003	 1.45599736296296E-0001	
 2.51050000000000E+0003	 1.45882824696876E-0001	
 2.51250000000000E+0003	 1.46165413097455E-0001	
 2.51450000000000E+0003	 1.46445001498034E-0001	
 2.51650000000000E+0003	 1.46725089898614E-0001	
 2.51850000000000E+0003	 1.47004178299193E-0001	
 2.52050000000000E+0003	 1.47284266699772E-0001	
 2.52250000000000E+0003	 1.47563855100352E-0001	
 2.52450000000000E+0003	 1.47844943500931E-0001	
 2.52650000000000E+0003	 1.48127031901510E-0001	
 2.52850000000000E+0003	 1.48415120302090E-0001	
 2.53050000000000E+0003	 1.48703208702669E-0001	
 2.53250000000000E+0003	 1.48990297103249E-0001	
 2.53450000000000E+0003	 1.49272885503828E-0001	
 2.53650000000000E+0003	 1.49557473904407E-0001	
 2.53850000000000E+0003	 1.49843062304987E-0001	
 2.54050000000000E+0003	 1.50133650705566E-0001	
 2.54250000000000E+0003	 1.50424239106145E-0001	
 2.54450000000000E+0003	 1.50718327506725E-0001	
 2.54650000000000E+0003	 1.51010415907304E-0001	
 2.54850000000000E+0003	 1.51303504307883E-0001	
 2.55050000000000E+0003	 1.51595592708463E-0001	
 2.55250000000000E+0003	 1.51888181109042E-0001	
 2.55450000000000E+0003	 1.52179269509621E-0001	
 2.55650000000000E+0003	 1.52473857910201E-0001	
 2.55850000000000E+0003	 1.52767946310780E-0001	
 2.56050000000000E+0003	 1.53064534711359E-0001	
 2.56250000000000E+0003	 1.53356623111939E-0001	
 2.56450000000000E+0003	 1.53645711512518E-0001	
 2.56650000000000E+0003	 1.53934799913097E-0001	
 2.56850000000000E+0003	 1.54228888313677E-0001	
 2.57050000000000E+0003	 1.54526976714256E-0001	
 2.57250000000000E+0003	 1.54834065114836E-0001	
 2.57450000000000E+0003	 1.55150653515415E-0001	
 2.57650000000000E+0003	 1.55484241915994E-0001	
 2.57850000000000E+0003	 1.55825330316574E-0001	
 2.58050000000000E+0003	 1.56171418717153E-0001	
 2.58250000000000E+0003	 1.56521507117732E-0001	
 2.58450000000000E+0003	 1.56882595518312E-0001	
 2.58650000000000E+0003	 1.57252183918891E-0001	
 2.58850000000000E+0003	 1.57630272319470E-0001	
 2.59050000000000E+0003	 1.58017360720050E-0001	
 2.59250000000000E+0003	 1.58414949120629E-0001	
 2.59450000000000E+0003	 1.58817037521208E-0001	
 2.59650000000000E+0003	 1.59228625921788E-0001	
 2.59850000000000E+0003	 1.59643714322367E-0001	
 2.60050000000000E+0003	 1.60065302722946E-0001	
 2.60250000000000E+0003	 1.60495391123526E-0001	
 2.60450000000000E+0003	 1.60934479524105E-0001	
 2.60650000000000E+0003	 1.61379567924684E-0001	
 2.60850000000000E+0003	 1.61831156325264E-0001	
 2.61050000000000E+0003	 1.62285744725843E-0001	
 2.61250000000000E+0003	 1.62747833126423E-0001	
 2.61450000000000E+0003	 1.63216421527002E-0001	
 2.61650000000000E+0003	 1.63693009927581E-0001	
 2.61850000000000E+0003	 1.64171598328161E-0001	
 2.62050000000000E+0003	 1.64654186728740E-0001	
 2.62250000000000E+0003	 1.65142275129319E-0001	
 2.62450000000000E+0003	 1.65639863529899E-0001	
 2.62650000000000E+0003	 1.66141951930478E-0001	
 2.62850000000000E+0003	 1.66647040331057E-0001	
 2.63050000000000E+0003	 1.67158628731637E-0001	
 2.63250000000000E+0003	 1.67678217132216E-0001	
 2.63450000000000E+0003	 1.68197805532795E-0001	
 2.63650000000000E+0003	 1.68719393933375E-0001	
 2.63850000000000E+0003	 1.69244982333954E-0001	
 2.64050000000000E+0003	 1.69773570734533E-0001	
 2.64250000000000E+0003	 1.70302159135113E-0001	
 2.64450000000000E+0003	 1.70835247535692E-0001	
 2.64650000000000E+0003	 1.71368835936271E-0001	
 2.64850000000000E+0003	 1.71904924336851E-0001	
 2.65050000000000E+0003	 1.72444012737430E-0001	
 2.65250000000000E+0003	 1.72985601138010E-0001	
 2.65450000000000E+0003	 1.73523189538589E-0001	
 2.65650000000000E+0003	 1.74065277939168E-0001	
 2.65850000000000E+0003	 1.74609366339748E-0001	
 2.66050000000000E+0003	 1.75152454740327E-0001	
 2.66250000000000E+0003	 1.75691543140906E-0001	
 2.66450000000000E+0003	 1.76235631541486E-0001	
 2.66650000000000E+0003	 1.76780219942065E-0001	
 2.66850000000000E+0003	 1.77322308342644E-0001	
 2.67050000000000E+0003	 1.77858896743224E-0001	
 2.67250000000000E+0003	 1.78398985143803E-0001	
 2.67450000000000E+0003	 1.78933073544382E-0001	
 2.67650000000000E+0003	 1.79463161944962E-0001	
 2.67850000000000E+0003	 1.79992250345541E-0001	
 2.68050000000000E+0003	 1.80513838746120E-0001	
 2.68250000000000E+0003	 1.81019427146700E-0001	
 2.68450000000000E+0003	 1.81521515547279E-0001	
 2.68650000000000E+0003	 1.82022603947858E-0001	
 2.68850000000000E+0003	 1.82519192348438E-0001	
 2.69050000000000E+0003	 1.83012280749017E-0001	
 2.69250000000000E+0003	 1.83504869149597E-0001	
 2.69450000000000E+0003	 1.83995457550176E-0001	
 2.69650000000000E+0003	 1.84491045950755E-0001	
 2.69850000000000E+0003	 1.84992634351335E-0001	
 2.70050000000000E+0003	 1.85501222751914E-0001	
 2.70250000000000E+0003	 1.86017311152493E-0001	
 2.70450000000000E+0003	 1.86546399553073E-0001	
 2.70650000000000E+0003	 1.87085987953652E-0001	
 2.70850000000000E+0003	 1.87639076354231E-0001	
 2.71050000000000E+0003	 1.88207664754811E-0001	
 2.71250000000000E+0003	 1.88793253155390E-0001	
 2.71450000000000E+0003	 1.89391341555969E-0001	
 2.71650000000000E+0003	 1.90002929956549E-0001	
 2.71850000000000E+0003	 1.90622018357128E-0001	
 2.72050000000000E+0003	 1.91252106757707E-0001	
 2.72250000000000E+0003	 1.91888195158287E-0001	
 2.72450000000000E+0003	 1.92523783558866E-0001	
 2.72650000000000E+0003	 1.93159371959445E-0001	
 2.72850000000000E+0003	 1.93779960360025E-0001	
 2.73050000000000E+0003	 1.94391048760604E-0001	
 2.73250000000000E+0003	 1.95004637161184E-0001	
 2.73450000000000E+0003	 1.95609225561763E-0001	
 2.73650000000000E+0003	 1.96210813962342E-0001	
 2.73850000000000E+0003	 1.96803902362922E-0001	
 2.74050000000000E+0003	 1.97386990763501E-0001	
 2.74250000000000E+0003	 1.97965579164080E-0001	
 2.74450000000000E+0003	 1.98542667564660E-0001	
 2.74650000000000E+0003	 1.99125255965239E-0001	
 2.74850000000000E+0003	 1.99714844365818E-0001	
 2.75050000000000E+0003	 2.00296932766398E-0001	
 2.75250000000000E+0003	 2.00875521166977E-0001	
 2.75450000000000E+0003	 2.01465609567556E-0001	
 2.75650000000000E+0003	 2.02074697968136E-0001	
 2.75850000000000E+0003	 2.02694286368715E-0001	
 2.76050000000000E+0003	 2.03328374769294E-0001	
 2.76250000000000E+0003	 2.03973463169874E-0001	
 2.76450000000000E+0003	 2.04627051570453E-0001	
 2.76650000000000E+0003	 2.05287139971032E-0001	
 2.76850000000000E+0003	 2.05958728371612E-0001	
 2.77050000000000E+0003	 2.06640316772191E-0001	
 2.77250000000000E+0003	 2.07338405172771E-0001	
 2.77450000000000E+0003	 2.08063993573350E-0001	
 2.77650000000000E+0003	 2.08801581973929E-0001	
 2.77850000000000E+0003	 2.09539670374509E-0001	
 2.78050000000000E+0003	 2.10302758775088E-0001	
 2.78250000000000E+0003	 2.11092847175667E-0001	
 2.78450000000000E+0003	 2.11902435576247E-0001	
 2.78650000000000E+0003	 2.12728523976826E-0001	
 2.78850000000000E+0003	 2.13585612377405E-0001	
 2.79050000000000E+0003	 2.14458700777985E-0001	
 2.79250000000000E+0003	 2.15328289178564E-0001	
 2.79450000000000E+0003	 2.16209377579143E-0001	
 2.79650000000000E+0003	 2.17118465979723E-0001	
 2.79850000000000E+0003	 2.18051554380302E-0001	
 2.80050000000000E+0003	 2.18986142780881E-0001	
 2.80250000000000E+0003	 2.19923731181461E-0001	
 2.80450000000000E+0003	 2.20884819582040E-0001	
 2.80650000000000E+0003	 2.21866907982619E-0001	
 2.80850000000000E+0003	 2.22873996383199E-0001	
 2.81050000000000E+0003	 2.23907584783778E-0001	
 2.81250000000000E+0003	 2.24951673184358E-0001	
 2.81450000000000E+0003	 2.26012261584937E-0001	
 2.81650000000000E+0003	 2.27106849985516E-0001	
 2.81850000000000E+0003	 2.28237438386096E-0001	
 2.82050000000000E+0003	 2.29404026786675E-0001	
 2.82250000000000E+0003	 2.30608115187254E-0001	
 2.82450000000000E+0003	 2.31860703587834E-0001	
 2.82650000000000E+0003	 2.33165291988413E-0001	
 2.82850000000000E+0003	 2.34528880388992E-0001	
 2.83050000000000E+0003	 2.35968968789572E-0001	
 2.83250000000000E+0003	 2.37507557190151E-0001	
 2.83450000000000E+0003	 2.39163145590730E-0001	
 2.83650000000000E+0003	 2.40976733991310E-0001	
 2.83850000000000E+0003	 2.43026822391889E-0001	
 2.84050000000000E+0003	 2.45360910792468E-0001	
 2.84250000000000E+0003	 2.48098499193048E-0001	
 2.84450000000000E+0003	 2.51407087593627E-0001	
 2.84650000000000E+0003	 2.55308175994206E-0001	
 2.84850000000000E+0003	 2.59601264394786E-0001	
 2.85050000000000E+0003	 2.63834852795365E-0001	
 2.85250000000000E+0003	 2.67434441195945E-0001	
 2.85450000000000E+0003	 2.69965029596524E-0001	
 2.85650000000000E+0003	 2.71469617997103E-0001	
 2.85850000000000E+0003	 2.72420206397683E-0001	
 2.86050000000000E+0003	 2.73337794798262E-0001	
 2.86250000000000E+0003	 2.74560383198841E-0001	
 2.86450000000000E+0003	 2.76277471599421E-0001	
 2.86650000000000E+0003	 2.78481560000000E-0001	
 2.86850000000000E+0003	 2.80984648400579E-0001	
 2.87050000000000E+0003	 2.83534236801159E-0001	
 2.87250000000000E+0003	 2.85830825201738E-0001	
 2.87450000000000E+0003	 2.87516913602317E-0001	
 2.87650000000000E+0003	 2.88498002002897E-0001	
 2.87850000000000E+0003	 2.89020090403476E-0001	
 2.88050000000000E+0003	 2.89327178804055E-0001	
 2.88250000000000E+0003	 2.89603267204635E-0001	
 2.88450000000000E+0003	 2.89988355605214E-0001	
 2.88650000000000E+0003	 2.90557944005794E-0001	
 2.88850000000000E+0003	 2.91350032406373E-0001	
 2.89050000000000E+0003	 2.92362120806952E-0001	
 2.89250000000000E+0003	 2.93579209207532E-0001	
 2.89450000000000E+0003	 2.94995297608111E-0001	
 2.89650000000000E+0003	 2.96569886008690E-0001	
 2.89850000000000E+0003	 2.98268974409270E-0001	
 2.90050000000000E+0003	 3.00162562809849E-0001	
 2.90250000000000E+0003	 3.02319651210428E-0001	
 2.90450000000000E+0003	 3.04769239611008E-0001	
 2.90650000000000E+0003	 3.07538828011587E-0001	
 2.90850000000000E+0003	 3.10695416412166E-0001	
 2.91050000000000E+0003	 3.14289504812746E-0001	
 2.91250000000000E+0003	 3.18339093213325E-0001	
 2.91450000000000E+0003	 3.22725681613904E-0001	
 2.91650000000000E+0003	 3.27268270014484E-0001	
 2.91850000000000E+0003	 3.31786858415063E-0001	
 2.92050000000000E+0003	 3.35974946815642E-0001	
 2.92250000000000E+0003	 3.39527535216222E-0001	
 2.92450000000000E+0003	 3.42245623616801E-0001	
 2.92650000000000E+0003	 3.44102212017381E-0001	
 2.92850000000000E+0003	 3.45217300417960E-0001	
 2.93050000000000E+0003	 3.45619888818539E-0001	
 2.93250000000000E+0003	 3.45282977219119E-0001	
 2.93450000000000E+0003	 3.44266565619698E-0001	
 2.93650000000000E+0003	 3.42564154020277E-0001	
 2.93850000000000E+0003	 3.40174242420857E-0001	
 2.94050000000000E+0003	 3.37267830821436E-0001	
 2.94250000000000E+0003	 3.34166919222015E-0001	
 2.94450000000000E+0003	 3.31159007622595E-0001	
 2.94650000000000E+0003	 3.28470596023174E-0001	
 2.94850000000000E+0003	 3.26334184423753E-0001	
 2.95050000000000E+0003	 3.24966772824333E-0001	
 2.95250000000000E+0003	 3.24370361224912E-0001	
 2.95450000000000E+0003	 3.24212949625491E-0001	
 2.95650000000000E+0003	 3.24197538026071E-0001	
 2.95850000000000E+0003	 3.24062626426650E-0001	
 2.96050000000000E+0003	 3.23541714827229E-0001	
 2.96250000000000E+0003	 3.22465303227809E-0001	
 2.96450000000000E+0003	 3.20781891628388E-0001	
 2.96650000000000E+0003	 3.18564980028968E-0001	
 2.96850000000000E+0003	 3.15966068429547E-0001	
 2.97050000000000E+0003	 3.13222156830126E-0001	
 2.97250000000000E+0003	 3.10558245230706E-0001	
 2.97450000000000E+0003	 3.07965333631285E-0001	
 2.97650000000000E+0003	 3.05377422031864E-0001	
 2.97850000000000E+0003	 3.02863510432444E-0001	
 2.98050000000000E+0003	 3.00444098833023E-0001	
 2.98250000000000E+0003	 2.98086187233602E-0001	
 2.98450000000000E+0003	 2.95860275634182E-0001	
 2.98650000000000E+0003	 2.93851864034761E-0001	
 2.98850000000000E+0003	 2.92082452435340E-0001	
 2.99050000000000E+0003	 2.90573040835920E-0001	
 2.99250000000000E+0003	 2.89313129236499E-0001	
 2.99450000000000E+0003	 2.88248217637078E-0001	
 2.99650000000000E+0003	 2.87478306037658E-0001	
 2.99850000000000E+0003	 2.87032894438237E-0001	
 3.00050000000000E+0003	 2.86852482838816E-0001	
 3.00250000000000E+0003	 2.86961071239396E-0001	
 3.00450000000000E+0003	 2.87330159639975E-0001	
 3.00650000000000E+0003	 2.87902248040555E-0001	
 3.00850000000000E+0003	 2.88698336441134E-0001	
 3.01050000000000E+0003	 2.89735924841713E-0001	
 3.01250000000000E+0003	 2.90940013242293E-0001	
 3.01450000000000E+0003	 2.92220601642872E-0001	
 3.01650000000000E+0003	 2.93584190043451E-0001	
 3.01850000000000E+0003	 2.95090778444031E-0001	
 3.02050000000000E+0003	 2.96736866844610E-0001	
 3.02250000000000E+0003	 2.98511955245189E-0001	
 3.02450000000000E+0003	 3.00415043645769E-0001	
 3.02650000000000E+0003	 3.02359132046348E-0001	
 3.02850000000000E+0003	 3.04317720446927E-0001	
 3.03050000000000E+0003	 3.06306808847507E-0001	
 3.03250000000000E+0003	 3.08319397248086E-0001	
 3.03450000000000E+0003	 3.10349985648665E-0001	
 3.03650000000000E+0003	 3.12363574049245E-0001	
 3.03850000000000E+0003	 3.14410162449824E-0001	
 3.04050000000000E+0003	 3.16565250850403E-0001	
 3.04250000000000E+0003	 3.18770339250983E-0001	
 3.04450000000000E+0003	 3.20949927651562E-0001	
 3.04650000000000E+0003	 3.23117016052142E-0001	
 3.04850000000000E+0003	 3.25325604452721E-0001	
 3.05050000000000E+0003	 3.27600192853300E-0001	
 3.05250000000000E+0003	 3.29871281253880E-0001	
 3.05450000000000E+0003	 3.32119369654459E-0001	
 3.05650000000000E+0003	 3.34355458055038E-0001	
 3.05850000000000E+0003	 3.36522046455618E-0001	
 3.06050000000000E+0003	 3.38594634856197E-0001	
 3.06250000000000E+0003	 3.40580723256776E-0001	
 3.06450000000000E+0003	 3.42489311657356E-0001	
 3.06650000000000E+0003	 3.44337400057935E-0001	
 3.06850000000000E+0003	 3.46095988458514E-0001	
 3.07050000000000E+0003	 3.47748076859094E-0001	
 3.07250000000000E+0003	 3.49355665259673E-0001	
 3.07450000000000E+0003	 3.50950253660252E-0001	
 3.07650000000000E+0003	 3.52552842060832E-0001	
 3.07850000000000E+0003	 3.54149930461411E-0001	
 3.08050000000000E+0003	 3.55684518861990E-0001	
 3.08250000000000E+0003	 3.57160607262570E-0001	
 3.08450000000000E+0003	 3.58626695663149E-0001	
 3.08650000000000E+0003	 3.60045284063729E-0001	
 3.08850000000000E+0003	 3.61417872464308E-0001	
 3.09050000000000E+0003	 3.62780960864887E-0001	
 3.09250000000000E+0003	 3.64102049265467E-0001	
 3.09450000000000E+0003	 3.65391137666046E-0001	
 3.09650000000000E+0003	 3.66696226066625E-0001	
 3.09850000000000E+0003	 3.68030814467205E-0001	
 3.10050000000000E+0003	 3.69393902867784E-0001	
 3.10250000000000E+0003	 3.70761491268363E-0001	
 3.10450000000000E+0003	 3.72152579668943E-0001	
 3.10650000000000E+0003	 3.73612168069522E-0001	
 3.10850000000000E+0003	 3.75147756470101E-0001	
 3.11050000000000E+0003	 3.76693344870681E-0001	
 3.11250000000000E+0003	 3.78277433271260E-0001	
 3.11450000000000E+0003	 3.80000521671839E-0001	
 3.11650000000000E+0003	 3.81826610072419E-0001	
 3.11850000000000E+0003	 3.83676198472998E-0001	
 3.12050000000000E+0003	 3.85546286873577E-0001	
 3.12250000000000E+0003	 3.87420375274157E-0001	
 3.12450000000000E+0003	 3.89359463674736E-0001	
 3.12650000000000E+0003	 3.91419052075316E-0001	
 3.12850000000000E+0003	 3.93574640475895E-0001	
 3.13050000000000E+0003	 3.95776728876474E-0001	
 3.13250000000000E+0003	 3.98008317277054E-0001	
 3.13450000000000E+0003	 4.00301405677633E-0001	
 3.13650000000000E+0003	 4.02693494078212E-0001	
 3.13850000000000E+0003	 4.05176582478792E-0001	
 3.14050000000000E+0003	 4.07638170879371E-0001	
 3.14250000000000E+0003	 4.10068259279950E-0001	
 3.14450000000000E+0003	 4.12582347680530E-0001	
 3.14650000000000E+0003	 4.15188436081109E-0001	
 3.14850000000000E+0003	 4.17878524481688E-0001	
 3.15050000000000E+0003	 4.20697112882268E-0001	
 3.15250000000000E+0003	 4.23556701282847E-0001	
 3.15450000000000E+0003	 4.26297289683426E-0001	
 3.15650000000000E+0003	 4.29028878084006E-0001	
 3.15850000000000E+0003	 4.31867966484585E-0001	
 3.16050000000000E+0003	 4.34777054885164E-0001	
 3.16250000000000E+0003	 4.37719143285744E-0001	
 3.16450000000000E+0003	 4.40683731686323E-0001	
 3.16650000000000E+0003	 4.43668820086903E-0001	
 3.16850000000000E+0003	 4.46677408487482E-0001	
 3.17050000000000E+0003	 4.49690496888061E-0001	
 3.17250000000000E+0003	 4.52699085288641E-0001	
 3.17450000000000E+0003	 4.55701173689220E-0001	
 3.17650000000000E+0003	 4.58703262089799E-0001	
 3.17850000000000E+0003	 4.61699850490379E-0001	
 3.18050000000000E+0003	 4.64675938890958E-0001	
 3.18250000000000E+0003	 4.67623027291537E-0001	
 3.18450000000000E+0003	 4.70555115692117E-0001	
 3.18650000000000E+0003	 4.73464704092696E-0001	
 3.18850000000000E+0003	 4.76342292493275E-0001	
 3.19050000000000E+0003	 4.79175880893855E-0001	
 3.19250000000000E+0003	 4.81968969294434E-0001	
 3.19450000000000E+0003	 4.84713057695013E-0001	
 3.19650000000000E+0003	 4.87411646095593E-0001	
 3.19850000000000E+0003	 4.90077234496172E-0001	
 3.20050000000000E+0003	 4.92710822896752E-0001	
 3.20250000000000E+0003	 4.95302911297331E-0001	
 3.20450000000000E+0003	 4.97861999697910E-0001	
 3.20650000000000E+0003	 5.00391088098490E-0001	
 3.20850000000000E+0003	 5.02886176499069E-0001	
 3.21050000000000E+0003	 5.05357264899648E-0001	
 3.21250000000000E+0003	 5.07832853300228E-0001	
 3.21450000000000E+0003	 5.10304441700807E-0001	
 3.21650000000000E+0003	 5.12767530101386E-0001	
 3.21850000000000E+0003	 5.15227618501966E-0001	
 3.22050000000000E+0003	 5.17675706902545E-0001	
 3.22250000000000E+0003	 5.20115795303124E-0001	
 3.22450000000000E+0003	 5.22591883703704E-0001	
 3.22650000000000E+0003	 5.25098972104283E-0001	
 3.22850000000000E+0003	 5.27644560504862E-0001	
 3.23050000000000E+0003	 5.30294648905442E-0001	
 3.23250000000000E+0003	 5.33066237306021E-0001	
 3.23450000000000E+0003	 5.35750825706600E-0001	
 3.23650000000000E+0003	 5.38337914107180E-0001	
 3.23850000000000E+0003	 5.41038502507759E-0001	
 3.24050000000000E+0003	 5.43883090908339E-0001	
 3.24250000000000E+0003	 5.46817679308918E-0001	
 3.24450000000000E+0003	 5.49868267709497E-0001	
 3.24650000000000E+0003	 5.52996356110077E-0001	
 3.24850000000000E+0003	 5.56090944510656E-0001	
 3.25050000000000E+0003	 5.59178532911235E-0001	
 3.25250000000000E+0003	 5.62374121311815E-0001	
 3.25450000000000E+0003	 5.65665709712394E-0001	
 3.25650000000000E+0003	 5.68970798112973E-0001	
 3.25850000000000E+0003	 5.72246886513553E-0001	
 3.26050000000000E+0003	 5.75532474914132E-0001	
 3.26250000000000E+0003	 5.78816063314711E-0001	
 3.26450000000000E+0003	 5.82075151715291E-0001	
 3.26650000000000E+0003	 5.85285240115870E-0001	
 3.26850000000000E+0003	 5.88470828516449E-0001	
 3.27050000000000E+0003	 5.91593416917029E-0001	
 3.27250000000000E+0003	 5.94521005317608E-0001	
 3.27450000000000E+0003	 5.97259593718187E-0001	
 3.27650000000000E+0003	 5.99901182118767E-0001	
 3.27850000000000E+0003	 6.02420770519346E-0001	
 3.28050000000000E+0003	 6.04814358919926E-0001	
 3.28250000000000E+0003	 6.07060947320505E-0001	
 3.28450000000000E+0003	 6.09160035721084E-0001	
 3.28650000000000E+0003	 6.11107124121664E-0001	
 3.28850000000000E+0003	 6.12916712522243E-0001	
 3.29050000000000E+0003	 6.14607300922822E-0001	
 3.29250000000000E+0003	 6.16157889323402E-0001	
 3.29450000000000E+0003	 6.17523477723981E-0001	
 3.29650000000000E+0003	 6.18740066124560E-0001	
 3.29850000000000E+0003	 6.19807654525140E-0001	
 3.30050000000000E+0003	 6.20779242925719E-0001	
 3.30250000000000E+0003	 6.21717831326298E-0001	
 3.30450000000000E+0003	 6.22630919726878E-0001	
 3.30650000000000E+0003	 6.23409508127457E-0001	
 3.30850000000000E+0003	 6.24020096528036E-0001	
 3.31050000000000E+0003	 6.24521684928616E-0001	
 3.31250000000000E+0003	 6.24991273329195E-0001	
 3.31450000000000E+0003	 6.25451361729774E-0001	
 3.31650000000000E+0003	 6.25903950130354E-0001	
 3.31850000000000E+0003	 6.26338538530933E-0001	
 3.32050000000000E+0003	 6.26774626931513E-0001	
 3.32250000000000E+0003	 6.27217715332092E-0001	
 3.32450000000000E+0003	 6.27688303732671E-0001	
 3.32650000000000E+0003	 6.28135892133251E-0001	
 3.32850000000000E+0003	 6.28552480533830E-0001	
 3.33050000000000E+0003	 6.28990068934409E-0001	
 3.33250000000000E+0003	 6.29472157334989E-0001	
 3.33450000000000E+0003	 6.29985745735568E-0001	
 3.33650000000000E+0003	 6.30570334136147E-0001	
 3.33850000000000E+0003	 6.31164922536727E-0001	
 3.34050000000000E+0003	 6.31705510937306E-0001	
 3.34250000000000E+0003	 6.32235599337885E-0001	
 3.34450000000000E+0003	 6.32775187738465E-0001	
 3.34650000000000E+0003	 6.33325276139044E-0001	
 3.34850000000000E+0003	 6.33971864539623E-0001	
 3.35050000000000E+0003	 6.34641452940203E-0001	
 3.35250000000000E+0003	 6.35184541340782E-0001	
 3.35450000000000E+0003	 6.35661629741361E-0001	
 3.35650000000000E+0003	 6.36215718141941E-0001	
 3.35850000000000E+0003	 6.36829306542520E-0001	
 3.36050000000000E+0003	 6.37451394943100E-0001	
 3.36250000000000E+0003	 6.38031483343679E-0001	
 3.36450000000000E+0003	 6.38671071744258E-0001	
 3.36650000000000E+0003	 6.39410160144838E-0001	
 3.36850000000000E+0003	 6.40109248545417E-0001	
 3.37050000000000E+0003	 6.40571836945996E-0001	
 3.37250000000000E+0003	 6.40889425346576E-0001	
 3.37450000000000E+0003	 6.41299013747155E-0001	
 3.37650000000000E+0003	 6.41804602147734E-0001	
 3.37850000000000E+0003	 6.42291190548314E-0001	
 3.38050000000000E+0003	 6.42744278948893E-0001	
 3.38250000000000E+0003	 6.43149367349472E-0001	
 3.38450000000000E+0003	 6.43552955750052E-0001	
 3.38650000000000E+0003	 6.43979544150631E-0001	
 3.38850000000000E+0003	 6.44525132551210E-0001	
 3.39050000000000E+0003	 6.45173720951790E-0001	
 3.39250000000000E+0003	 6.45578809352369E-0001	
 3.39450000000000E+0003	 6.45675397752948E-0001	
 3.39650000000000E+0003	 6.45892986153528E-0001	
 3.39850000000000E+0003	 6.46432574554107E-0001	
 3.40050000000000E+0003	 6.46932662954687E-0001	
 3.40250000000000E+0003	 6.46898751355266E-0001	
 3.40450000000000E+0003	 6.46641339755845E-0001	
 3.40650000000000E+0003	 6.46624928156425E-0001	
 3.40850000000000E+0003	 6.46759516557004E-0001	
 3.41050000000000E+0003	 6.46803604957583E-0001	
 3.41250000000000E+0003	 6.46741193358163E-0001	
 3.41450000000000E+0003	 6.46511781758742E-0001	
 3.41650000000000E+0003	 6.46196870159321E-0001	
 3.41850000000000E+0003	 6.45934958559901E-0001	
 3.42050000000000E+0003	 6.45667546960480E-0001	
 3.42250000000000E+0003	 6.45271135361059E-0001	
 3.42450000000000E+0003	 6.44829223761639E-0001	
 3.42650000000000E+0003	 6.44445812162218E-0001	
 3.42850000000000E+0003	 6.44089900562797E-0001	
 3.43050000000000E+0003	 6.43555488963377E-0001	
 3.43250000000000E+0003	 6.42932577363956E-0001	
 3.43450000000000E+0003	 6.42381165764535E-0001	
 3.43650000000000E+0003	 6.41596254165115E-0001	
 3.43850000000000E+0003	 6.40388342565694E-0001	
 3.44050000000000E+0003	 6.39101430966274E-0001	
 3.44250000000000E+0003	 6.37951519366853E-0001	
 3.44450000000000E+0003	 6.36885607767432E-0001	
 3.44650000000000E+0003	 6.35778696168012E-0001	
 3.44850000000000E+0003	 6.34536784568591E-0001	
 3.45050000000000E+0003	 6.33219872969170E-0001	
 3.45250000000000E+0003	 6.31891961369750E-0001	
 3.45450000000000E+0003	 6.30507049770329E-0001	
 3.45650000000000E+0003	 6.29119138170908E-0001	
 3.45850000000000E+0003	 6.27771726571488E-0001	
 3.46050000000000E+0003	 6.26305314972067E-0001	
 3.46250000000000E+0003	 6.24641903372646E-0001	
 3.46450000000000E+0003	 6.23148491773226E-0001	
 3.46650000000000E+0003	 6.21904580173805E-0001	
 3.46850000000000E+0003	 6.20384668574384E-0001	
 3.47050000000000E+0003	 6.18224756974964E-0001	
 3.47250000000000E+0003	 6.15883345375543E-0001	
 3.47450000000000E+0003	 6.13795933776122E-0001	
 3.47650000000000E+0003	 6.11940022176702E-0001	
 3.47850000000000E+0003	 6.10195110577281E-0001	
 3.48050000000000E+0003	 6.08193698977861E-0001	
 3.48250000000000E+0003	 6.05864287378440E-0001	
 3.48450000000000E+0003	 6.03687875779019E-0001	
 3.48650000000000E+0003	 6.01639964179599E-0001	
 3.48850000000000E+0003	 5.99415052580178E-0001	
 3.49050000000000E+0003	 5.97105140980757E-0001	
 3.49250000000000E+0003	 5.94886229381337E-0001	
 3.49450000000000E+0003	 5.92715317781916E-0001	
 3.49650000000000E+0003	 5.90493906182495E-0001	
 3.49850000000000E+0003	 5.88144494583075E-0001	
 3.50050000000000E+0003	 5.85848582983654E-0001	
 3.50250000000000E+0003	 5.83501171384233E-0001	
 3.50450000000000E+0003	 5.80778259784813E-0001	
 3.50650000000000E+0003	 5.77996348185392E-0001	
 3.50850000000000E+0003	 5.75407936585971E-0001	
 3.51050000000000E+0003	 5.72921524986551E-0001	
 3.51250000000000E+0003	 5.70530613387130E-0001	
 3.51450000000000E+0003	 5.67978701787709E-0001	
 3.51650000000000E+0003	 5.65196290188289E-0001	
 3.51850000000000E+0003	 5.62415878588868E-0001	
 3.52050000000000E+0003	 5.59807466989448E-0001	
 3.52250000000000E+0003	 5.57313055390027E-0001	
 3.52450000000000E+0003	 5.54536643790606E-0001	
 3.52650000000000E+0003	 5.51455232191186E-0001	
 3.52850000000000E+0003	 5.48437820591765E-0001	
 3.53050000000000E+0003	 5.45524908992344E-0001	
 3.53250000000000E+0003	 5.42679497392924E-0001	
 3.53450000000000E+0003	 5.39948585793503E-0001	
 3.53650000000000E+0003	 5.37065174194082E-0001	
 3.53850000000000E+0003	 5.33867262594662E-0001	
 3.54050000000000E+0003	 5.30784350995241E-0001	
 3.54250000000000E+0003	 5.27938439395820E-0001	
 3.54450000000000E+0003	 5.24949527796400E-0001	
 3.54650000000000E+0003	 5.21446116196979E-0001	
 3.54850000000000E+0003	 5.17767704597558E-0001	
 3.55050000000000E+0003	 5.14361792998138E-0001	
 3.55250000000000E+0003	 5.10944381398717E-0001	
 3.55450000000000E+0003	 5.07402469799297E-0001	
 3.55650000000000E+0003	 5.03937058199876E-0001	
 3.55850000000000E+0003	 5.00508146600455E-0001	
 3.56050000000000E+0003	 4.97007235001035E-0001	
 3.56250000000000E+0003	 4.93341823401614E-0001	
 3.56450000000000E+0003	 4.89601411802193E-0001	
 3.56650000000000E+0003	 4.85813000202773E-0001	
 3.56850000000000E+0003	 4.81999588603352E-0001	
 3.57050000000000E+0003	 4.78278177003931E-0001	
 3.57250000000000E+0003	 4.74514265404511E-0001	
 3.57450000000000E+0003	 4.70643853805090E-0001	
 3.57650000000000E+0003	 4.66749942205669E-0001	
 3.57850000000000E+0003	 4.62876030606249E-0001	
 3.58050000000000E+0003	 4.59045119006828E-0001	
 3.58250000000000E+0003	 4.55251707407407E-0001	
 3.58450000000000E+0003	 4.51458795807987E-0001	
 3.58650000000000E+0003	 4.47301384208566E-0001	
 3.58850000000000E+0003	 4.42732472609145E-0001	
 3.59050000000000E+0003	 4.38490561009725E-0001	
 3.59250000000000E+0003	 4.34554649410304E-0001	
 3.59450000000000E+0003	 4.30427237810884E-0001	
 3.59650000000000E+0003	 4.26249826211463E-0001	
 3.59850000000000E+0003	 4.22228414612042E-0001	
 3.60050000000000E+0003	 4.18128503012622E-0001	
 3.60250000000000E+0003	 4.13926091413201E-0001	
 3.60450000000000E+0003	 4.09794679813780E-0001	
 3.60650000000000E+0003	 4.05633768214360E-0001	
 3.60850000000000E+0003	 4.01299356614939E-0001	
 3.61050000000000E+0003	 3.97011945015518E-0001	
 3.61250000000000E+0003	 3.92882033416098E-0001	
 3.61450000000000E+0003	 3.88746621816677E-0001	
 3.61650000000000E+0003	 3.84722710217256E-0001	
 3.61850000000000E+0003	 3.80663298617836E-0001	
 3.62050000000000E+0003	 3.76458387018415E-0001	
 3.62250000000000E+0003	 3.72394475418994E-0001	
 3.62450000000000E+0003	 3.68462563819574E-0001	
 3.62650000000000E+0003	 3.64611652220153E-0001	
 3.62850000000000E+0003	 3.60485740620732E-0001	
 3.63050000000000E+0003	 3.56132829021312E-0001	
 3.63250000000000E+0003	 3.52318417421891E-0001	
 3.63450000000000E+0003	 3.48634005822471E-0001	
 3.63650000000000E+0003	 3.44832094223050E-0001	
 3.63850000000000E+0003	 3.41062182623629E-0001	
 3.64050000000000E+0003	 3.37324771024209E-0001	
 3.64250000000000E+0003	 3.33629859424788E-0001	
 3.64450000000000E+0003	 3.30072447825367E-0001	
 3.64650000000000E+0003	 3.26612536225947E-0001	
 3.64850000000000E+0003	 3.23075124626526E-0001	
 3.65050000000000E+0003	 3.19449213027105E-0001	
 3.65250000000000E+0003	 3.15985301427685E-0001	
 3.65450000000000E+0003	 3.12829389828264E-0001	
 3.65650000000000E+0003	 3.09684978228843E-0001	
 3.65850000000000E+0003	 3.06605066629423E-0001	
 3.66050000000000E+0003	 3.03647655030002E-0001	
 3.66250000000000E+0003	 3.00610243430581E-0001	
 3.66450000000000E+0003	 2.97652331831161E-0001	
 3.66650000000000E+0003	 2.94930920231740E-0001	
 3.66850000000000E+0003	 2.92306008632319E-0001	
 3.67050000000000E+0003	 2.89583597032899E-0001	
 3.67250000000000E+0003	 2.87133185433478E-0001	
 3.67450000000000E+0003	 2.84901773834058E-0001	
 3.67650000000000E+0003	 2.82490862234637E-0001	
 3.67850000000000E+0003	 2.80269950635216E-0001	
 3.68050000000000E+0003	 2.78255539035796E-0001	
 3.68250000000000E+0003	 2.76301127436375E-0001	
 3.68450000000000E+0003	 2.74463215836954E-0001	
 3.68650000000000E+0003	 2.72825804237534E-0001	
 3.68850000000000E+0003	 2.71202892638113E-0001	
 3.69050000000000E+0003	 2.69369981038692E-0001	
 3.69250000000000E+0003	 2.67605569439272E-0001	
 3.69450000000000E+0003	 2.66091157839851E-0001	
 3.69650000000000E+0003	 2.64681746240430E-0001	
 3.69850000000000E+0003	 2.63306834641010E-0001	
 3.70050000000000E+0003	 2.61990923041589E-0001	
 3.70250000000000E+0003	 2.60714011442168E-0001	
 3.70450000000000E+0003	 2.59518599842748E-0001	
 3.70650000000000E+0003	 2.58411188243327E-0001	
 3.70850000000000E+0003	 2.57350276643906E-0001	
 3.71050000000000E+0003	 2.56297365044486E-0001	
 3.71250000000000E+0003	 2.55261953445065E-0001	
 3.71450000000000E+0003	 2.54300541845645E-0001	
 3.71650000000000E+0003	 2.53392630246224E-0001	
 3.71850000000000E+0003	 2.52504718646803E-0001	
 3.72050000000000E+0003	 2.51640807047383E-0001	
 3.72250000000000E+0003	 2.50801895447962E-0001	
 3.72450000000000E+0003	 2.49995983848541E-0001	
 3.72650000000000E+0003	 2.49202572249121E-0001	
 3.72850000000000E+0003	 2.48445660649700E-0001	
 3.73050000000000E+0003	 2.47743249050279E-0001	
 3.73250000000000E+0003	 2.47078837450859E-0001	
 3.73450000000000E+0003	 2.46445925851438E-0001	
 3.73650000000000E+0003	 2.45832514252017E-0001	
 3.73850000000000E+0003	 2.45214102652597E-0001	
 3.74050000000000E+0003	 2.44528191053176E-0001	
 3.74250000000000E+0003	 2.43860279453755E-0001	
 3.74450000000000E+0003	 2.43182867854335E-0001	
 3.74650000000000E+0003	 2.42535456254914E-0001	
 3.74850000000000E+0003	 2.41950044655493E-0001	
 3.75050000000000E+0003	 2.41388133056073E-0001	
 3.75250000000000E+0003	 2.40876221456652E-0001	
 3.75450000000000E+0003	 2.40393809857232E-0001	
 3.75650000000000E+0003	 2.39894898257811E-0001	
 3.75850000000000E+0003	 2.39391986658390E-0001	
 3.76050000000000E+0003	 2.38894575058970E-0001	
 3.76250000000000E+0003	 2.38423663459549E-0001	
 3.76450000000000E+0003	 2.37960751860128E-0001	
 3.76650000000000E+0003	 2.37500840260708E-0001	
 3.76850000000000E+0003	 2.37061428661287E-0001	
 3.77050000000000E+0003	 2.36616517061866E-0001	
 3.77250000000000E+0003	 2.36181605462446E-0001	
 3.77450000000000E+0003	 2.35758193863025E-0001	
 3.77650000000000E+0003	 2.35380282263604E-0001	
 3.77850000000000E+0003	 2.35030370664184E-0001	
 3.78050000000000E+0003	 2.34626959064763E-0001	
 3.78250000000000E+0003	 2.34183547465342E-0001	
 3.78450000000000E+0003	 2.33765635865922E-0001	
 3.78650000000000E+0003	 2.33395224266501E-0001	
 3.78850000000000E+0003	 2.33059812667080E-0001	
 3.79050000000000E+0003	 2.32720401067660E-0001	
 3.79250000000000E+0003	 2.32356489468239E-0001	
 3.79450000000000E+0003	 2.31993577868819E-0001	
 3.79650000000000E+0003	 2.31626166269398E-0001	
 3.79850000000000E+0003	 2.31283754669977E-0001	
 3.80050000000000E+0003	 2.30955343070557E-0001	
 3.80250000000000E+0003	 2.30639431471136E-0001	
 3.80450000000000E+0003	 2.30360019871715E-0001	
 3.80650000000000E+0003	 2.30066108272295E-0001	
 3.80850000000000E+0003	 2.29788196672874E-0001	
 3.81050000000000E+0003	 2.29493785073453E-0001	
 3.81250000000000E+0003	 2.29191873474033E-0001	
 3.81450000000000E+0003	 2.28915961874612E-0001	
 3.81650000000000E+0003	 2.28653050275191E-0001	
 3.81850000000000E+0003	 2.28433638675771E-0001	
 3.82050000000000E+0003	 2.28179727076350E-0001	
 3.82250000000000E+0003	 2.27903315476929E-0001	
 3.82450000000000E+0003	 2.27641403877509E-0001	
 3.82650000000000E+0003	 2.27376492278088E-0001	
 3.82850000000000E+0003	 2.27144580678667E-0001	
 3.83050000000000E+0003	 2.26926169079247E-0001	
 3.83250000000000E+0003	 2.26719257479826E-0001	
 3.83450000000000E+0003	 2.26564845880406E-0001	
 3.83650000000000E+0003	 2.26393934280985E-0001	
 3.83850000000000E+0003	 2.26127022681564E-0001	
 3.84050000000000E+0003	 2.25858611082144E-0001	
 3.84250000000000E+0003	 2.25645699482723E-0001	
 3.84450000000000E+0003	 2.25478287883302E-0001	
 3.84650000000000E+0003	 2.25294876283882E-0001	
 3.84850000000000E+0003	 2.25055464684461E-0001	
 3.85050000000000E+0003	 2.24833553085040E-0001	
 3.85250000000000E+0003	 2.24680641485620E-0001	
 3.85450000000000E+0003	 2.24562229886199E-0001	
 3.85650000000000E+0003	 2.24416318286778E-0001	
 3.85850000000000E+0003	 2.24197906687358E-0001	
 3.86050000000000E+0003	 2.24015995087937E-0001	
 3.86250000000000E+0003	 2.23864583488516E-0001	
 3.86450000000000E+0003	 2.23699171889096E-0001	
 3.86650000000000E+0003	 2.23560260289675E-0001	
 3.86850000000000E+0003	 2.23416348690255E-0001	
 3.87050000000000E+0003	 2.23260437090834E-0001	
 3.87250000000000E+0003	 2.23130025491413E-0001	
 3.87450000000000E+0003	 2.22977613891993E-0001	
 3.87650000000000E+0003	 2.22847202292572E-0001	
 3.87850000000000E+0003	 2.22738290693151E-0001	
 3.88050000000000E+0003	 2.22598879093731E-0001	
 3.88250000000000E+0003	 2.22499967494310E-0001	
 3.88450000000000E+0003	 2.22441555894889E-0001	
 3.88650000000000E+0003	 2.22324144295469E-0001	
 3.88850000000000E+0003	 2.22184732696048E-0001	
 3.89050000000000E+0003	 2.22073821096627E-0001	
 3.89250000000000E+0003	 2.21959909497207E-0001	
 3.89450000000000E+0003	 2.21829997897786E-0001	
 3.89650000000000E+0003	 2.21724086298365E-0001	
 3.89850000000000E+0003	 2.21643674698945E-0001	
 3.90050000000000E+0003	 2.21556263099524E-0001	
 3.90250000000000E+0003	 2.21483851500103E-0001	
 3.90450000000000E+0003	 2.21418939900683E-0001	
 3.90650000000000E+0003	 2.21343528301262E-0001	
 3.90850000000000E+0003	 2.21264116701842E-0001	
 3.91050000000000E+0003	 2.21197205102421E-0001	
 3.91250000000000E+0003	 2.21132793503000E-0001	
 3.91450000000000E+0003	 2.21075881903580E-0001	
 3.91650000000000E+0003	 2.21025470304159E-0001	
 3.91850000000000E+0003	 2.20973058704738E-0001	
 3.92050000000000E+0003	 2.20915647105318E-0001	
 3.92250000000000E+0003	 2.20860235505897E-0001	
 3.92450000000000E+0003	 2.20801323906476E-0001	
 3.92650000000000E+0003	 2.20744912307056E-0001	
 3.92850000000000E+0003	 2.20696000707635E-0001	
 3.93050000000000E+0003	 2.20651089108214E-0001	
 3.93250000000000E+0003	 2.20605677508794E-0001	
 3.93450000000000E+0003	 2.20563765909373E-0001	
 3.93650000000000E+0003	 2.20504354309952E-0001	
 3.93850000000000E+0003	 2.20431942710532E-0001	
 3.94050000000000E+0003	 2.20375031111111E-0001	
 3.94250000000000E+0003	 2.20317119511690E-0001	
 3.94450000000000E+0003	 2.20247207912270E-0001	
 3.94650000000000E+0003	 2.20183796312849E-0001	
 3.94850000000000E+0003	 2.20125384713429E-0001	
 3.95050000000000E+0003	 2.20069473114008E-0001	
 3.95250000000000E+0003	 2.20015061514587E-0001	
 3.95450000000000E+0003	 2.19962149915167E-0001	
 3.95650000000000E+0003	 2.19907738315746E-0001	
 3.95850000000000E+0003	 2.19852826716325E-0001	
 3.96050000000000E+0003	 2.19799415116905E-0001	
 3.96250000000000E+0003	 2.19746503517484E-0001	
 3.96450000000000E+0003	 2.19696091918063E-0001	
 3.96650000000000E+0003	 2.19648680318643E-0001	
 3.96850000000000E+0003	 2.19597268719222E-0001	
 3.97050000000000E+0003	 2.19540857119801E-0001	
 3.97250000000000E+0003	 2.19490445520381E-0001	
 3.97450000000000E+0003	 2.19448033920960E-0001	
 3.97650000000000E+0003	 2.19405122321539E-0001	
 3.97850000000000E+0003	 2.19357710722119E-0001	
 3.98050000000000E+0003	 2.19313299122698E-0001	
 3.98250000000000E+0003	 2.19290887523277E-0001	
 3.98450000000000E+0003	 2.19262475923857E-0001	
 3.98650000000000E+0003	 2.19201064324436E-0001	
 3.98850000000000E+0003	 2.19129652725016E-0001	
 3.99050000000000E+0003	 2.19074741125595E-0001	
 3.99250000000000E+0003	 2.19030829526174E-0001	
 3.99450000000000E+0003	 2.18990917926754E-0001	
 3.99650000000000E+0003	 2.18950506327333E-0001	
 3.99850000000000E+0003	 2.18901594727912E-0001	

>1	DATALINE
