*CPCWIN*

>1	DATALINE
DATALINE
1
Operator:

Description:

Remarks:





15.9.2008
10:57


_x	_y
	
	
UNIT	UNIT
 4.50500000000000E+0002	 1.24827446027623E-0001	
 4.52500000000000E+0002	 1.24738603050917E-0001	
 4.54500000000000E+0002	 1.25539260074212E-0001	
 4.56500000000000E+0002	 1.25604917097506E-0001	
 4.58500000000000E+0002	 1.25799074120800E-0001	
 4.60500000000000E+0002	 1.26336731144094E-0001	
 4.62500000000000E+0002	 1.26829388167388E-0001	
 4.64500000000000E+0002	 1.27291545190682E-0001	
 4.66500000000000E+0002	 1.27561702213977E-0001	
 4.68500000000000E+0002	 1.27834359237271E-0001	
 4.70500000000000E+0002	 1.28101516260565E-0001	
 4.72500000000000E+0002	 1.28469173283859E-0001	
 4.74500000000000E+0002	 1.28936830307153E-0001	
 4.76500000000000E+0002	 1.29320987330447E-0001	
 4.78500000000000E+0002	 1.29809644353741E-0001	
 4.80500000000000E+0002	 1.30377301377036E-0001	
 4.82500000000000E+0002	 1.30882458400330E-0001	
 4.84500000000000E+0002	 1.31365615423624E-0001	
 4.86500000000000E+0002	 1.31935772446918E-0001	
 4.88500000000000E+0002	 1.32506429470212E-0001	
 4.90500000000000E+0002	 1.33040086493506E-0001	
 4.92500000000000E+0002	 1.33622243516801E-0001	
 4.94500000000000E+0002	 1.34188400540095E-0001	
 4.96500000000000E+0002	 1.34747057563389E-0001	
 4.98500000000000E+0002	 1.35306214586683E-0001	
 5.00500000000000E+0002	 1.35711871609977E-0001	
 5.02500000000000E+0002	 1.36180028633271E-0001	
 5.04500000000000E+0002	 1.36817685656566E-0001	
 5.06500000000000E+0002	 1.37424342679860E-0001	
 5.08500000000000E+0002	 1.38009499703154E-0001	
 5.10500000000000E+0002	 1.38604156726448E-0001	
 5.12500000000000E+0002	 1.39160313749742E-0001	
 5.14500000000000E+0002	 1.39610970773036E-0001	
 5.16500000000000E+0002	 1.40135127796331E-0001	
 5.18500000000000E+0002	 1.40799284819625E-0001	
 5.20500000000000E+0002	 1.41472941842919E-0001	
 5.22500000000000E+0002	 1.42102598866213E-0001	
 5.24500000000000E+0002	 1.42686255889507E-0001	
 5.26500000000000E+0002	 1.43333412912801E-0001	
 5.28500000000000E+0002	 1.44026569936096E-0001	
 5.30500000000000E+0002	 1.44535226959390E-0001	
 5.32500000000000E+0002	 1.44788883982684E-0001	
 5.34500000000000E+0002	 1.44859541005978E-0001	
 5.36500000000000E+0002	 1.44789698029272E-0001	
 5.38500000000000E+0002	 1.44569355052566E-0001	
 5.40500000000000E+0002	 1.44329012075861E-0001	
 5.42500000000000E+0002	 1.44127669099155E-0001	
 5.44500000000000E+0002	 1.43991826122449E-0001	
 5.46500000000000E+0002	 1.43925483145743E-0001	
 5.48500000000000E+0002	 1.43899140169037E-0001	
 5.50500000000000E+0002	 1.43936297192331E-0001	
 5.52500000000000E+0002	 1.43940954215626E-0001	
 5.54500000000000E+0002	 1.43881611238920E-0001	
 5.56500000000000E+0002	 1.43710268262214E-0001	
 5.58500000000000E+0002	 1.43490425285508E-0001	
 5.60500000000000E+0002	 1.43163082308802E-0001	
 5.62500000000000E+0002	 1.42769739332096E-0001	
 5.64500000000000E+0002	 1.42322896355391E-0001	
 5.66500000000000E+0002	 1.41942553378685E-0001	
 5.68500000000000E+0002	 1.41635710401979E-0001	
 5.70500000000000E+0002	 1.41353367425273E-0001	
 5.72500000000000E+0002	 1.41128524448567E-0001	
 5.74500000000000E+0002	 1.40871181471861E-0001	
 5.76500000000000E+0002	 1.40737338495156E-0001	
 5.78500000000000E+0002	 1.40641495518450E-0001	
 5.80500000000000E+0002	 1.40572152541744E-0001	
 5.82500000000000E+0002	 1.40451309565038E-0001	
 5.84500000000000E+0002	 1.40350966588332E-0001	
 5.86500000000000E+0002	 1.40253123611626E-0001	
 5.88500000000000E+0002	 1.40179280634921E-0001	
 5.90500000000000E+0002	 1.40145937658215E-0001	
 5.92500000000000E+0002	 1.40156594681509E-0001	
 5.94500000000000E+0002	 1.40341251704803E-0001	
 5.96500000000000E+0002	 1.40504908728097E-0001	
 5.98500000000000E+0002	 1.40698565751391E-0001	
 6.00500000000000E+0002	 1.40894722774686E-0001	
 6.02500000000000E+0002	 1.41102379797980E-0001	
 6.04500000000000E+0002	 1.41152536821274E-0001	
 6.06500000000000E+0002	 1.41051693844568E-0001	
 6.08500000000000E+0002	 1.40825850867862E-0001	
 6.10500000000000E+0002	 1.40527007891156E-0001	
 6.12500000000000E+0002	 1.40210164914451E-0001	
 6.14500000000000E+0002	 1.39906821937745E-0001	
 6.16500000000000E+0002	 1.39674478961039E-0001	
 6.18500000000000E+0002	 1.39427635984333E-0001	
 6.20500000000000E+0002	 1.39181293007627E-0001	
 6.22500000000000E+0002	 1.38890950030921E-0001	
 6.24500000000000E+0002	 1.38614607054216E-0001	
 6.26500000000000E+0002	 1.38366764077510E-0001	
 6.28500000000000E+0002	 1.38128921100804E-0001	
 6.30500000000000E+0002	 1.37868578124098E-0001	
 6.32500000000000E+0002	 1.37538235147392E-0001	
 6.34500000000000E+0002	 1.37171392170686E-0001	
 6.36500000000000E+0002	 1.36796049193981E-0001	
 6.38500000000000E+0002	 1.36457206217275E-0001	
 6.40500000000000E+0002	 1.36092863240569E-0001	
 6.42500000000000E+0002	 1.35771020263863E-0001	
 6.44500000000000E+0002	 1.35461677287157E-0001	
 6.46500000000000E+0002	 1.35177834310451E-0001	
 6.48500000000000E+0002	 1.34902991333746E-0001	
 6.50500000000000E+0002	 1.34602148357040E-0001	
 6.52500000000000E+0002	 1.34288305380334E-0001	
 6.54500000000000E+0002	 1.33994962403628E-0001	
 6.56500000000000E+0002	 1.33757119426922E-0001	
 6.58500000000000E+0002	 1.33478276450216E-0001	
 6.60500000000000E+0002	 1.33199433473511E-0001	
 6.62500000000000E+0002	 1.32928590496805E-0001	
 6.64500000000000E+0002	 1.32571247520099E-0001	
 6.66500000000000E+0002	 1.32642404543393E-0001	
 6.68500000000000E+0002	 1.32757561566687E-0001	
 6.70500000000000E+0002	 1.31679718589981E-0001	
 6.72500000000000E+0002	 1.31272875613276E-0001	
 6.74500000000000E+0002	 1.30935532636570E-0001	
 6.76500000000000E+0002	 1.30560689659864E-0001	
 6.78500000000000E+0002	 1.30162346683158E-0001	
 6.80500000000000E+0002	 1.29747003706452E-0001	
 6.82500000000000E+0002	 1.29356660729746E-0001	
 6.84500000000000E+0002	 1.29019817753041E-0001	
 6.86500000000000E+0002	 1.28677974776335E-0001	
 6.88500000000000E+0002	 1.28382631799629E-0001	
 6.90500000000000E+0002	 1.28079788822923E-0001	
 6.92500000000000E+0002	 1.27815945846217E-0001	
 6.94500000000000E+0002	 1.27554102869511E-0001	
 6.96500000000000E+0002	 1.27356259892806E-0001	
 6.98500000000000E+0002	 1.27168416916100E-0001	
 7.00500000000000E+0002	 1.26943573939394E-0001	
 7.02500000000000E+0002	 1.26656230962688E-0001	
 7.04500000000000E+0002	 1.26306387985982E-0001	
 7.06500000000000E+0002	 1.25975545009276E-0001	
 7.08500000000000E+0002	 1.25639702032571E-0001	
 7.10500000000000E+0002	 1.25314359055865E-0001	
 7.12500000000000E+0002	 1.24946516079159E-0001	
 7.14500000000000E+0002	 1.24419673102453E-0001	
 7.16500000000000E+0002	 1.23817330125747E-0001	
 7.18500000000000E+0002	 1.23202987149041E-0001	
 7.20500000000000E+0002	 1.22518644172336E-0001	
 7.22500000000000E+0002	 1.21762301195630E-0001	
 7.24500000000000E+0002	 1.20974958218924E-0001	
 7.26500000000000E+0002	 1.20020115242218E-0001	
 7.28500000000000E+0002	 1.18975272265512E-0001	
 7.30500000000000E+0002	 1.17935429288806E-0001	
 7.32500000000000E+0002	 1.16955086312101E-0001	
 7.34500000000000E+0002	 1.16097243335395E-0001	
 7.36500000000000E+0002	 1.15340900358689E-0001	
 7.38500000000000E+0002	 1.14674557381983E-0001	
 7.40500000000000E+0002	 1.14062714405277E-0001	
 7.42500000000000E+0002	 1.13484871428571E-0001	
 7.44500000000000E+0002	 1.12953028451866E-0001	
 7.46500000000000E+0002	 1.12452685475160E-0001	
 7.48500000000000E+0002	 1.12003842498454E-0001	
 7.50500000000000E+0002	 1.11577999521748E-0001	
 7.52500000000000E+0002	 1.11274156545042E-0001	
 7.54500000000000E+0002	 1.11117813568336E-0001	
 7.56500000000000E+0002	 1.11134970591631E-0001	
 7.58500000000000E+0002	 1.11284627614925E-0001	
 7.60500000000000E+0002	 1.11589784638219E-0001	
 7.62500000000000E+0002	 1.11956441661513E-0001	
 7.64500000000000E+0002	 1.12112098684807E-0001	
 7.66500000000000E+0002	 1.11757755708101E-0001	
 7.68500000000000E+0002	 1.10825412731396E-0001	
 7.70500000000000E+0002	 1.09588069754690E-0001	
 7.72500000000000E+0002	 1.08416726777984E-0001	
 7.74500000000000E+0002	 1.07641383801278E-0001	
 7.76500000000000E+0002	 1.07423040824572E-0001	
 7.78500000000000E+0002	 1.07593697847866E-0001	
 7.80500000000000E+0002	 1.07555354871161E-0001	
 7.82500000000000E+0002	 1.07022511894455E-0001	
 7.84500000000000E+0002	 1.06270168917749E-0001	
 7.86500000000000E+0002	 1.05446325941043E-0001	
 7.88500000000000E+0002	 1.04583482964337E-0001	
 7.90500000000000E+0002	 1.03694139987631E-0001	
 7.92500000000000E+0002	 1.03018797010926E-0001	
 7.94500000000000E+0002	 1.02533454034220E-0001	
 7.96500000000000E+0002	 1.02071111057514E-0001	
 7.98500000000000E+0002	 1.01432268080808E-0001	
 8.00500000000000E+0002	 1.00724425104102E-0001	
 8.02500000000000E+0002	 1.00081582127396E-0001	
 8.04500000000000E+0002	 9.95767391506906E-0002	
 8.06500000000000E+0002	 9.92133961739847E-0002	
 8.08500000000000E+0002	 9.88835531972789E-0002	
 8.10500000000000E+0002	 9.85457102205731E-0002	
 8.12500000000000E+0002	 9.81038672438672E-0002	
 8.14500000000000E+0002	 9.75820242671614E-0002	
 8.16500000000000E+0002	 9.69851812904556E-0002	
 8.18500000000000E+0002	 9.63833383137497E-0002	
 8.20500000000000E+0002	 9.58884953370439E-0002	
 8.22500000000000E+0002	 9.55196523603381E-0002	
 8.24500000000000E+0002	 9.53048093836322E-0002	
 8.26500000000000E+0002	 9.51484664069264E-0002	
 8.28500000000000E+0002	 9.50766234302206E-0002	
 8.30500000000000E+0002	 9.50407804535147E-0002	
 8.32500000000000E+0002	 9.50994374768089E-0002	
 8.34500000000000E+0002	 9.51795945001031E-0002	
 8.36500000000000E+0002	 9.52807515233972E-0002	
 8.38500000000000E+0002	 9.53424085466914E-0002	
 8.40500000000000E+0002	 9.53390655699856E-0002	
 8.42500000000000E+0002	 9.52487225932797E-0002	
 8.44500000000000E+0002	 9.50678796165739E-0002	
 8.46500000000000E+0002	 9.48755366398681E-0002	
 8.48500000000000E+0002	 9.46956936631622E-0002	
 8.50500000000000E+0002	 9.45648506864564E-0002	
 8.52500000000000E+0002	 9.45385077097506E-0002	
 8.54500000000000E+0002	 9.45806647330447E-0002	
 8.56500000000000E+0002	 9.46488217563389E-0002	
 8.58500000000000E+0002	 9.46494787796331E-0002	
 8.60500000000000E+0002	 9.45401358029272E-0002	
 8.62500000000000E+0002	 9.42402928262214E-0002	
 8.64500000000000E+0002	 9.37644498495156E-0002	
 8.66500000000000E+0002	 9.31371068728097E-0002	
 8.68500000000000E+0002	 9.25787638961039E-0002	
 8.70500000000000E+0002	 9.23874209193981E-0002	
 8.72500000000000E+0002	 9.23110779426922E-0002	
 8.74500000000000E+0002	 9.17632349659864E-0002	
 8.76500000000000E+0002	 9.10033919892806E-0002	
 8.78500000000000E+0002	 9.04625490125747E-0002	
 8.80500000000000E+0002	 9.01547060358689E-0002	
 8.82500000000000E+0002	 8.99793630591631E-0002	
 8.84500000000000E+0002	 8.98595200824572E-0002	
 8.86500000000000E+0002	 8.97206771057514E-0002	
 8.88500000000000E+0002	 8.95758341290456E-0002	
 8.90500000000000E+0002	 8.93654911523397E-0002	
 8.92500000000000E+0002	 8.91216481756339E-0002	
 8.94500000000000E+0002	 8.88373051989281E-0002	
 8.96500000000000E+0002	 8.85469622222222E-0002	
 8.98500000000000E+0002	 8.82786192455164E-0002	
 9.00500000000000E+0002	 8.81512762688106E-0002	
 9.02500000000000E+0002	 8.82444332921047E-0002	
 9.04500000000000E+0002	 8.86555903153989E-0002	
 9.06500000000000E+0002	 8.94052473386931E-0002	
 9.08500000000000E+0002	 9.04349043619872E-0002	
 9.10500000000000E+0002	 9.15970613852814E-0002	
 9.12500000000000E+0002	 9.26627184085756E-0002	
 9.14500000000000E+0002	 9.34573754318697E-0002	
 9.16500000000000E+0002	 9.38840324551639E-0002	
 9.18500000000000E+0002	 9.39086894784580E-0002	
 9.20500000000000E+0002	 9.35408465017522E-0002	
 9.22500000000000E+0002	 9.28355035250464E-0002	
 9.24500000000000E+0002	 9.19581605483405E-0002	
 9.26500000000000E+0002	 9.09798175716347E-0002	
 9.28500000000000E+0002	 9.00344745949289E-0002	
 9.30500000000000E+0002	 8.91496316182230E-0002	
 9.32500000000000E+0002	 8.84272886415172E-0002	
 9.34500000000000E+0002	 8.78514456648114E-0002	
 9.36500000000000E+0002	 8.74286026881055E-0002	
 9.38500000000000E+0002	 8.71452597113997E-0002	
 9.40500000000000E+0002	 8.69704167346939E-0002	
 9.42500000000000E+0002	 8.69350737579880E-0002	
 9.44500000000000E+0002	 8.70457307812822E-0002	
 9.46500000000000E+0002	 8.73393878045764E-0002	
 9.48500000000000E+0002	 8.78060448278705E-0002	
 9.50500000000000E+0002	 8.84402018511647E-0002	
 9.52500000000000E+0002	 8.92473588744589E-0002	
 9.54500000000000E+0002	 9.01940158977530E-0002	
 9.56500000000000E+0002	 9.13321729210472E-0002	
 9.58500000000000E+0002	 9.25743299443414E-0002	
 9.60500000000000E+0002	 9.39274869676355E-0002	
 9.62500000000000E+0002	 9.52871439909297E-0002	
 9.64500000000000E+0002	 9.66363010142239E-0002	
 9.66500000000000E+0002	 9.79499580375180E-0002	
 9.68500000000000E+0002	 9.92461150608122E-0002	
 9.70500000000000E+0002	 1.00572272084106E-0001	
 9.72500000000000E+0002	 1.01978429107401E-0001	
 9.74500000000000E+0002	 1.03628586130695E-0001	
 9.76500000000000E+0002	 1.05661243153989E-0001	
 9.78500000000000E+0002	 1.08265900177283E-0001	
 9.80500000000000E+0002	 1.11507557200577E-0001	
 9.82500000000000E+0002	 1.15301214223871E-0001	
 9.84500000000000E+0002	 1.19397371247166E-0001	
 9.86500000000000E+0002	 1.23383028270460E-0001	
 9.88500000000000E+0002	 1.26968685293754E-0001	
 9.90500000000000E+0002	 1.29899842317048E-0001	
 9.92500000000000E+0002	 1.32265499340342E-0001	
 9.94500000000000E+0002	 1.34330656363636E-0001	
 9.96500000000000E+0002	 1.36488813386931E-0001	
 9.98500000000000E+0002	 1.39040970410225E-0001	
 1.00050000000000E+0003	 1.42131127433519E-0001	
 1.00250000000000E+0003	 1.45698284456813E-0001	
 1.00450000000000E+0003	 1.49536941480107E-0001	
 1.00650000000000E+0003	 1.53439598503401E-0001	
 1.00850000000000E+0003	 1.57249755526696E-0001	
 1.01050000000000E+0003	 1.60897912549990E-0001	
 1.01250000000000E+0003	 1.64374069573284E-0001	
 1.01450000000000E+0003	 1.67622226596578E-0001	
 1.01650000000000E+0003	 1.70509383619872E-0001	
 1.01850000000000E+0003	 1.72816540643166E-0001	
 1.02050000000000E+0003	 1.74424697666461E-0001	
 1.02250000000000E+0003	 1.75365354689755E-0001	
 1.02450000000000E+0003	 1.75829011713049E-0001	
 1.02650000000000E+0003	 1.76124168736343E-0001	
 1.02850000000000E+0003	 1.76464325759637E-0001	
 1.03050000000000E+0003	 1.76879482782931E-0001	
 1.03250000000000E+0003	 1.77336139806226E-0001	
 1.03450000000000E+0003	 1.77842796829520E-0001	
 1.03650000000000E+0003	 1.78295953852814E-0001	
 1.03850000000000E+0003	 1.78522610876108E-0001	
 1.04050000000000E+0003	 1.78644767899402E-0001	
 1.04250000000000E+0003	 1.78815924922696E-0001	
 1.04450000000000E+0003	 1.79249581945991E-0001	
 1.04650000000000E+0003	 1.80034738969285E-0001	
 1.04850000000000E+0003	 1.81173395992579E-0001	
 1.05050000000000E+0003	 1.82454053015873E-0001	
 1.05250000000000E+0003	 1.83516710039167E-0001	
 1.05450000000000E+0003	 1.84077367062461E-0001	
 1.05650000000000E+0003	 1.83983524085756E-0001	
 1.05850000000000E+0003	 1.83351181109050E-0001	
 1.06050000000000E+0003	 1.82370838132344E-0001	
 1.06250000000000E+0003	 1.81394995155638E-0001	
 1.06450000000000E+0003	 1.80816152178932E-0001	
 1.06650000000000E+0003	 1.80999809202226E-0001	
 1.06850000000000E+0003	 1.82126466225521E-0001	
 1.07050000000000E+0003	 1.84043123248815E-0001	
 1.07250000000000E+0003	 1.86484780272109E-0001	
 1.07450000000000E+0003	 1.88972937295403E-0001	
 1.07650000000000E+0003	 1.91141094318697E-0001	
 1.07850000000000E+0003	 1.92668251341991E-0001	
 1.08050000000000E+0003	 1.93415408365286E-0001	
 1.08250000000000E+0003	 1.93263065388580E-0001	
 1.08450000000000E+0003	 1.92115722411874E-0001	
 1.08650000000000E+0003	 1.89889879435168E-0001	
 1.08850000000000E+0003	 1.86643536458462E-0001	
 1.09050000000000E+0003	 1.82775693481756E-0001	
 1.09250000000000E+0003	 1.78921850505051E-0001	
 1.09450000000000E+0003	 1.75696507528345E-0001	
 1.09650000000000E+0003	 1.73260664551639E-0001	
 1.09850000000000E+0003	 1.71422821574933E-0001	
 1.10050000000000E+0003	 1.69829978598227E-0001	
 1.10250000000000E+0003	 1.68205135621521E-0001	
 1.10450000000000E+0003	 1.66466292644816E-0001	
 1.10650000000000E+0003	 1.64599949668110E-0001	
 1.10850000000000E+0003	 1.62753606691404E-0001	
 1.11050000000000E+0003	 1.60981763714698E-0001	
 1.11250000000000E+0003	 1.59352420737992E-0001	
 1.11450000000000E+0003	 1.57791077761286E-0001	
 1.11650000000000E+0003	 1.56268234784580E-0001	
 1.11850000000000E+0003	 1.54707891807875E-0001	
 1.12050000000000E+0003	 1.53078048831169E-0001	
 1.12250000000000E+0003	 1.51369705854463E-0001	
 1.12450000000000E+0003	 1.49578362877757E-0001	
 1.12650000000000E+0003	 1.47767019901051E-0001	
 1.12850000000000E+0003	 1.45948176924345E-0001	
 1.13050000000000E+0003	 1.44128333947640E-0001	
 1.13250000000000E+0003	 1.42375490970934E-0001	
 1.13450000000000E+0003	 1.40808147994228E-0001	
 1.13650000000000E+0003	 1.39523805017522E-0001	
 1.13850000000000E+0003	 1.38544962040816E-0001	
 1.14050000000000E+0003	 1.37982119064110E-0001	
 1.14250000000000E+0003	 1.37804776087405E-0001	
 1.14450000000000E+0003	 1.37951933110699E-0001	
 1.14650000000000E+0003	 1.38175590133993E-0001	
 1.14850000000000E+0003	 1.38210747157287E-0001	
 1.15050000000000E+0003	 1.37769904180581E-0001	
 1.15250000000000E+0003	 1.36683561203875E-0001	
 1.15450000000000E+0003	 1.35008218227170E-0001	
 1.15650000000000E+0003	 1.32927875250464E-0001	
 1.15850000000000E+0003	 1.30695532273758E-0001	
 1.16050000000000E+0003	 1.28408189297052E-0001	
 1.16250000000000E+0003	 1.26050346320346E-0001	
 1.16450000000000E+0003	 1.23587003343640E-0001	
 1.16650000000000E+0003	 1.20996660366935E-0001	
 1.16850000000000E+0003	 1.18424817390229E-0001	
 1.17050000000000E+0003	 1.15917474413523E-0001	
 1.17250000000000E+0003	 1.13577131436817E-0001	
 1.17450000000000E+0003	 1.11370788460111E-0001	
 1.17650000000000E+0003	 1.09357445483405E-0001	
 1.17850000000000E+0003	 1.07567102506700E-0001	
 1.18050000000000E+0003	 1.06074759529994E-0001	
 1.18250000000000E+0003	 1.04925916553288E-0001	
 1.18450000000000E+0003	 1.04145073576582E-0001	
 1.18650000000000E+0003	 1.03777230599876E-0001	
 1.18850000000000E+0003	 1.03815887623170E-0001	
 1.19050000000000E+0003	 1.04255044646465E-0001	
 1.19250000000000E+0003	 1.05057701669759E-0001	
 1.19450000000000E+0003	 1.06173358693053E-0001	
 1.19650000000000E+0003	 1.07540015716347E-0001	
 1.19850000000000E+0003	 1.09025672739641E-0001	
 1.20050000000000E+0003	 1.10564329762935E-0001	
 1.20250000000000E+0003	 1.12029986786230E-0001	
 1.20450000000000E+0003	 1.13385643809524E-0001	
 1.20650000000000E+0003	 1.14571300832818E-0001	
 1.20850000000000E+0003	 1.15615457856112E-0001	
 1.21050000000000E+0003	 1.16567614879406E-0001	
 1.21250000000000E+0003	 1.17553271902700E-0001	
 1.21450000000000E+0003	 1.18634428925995E-0001	
 1.21650000000000E+0003	 1.19797585949289E-0001	
 1.21850000000000E+0003	 1.20914742972583E-0001	
 1.22050000000000E+0003	 1.21924899995877E-0001	
 1.22250000000000E+0003	 1.22817557019171E-0001	
 1.22450000000000E+0003	 1.23639714042465E-0001	
 1.22650000000000E+0003	 1.24396871065760E-0001	
 1.22850000000000E+0003	 1.25077528089054E-0001	
 1.23050000000000E+0003	 1.25637185112348E-0001	
 1.23250000000000E+0003	 1.26031342135642E-0001	
 1.23450000000000E+0003	 1.26260499158936E-0001	
 1.23650000000000E+0003	 1.26318156182230E-0001	
 1.23850000000000E+0003	 1.26223813205525E-0001	
 1.24050000000000E+0003	 1.26001970228819E-0001	
 1.24250000000000E+0003	 1.25663627252113E-0001	
 1.24450000000000E+0003	 1.25247784275407E-0001	
 1.24650000000000E+0003	 1.24728941298701E-0001	
 1.24850000000000E+0003	 1.24154098321995E-0001	
 1.25050000000000E+0003	 1.23476255345290E-0001	
 1.25250000000000E+0003	 1.22749912368584E-0001	
 1.25450000000000E+0003	 1.21946069391878E-0001	
 1.25650000000000E+0003	 1.21121226415172E-0001	
 1.25850000000000E+0003	 1.20280883438466E-0001	
 1.26050000000000E+0003	 1.19446540461760E-0001	
 1.26250000000000E+0003	 1.18623697485055E-0001	
 1.26450000000000E+0003	 1.17807354508349E-0001	
 1.26650000000000E+0003	 1.17036011531643E-0001	
 1.26850000000000E+0003	 1.16302668554937E-0001	
 1.27050000000000E+0003	 1.15630325578231E-0001	
 1.27250000000000E+0003	 1.15028482601525E-0001	
 1.27450000000000E+0003	 1.14455139624820E-0001	
 1.27650000000000E+0003	 1.13945796648114E-0001	
 1.27850000000000E+0003	 1.13485953671408E-0001	
 1.28050000000000E+0003	 1.13085610694702E-0001	
 1.28250000000000E+0003	 1.12650767717996E-0001	
 1.28450000000000E+0003	 1.12193424741290E-0001	
 1.28650000000000E+0003	 1.11745581764585E-0001	
 1.28850000000000E+0003	 1.11389238787879E-0001	
 1.29050000000000E+0003	 1.11126395811173E-0001	
 1.29250000000000E+0003	 1.10958052834467E-0001	
 1.29450000000000E+0003	 1.10862209857761E-0001	
 1.29650000000000E+0003	 1.10868366881055E-0001	
 1.29850000000000E+0003	 1.10993523904350E-0001	
 1.30050000000000E+0003	 1.11233680927644E-0001	
 1.30250000000000E+0003	 1.11534837950938E-0001	
 1.30450000000000E+0003	 1.11878994974232E-0001	
 1.30650000000000E+0003	 1.12215651997526E-0001	
 1.30850000000000E+0003	 1.12562309020820E-0001	
 1.31050000000000E+0003	 1.12861466044115E-0001	
 1.31250000000000E+0003	 1.13115623067409E-0001	
 1.31450000000000E+0003	 1.13307280090703E-0001	
 1.31650000000000E+0003	 1.13342937113997E-0001	
 1.31850000000000E+0003	 1.13253594137291E-0001	
 1.32050000000000E+0003	 1.13101751160585E-0001	
 1.32250000000000E+0003	 1.12906408183880E-0001	
 1.32450000000000E+0003	 1.12779065207174E-0001	
 1.32650000000000E+0003	 1.12743222230468E-0001	
 1.32850000000000E+0003	 1.12857379253762E-0001	
 1.33050000000000E+0003	 1.13082536277056E-0001	
 1.33250000000000E+0003	 1.13423193300350E-0001	
 1.33450000000000E+0003	 1.13724850323645E-0001	
 1.33650000000000E+0003	 1.13964007346939E-0001	
 1.33850000000000E+0003	 1.14196164370233E-0001	
 1.34050000000000E+0003	 1.14496321393527E-0001	
 1.34250000000000E+0003	 1.14645978416821E-0001	
 1.34450000000000E+0003	 1.14613135440115E-0001	
 1.34650000000000E+0003	 1.14524292463410E-0001	
 1.34850000000000E+0003	 1.14460949486704E-0001	
 1.35050000000000E+0003	 1.14470606509998E-0001	
 1.35250000000000E+0003	 1.14559763533292E-0001	
 1.35450000000000E+0003	 1.14711920556586E-0001	
 1.35650000000000E+0003	 1.14938077579880E-0001	
 1.35850000000000E+0003	 1.15120734603175E-0001	
 1.36050000000000E+0003	 1.15292391626469E-0001	
 1.36250000000000E+0003	 1.15663048649763E-0001	
 1.36450000000000E+0003	 1.16394705673057E-0001	
 1.36650000000000E+0003	 1.17179862696351E-0001	
 1.36850000000000E+0003	 1.17961519719645E-0001	
 1.37050000000000E+0003	 1.18563176742940E-0001	
 1.37250000000000E+0003	 1.18943833766234E-0001	
 1.37450000000000E+0003	 1.19404990789528E-0001	
 1.37650000000000E+0003	 1.19849647812822E-0001	
 1.37850000000000E+0003	 1.20181804836116E-0001	
 1.38050000000000E+0003	 1.20569461859410E-0001	
 1.38250000000000E+0003	 1.21059118882705E-0001	
 1.38450000000000E+0003	 1.21388275905999E-0001	
 1.38650000000000E+0003	 1.21273432929293E-0001	
 1.38850000000000E+0003	 1.21228089952587E-0001	
 1.39050000000000E+0003	 1.21476246975881E-0001	
 1.39250000000000E+0003	 1.21875403999175E-0001	
 1.39450000000000E+0003	 1.22281061022470E-0001	
 1.39650000000000E+0003	 1.22901218045764E-0001	
 1.39850000000000E+0003	 1.23649875069058E-0001	
 1.40050000000000E+0003	 1.24409032092352E-0001	
 1.40250000000000E+0003	 1.24891189115646E-0001	
 1.40450000000000E+0003	 1.25186846138940E-0001	
 1.40650000000000E+0003	 1.25397503162235E-0001	
 1.40850000000000E+0003	 1.25426660185529E-0001	
 1.41050000000000E+0003	 1.25370317208823E-0001	
 1.41250000000000E+0003	 1.25242474232117E-0001	
 1.41450000000000E+0003	 1.24976631255411E-0001	
 1.41650000000000E+0003	 1.24455788278705E-0001	
 1.41850000000000E+0003	 1.23808945302000E-0001	
 1.42050000000000E+0003	 1.23106102325294E-0001	
 1.42250000000000E+0003	 1.22696259348588E-0001	
 1.42450000000000E+0003	 1.22346916371882E-0001	
 1.42650000000000E+0003	 1.21632073395176E-0001	
 1.42850000000000E+0003	 1.20833730418470E-0001	
 1.43050000000000E+0003	 1.20214887441765E-0001	
 1.43250000000000E+0003	 1.19819544465059E-0001	
 1.43450000000000E+0003	 1.19508201488353E-0001	
 1.43650000000000E+0003	 1.19186858511647E-0001	
 1.43850000000000E+0003	 1.19481515534941E-0001	
 1.44050000000000E+0003	 1.20252172558235E-0001	
 1.44250000000000E+0003	 1.20889329581530E-0001	
 1.44450000000000E+0003	 1.21183986604824E-0001	
 1.44650000000000E+0003	 1.21426643628118E-0001	
 1.44850000000000E+0003	 1.21712800651412E-0001	
 1.45050000000000E+0003	 1.22078957674706E-0001	
 1.45250000000000E+0003	 1.22327614698000E-0001	
 1.45450000000000E+0003	 1.22046271721295E-0001	
 1.45650000000000E+0003	 1.20890428744589E-0001	
 1.45850000000000E+0003	 1.19888085767883E-0001	
 1.46050000000000E+0003	 1.19355242791177E-0001	
 1.46250000000000E+0003	 1.18713399814471E-0001	
 1.46450000000000E+0003	 1.17366056837765E-0001	
 1.46650000000000E+0003	 1.15955713861060E-0001	
 1.46850000000000E+0003	 1.14669870884354E-0001	
 1.47050000000000E+0003	 1.12900527907648E-0001	
 1.47250000000000E+0003	 1.10348684930942E-0001	
 1.47450000000000E+0003	 1.07979341954236E-0001	
 1.47650000000000E+0003	 1.06495498977530E-0001	
 1.47850000000000E+0003	 1.05486156000825E-0001	
 1.48050000000000E+0003	 1.04636313024119E-0001	
 1.48250000000000E+0003	 1.03999970047413E-0001	
 1.48450000000000E+0003	 1.03470127070707E-0001	
 1.48650000000000E+0003	 1.03079284094001E-0001	
 1.48850000000000E+0003	 1.02869941117295E-0001	
 1.49050000000000E+0003	 1.03232598140590E-0001	
 1.49250000000000E+0003	 1.03957255163884E-0001	
 1.49450000000000E+0003	 1.04887912187178E-0001	
 1.49650000000000E+0003	 1.05635069210472E-0001	
 1.49850000000000E+0003	 1.06592226233766E-0001	
 1.50050000000000E+0003	 1.07821883257060E-0001	
 1.50250000000000E+0003	 1.09200040280355E-0001	
 1.50450000000000E+0003	 1.10012197303649E-0001	
 1.50650000000000E+0003	 1.10917854326943E-0001	
 1.50850000000000E+0003	 1.13220511350237E-0001	
 1.51050000000000E+0003	 1.16086668373531E-0001	
 1.51250000000000E+0003	 1.19004825396825E-0001	
 1.51450000000000E+0003	 1.21449982420120E-0001	
 1.51650000000000E+0003	 1.23755639443414E-0001	
 1.51850000000000E+0003	 1.25661296466708E-0001	
 1.52050000000000E+0003	 1.26970453490002E-0001	
 1.52250000000000E+0003	 1.28762110513296E-0001	
 1.52450000000000E+0003	 1.30788267536590E-0001	
 1.52650000000000E+0003	 1.33369424559885E-0001	
 1.52850000000000E+0003	 1.35953581583179E-0001	
 1.53050000000000E+0003	 1.38218738606473E-0001	
 1.53250000000000E+0003	 1.40314395629767E-0001	
 1.53450000000000E+0003	 1.42744552653061E-0001	
 1.53650000000000E+0003	 1.44751709676355E-0001	
 1.53850000000000E+0003	 1.46315866699650E-0001	
 1.54050000000000E+0003	 1.48109523722944E-0001	
 1.54250000000000E+0003	 1.49716680746238E-0001	
 1.54450000000000E+0003	 1.51605837769532E-0001	
 1.54650000000000E+0003	 1.52977494792826E-0001	
 1.54850000000000E+0003	 1.53375151816120E-0001	
 1.55050000000000E+0003	 1.53069308839415E-0001	
 1.55250000000000E+0003	 1.51931965862709E-0001	
 1.55450000000000E+0003	 1.49932622886003E-0001	
 1.55650000000000E+0003	 1.47449779909297E-0001	
 1.55850000000000E+0003	 1.44320436932591E-0001	
 1.56050000000000E+0003	 1.41241093955885E-0001	
 1.56250000000000E+0003	 1.39697250979180E-0001	
 1.56450000000000E+0003	 1.39113408002474E-0001	
 1.56650000000000E+0003	 1.37483065025768E-0001	
 1.56850000000000E+0003	 1.35742222049062E-0001	
 1.57050000000000E+0003	 1.34017379072356E-0001	
 1.57250000000000E+0003	 1.32624036095650E-0001	
 1.57450000000000E+0003	 1.31474693118945E-0001	
 1.57650000000000E+0003	 1.29763850142239E-0001	
 1.57850000000000E+0003	 1.28240507165533E-0001	
 1.58050000000000E+0003	 1.27788664188827E-0001	
 1.58250000000000E+0003	 1.27123321212121E-0001	
 1.58450000000000E+0003	 1.26520978235415E-0001	
 1.58650000000000E+0003	 1.26154635258710E-0001	
 1.58850000000000E+0003	 1.26177792282004E-0001	
 1.59050000000000E+0003	 1.26520949305298E-0001	
 1.59250000000000E+0003	 1.27274106328592E-0001	
 1.59450000000000E+0003	 1.28313763351886E-0001	
 1.59650000000000E+0003	 1.29693420375180E-0001	
 1.59850000000000E+0003	 1.31215077398475E-0001	
 1.60050000000000E+0003	 1.33066734421769E-0001	
 1.60250000000000E+0003	 1.35182391445063E-0001	
 1.60450000000000E+0003	 1.37641548468357E-0001	
 1.60650000000000E+0003	 1.40291205491651E-0001	
 1.60850000000000E+0003	 1.43423862514945E-0001	
 1.61050000000000E+0003	 1.46885019538240E-0001	
 1.61250000000000E+0003	 1.50656676561534E-0001	
 1.61450000000000E+0003	 1.54375333584828E-0001	
 1.61650000000000E+0003	 1.58644990608122E-0001	
 1.61850000000000E+0003	 1.63279147631416E-0001	
 1.62050000000000E+0003	 1.68053304654710E-0001	
 1.62250000000000E+0003	 1.73231461678005E-0001	
 1.62450000000000E+0003	 1.78721618701299E-0001	
 1.62650000000000E+0003	 1.83968275724593E-0001	
 1.62850000000000E+0003	 1.89563432747887E-0001	
 1.63050000000000E+0003	 1.94897589771181E-0001	
 1.63250000000000E+0003	 1.99453746794475E-0001	
 1.63450000000000E+0003	 2.03336903817770E-0001	
 1.63650000000000E+0003	 2.07376560841064E-0001	
 1.63850000000000E+0003	 2.10670217864358E-0001	
 1.64050000000000E+0003	 2.13443874887652E-0001	
 1.64250000000000E+0003	 2.15424531910946E-0001	
 1.64450000000000E+0003	 2.16593188934240E-0001	
 1.64650000000000E+0003	 2.17710845957535E-0001	
 1.64850000000000E+0003	 2.19280502980829E-0001	
 1.65050000000000E+0003	 2.20552660004123E-0001	
 1.65250000000000E+0003	 2.20795817027417E-0001	
 1.65450000000000E+0003	 2.20863474050711E-0001	
 1.65650000000000E+0003	 2.21071631074005E-0001	
 1.65850000000000E+0003	 2.21053788097300E-0001	
 1.66050000000000E+0003	 2.19118945120594E-0001	
 1.66250000000000E+0003	 2.16065102143888E-0001	
 1.66450000000000E+0003	 2.12396259167182E-0001	
 1.66650000000000E+0003	 2.08918416190476E-0001	
 1.66850000000000E+0003	 2.05151073213770E-0001	
 1.67050000000000E+0003	 2.01001730237065E-0001	
 1.67250000000000E+0003	 1.97357387260359E-0001	
 1.67450000000000E+0003	 1.93909544283653E-0001	
 1.67650000000000E+0003	 1.90012701306947E-0001	
 1.67850000000000E+0003	 1.86835858330241E-0001	
 1.68050000000000E+0003	 1.83953515353535E-0001	
 1.68250000000000E+0003	 1.80587172376830E-0001	
 1.68450000000000E+0003	 1.76482829400124E-0001	
 1.68650000000000E+0003	 1.72207986423418E-0001	
 1.68850000000000E+0003	 1.69684643446712E-0001	
 1.69050000000000E+0003	 1.66907300470006E-0001	
 1.69250000000000E+0003	 1.63461957493300E-0001	
 1.69450000000000E+0003	 1.59795114516595E-0001	
 1.69650000000000E+0003	 1.55374771539889E-0001	
 1.69850000000000E+0003	 1.51886428563183E-0001	
 1.70050000000000E+0003	 1.48493585586477E-0001	
 1.70250000000000E+0003	 1.45542742609771E-0001	
 1.70450000000000E+0003	 1.44388399633065E-0001	
 1.70650000000000E+0003	 1.42758056656360E-0001	
 1.70850000000000E+0003	 1.40686213679654E-0001	
 1.71050000000000E+0003	 1.38868870702948E-0001	
 1.71250000000000E+0003	 1.36777027726242E-0001	
 1.71450000000000E+0003	 1.34410684749536E-0001	
 1.71650000000000E+0003	 1.31644841772830E-0001	
 1.71850000000000E+0003	 1.28499498796125E-0001	
 1.72050000000000E+0003	 1.25876655819419E-0001	
 1.72250000000000E+0003	 1.24042312842713E-0001	
 1.72450000000000E+0003	 1.21856969866007E-0001	
 1.72650000000000E+0003	 1.19562626889301E-0001	
 1.72850000000000E+0003	 1.17394283912595E-0001	
 1.73050000000000E+0003	 1.15519440935890E-0001	
 1.73250000000000E+0003	 1.13643097959184E-0001	
 1.73450000000000E+0003	 1.11659754982478E-0001	
 1.73650000000000E+0003	 1.10242412005772E-0001	
 1.73850000000000E+0003	 1.09994069029066E-0001	
 1.74050000000000E+0003	 1.09207726052360E-0001	
 1.74250000000000E+0003	 1.08091383075655E-0001	
 1.74450000000000E+0003	 1.07226040098949E-0001	
 1.74650000000000E+0003	 1.06091197122243E-0001	
 1.74850000000000E+0003	 1.04723854145537E-0001	
 1.75050000000000E+0003	 1.03160011168831E-0001	
 1.75250000000000E+0003	 1.01561668192125E-0001	
 1.75450000000000E+0003	 1.00415325215420E-0001	
 1.75650000000000E+0003	 9.93144822387137E-0002	
 1.75850000000000E+0003	 9.80316392620078E-0002	
 1.76050000000000E+0003	 9.67917962853020E-0002	
 1.76250000000000E+0003	 9.56514533085962E-0002	
 1.76450000000000E+0003	 9.45026103318903E-0002	
 1.76650000000000E+0003	 9.35767673551845E-0002	
 1.76850000000000E+0003	 9.25414243784787E-0002	
 1.77050000000000E+0003	 9.16860814017728E-0002	
 1.77250000000000E+0003	 9.09142384250670E-0002	
 1.77450000000000E+0003	 8.99973954483612E-0002	
 1.77650000000000E+0003	 8.96490524716553E-0002	
 1.77850000000000E+0003	 8.93282094949495E-0002	
 1.78050000000000E+0003	 8.88128665182437E-0002	
 1.78250000000000E+0003	 8.82710235415378E-0002	
 1.78450000000000E+0003	 8.76576805648320E-0002	
 1.78650000000000E+0003	 8.72003375881262E-0002	
 1.78850000000000E+0003	 8.67049946114203E-0002	
 1.79050000000000E+0003	 8.61711516347145E-0002	
 1.79250000000000E+0003	 8.56228086580087E-0002	
 1.79450000000000E+0003	 8.50754656813028E-0002	
 1.79650000000000E+0003	 8.48866227045970E-0002	
 1.79850000000000E+0003	 8.46457797278912E-0002	
 1.80050000000000E+0003	 8.41514367511853E-0002	
 1.80250000000000E+0003	 8.38105937744795E-0002	
 1.80450000000000E+0003	 8.35322507977737E-0002	
 1.80650000000000E+0003	 8.32349078210678E-0002	
 1.80850000000000E+0003	 8.28700648443620E-0002	
 1.81050000000000E+0003	 8.25572218676562E-0002	
 1.81250000000000E+0003	 8.22603788909503E-0002	
 1.81450000000000E+0003	 8.19725359142445E-0002	
 1.81650000000000E+0003	 8.16541929375387E-0002	
 1.81850000000000E+0003	 8.14028499608328E-0002	
 1.82050000000000E+0003	 8.11190069841270E-0002	
 1.82250000000000E+0003	 8.07696640074212E-0002	
 1.82450000000000E+0003	 8.04063210307153E-0002	
 1.82650000000000E+0003	 8.01104780540095E-0002	
 1.82850000000000E+0003	 7.98446350773036E-0002	
 1.83050000000000E+0003	 7.97107921005978E-0002	
 1.83250000000000E+0003	 7.93989491238920E-0002	
 1.83450000000000E+0003	 7.92766061471861E-0002	
 1.83650000000000E+0003	 7.91682631704803E-0002	
 1.83850000000000E+0003	 7.89799201937745E-0002	
 1.84050000000000E+0003	 7.86825772170686E-0002	
 1.84250000000000E+0003	 7.82997342403628E-0002	
 1.84450000000000E+0003	 7.78963912636570E-0002	
 1.84650000000000E+0003	 7.76165482869511E-0002	
 1.84850000000000E+0003	 7.77837053102453E-0002	
 1.85050000000000E+0003	 7.78458623335395E-0002	
 1.85250000000000E+0003	 7.76975193568336E-0002	
 1.85450000000000E+0003	 7.75496763801278E-0002	
 1.85650000000000E+0003	 7.73798334034220E-0002	
 1.85850000000000E+0003	 7.72259904267161E-0002	
 1.86050000000000E+0003	 7.70731474500103E-0002	
 1.86250000000000E+0003	 7.69273044733045E-0002	
 1.86450000000000E+0003	 7.67414614965986E-0002	
 1.86650000000000E+0003	 7.65171185198928E-0002	
 1.86850000000000E+0003	 7.63622755431870E-0002	
 1.87050000000000E+0003	 7.61934325664811E-0002	
 1.87250000000000E+0003	 7.61020895897753E-0002	
 1.87450000000000E+0003	 7.61552466130695E-0002	
 1.87650000000000E+0003	 7.60919036363636E-0002	
 1.87850000000000E+0003	 7.59850606596578E-0002	
 1.88050000000000E+0003	 7.58812176829520E-0002	
 1.88250000000000E+0003	 7.57763747062461E-0002	
 1.88450000000000E+0003	 7.56815317295403E-0002	
 1.88650000000000E+0003	 7.55421887528345E-0002	
 1.88850000000000E+0003	 7.53968457761286E-0002	
 1.89050000000000E+0003	 7.53415027994228E-0002	
 1.89250000000000E+0003	 7.52171598227170E-0002	
 1.89450000000000E+0003	 7.51713168460111E-0002	
 1.89650000000000E+0003	 7.51554738693053E-0002	
 1.89850000000000E+0003	 7.50621308925995E-0002	
 1.90050000000000E+0003	 7.49932879158936E-0002	
 1.90250000000000E+0003	 7.49279449391878E-0002	
 1.90450000000000E+0003	 7.48651019624820E-0002	
 1.90650000000000E+0003	 7.47687589857761E-0002	
 1.90850000000000E+0003	 7.47044160090703E-0002	
 1.91050000000000E+0003	 7.46815730323645E-0002	
 1.91250000000000E+0003	 7.46207300556586E-0002	
 1.91450000000000E+0003	 7.45253870789528E-0002	
 1.91650000000000E+0003	 7.43880441022470E-0002	
 1.91850000000000E+0003	 7.42842011255411E-0002	
 1.92050000000000E+0003	 7.41818581488353E-0002	
 1.92250000000000E+0003	 7.42620151721295E-0002	
 1.92450000000000E+0003	 7.43616721954236E-0002	
 1.92650000000000E+0003	 7.42968292187178E-0002	
 1.92850000000000E+0003	 7.42774862420120E-0002	
 1.93050000000000E+0003	 7.42486432653061E-0002	
 1.93250000000000E+0003	 7.42228002886003E-0002	
 1.93450000000000E+0003	 7.41904573118945E-0002	
 1.93650000000000E+0003	 7.41566143351886E-0002	
 1.93850000000000E+0003	 7.41027713584828E-0002	
 1.94050000000000E+0003	 7.39959283817770E-0002	
 1.94250000000000E+0003	 7.39870854050711E-0002	
 1.94450000000000E+0003	 7.40122424283653E-0002	
 1.94650000000000E+0003	 7.40038994516595E-0002	
 1.94850000000000E+0003	 7.40185564749536E-0002	
 1.95050000000000E+0003	 7.40022134982478E-0002	
 1.95250000000000E+0003	 7.39908705215420E-0002	
 1.95450000000000E+0003	 7.39770275448361E-0002	
 1.95650000000000E+0003	 7.39766845681303E-0002	
 1.95850000000000E+0003	 7.39728415914244E-0002	
 1.96050000000000E+0003	 7.39699986147186E-0002	
 1.96250000000000E+0003	 7.39576556380128E-0002	
 1.96450000000000E+0003	 7.39078126613069E-0002	
 1.96650000000000E+0003	 7.39024696846011E-0002	
 1.96850000000000E+0003	 7.39446267078953E-0002	
 1.97050000000000E+0003	 7.39302837311894E-0002	
 1.97250000000000E+0003	 7.39314407544836E-0002	
 1.97450000000000E+0003	 7.39380977777778E-0002	
 1.97650000000000E+0003	 7.39427548010719E-0002	
 1.97850000000000E+0003	 7.39369118243661E-0002	
 1.98050000000000E+0003	 7.39325688476603E-0002	
 1.98250000000000E+0003	 7.39307258709544E-0002	
 1.98450000000000E+0003	 7.39238828942486E-0002	
 1.98650000000000E+0003	 7.39105399175428E-0002	
 1.98850000000000E+0003	 7.38946969408369E-0002	
 1.99050000000000E+0003	 7.38673539641311E-0002	
 1.99250000000000E+0003	 7.38980109874253E-0002	
 1.99450000000000E+0003	 7.39366680107194E-0002	
 1.99650000000000E+0003	 7.39403250340136E-0002	
 1.99850000000000E+0003	 7.39764820573078E-0002	
 2.00050000000000E+0003	 7.39956390806019E-0002	
 2.00250000000000E+0003	 7.40147961038961E-0002	
 2.00450000000000E+0003	 7.40339531271903E-0002	
 2.00650000000000E+0003	 7.40546101504844E-0002	
 2.00850000000000E+0003	 7.40837671737786E-0002	
 2.01050000000000E+0003	 7.41139241970728E-0002	
 2.01250000000000E+0003	 7.41410812203669E-0002	
 2.01450000000000E+0003	 7.41427382436611E-0002	
 2.01650000000000E+0003	 7.41708952669553E-0002	
 2.01850000000000E+0003	 7.42395522902494E-0002	
 2.02050000000000E+0003	 7.42772093135436E-0002	
 2.02250000000000E+0003	 7.43213663368378E-0002	
 2.02450000000000E+0003	 7.43670233601319E-0002	
 2.02650000000000E+0003	 7.44131803834261E-0002	
 2.02850000000000E+0003	 7.44498374067203E-0002	
 2.03050000000000E+0003	 7.44919944300144E-0002	
 2.03250000000000E+0003	 7.45261514533086E-0002	
 2.03450000000000E+0003	 7.45658084766028E-0002	
 2.03650000000000E+0003	 7.46024654998969E-0002	
 2.03850000000000E+0003	 7.46281225231911E-0002	
 2.04050000000000E+0003	 7.46572795464853E-0002	
 2.04250000000000E+0003	 7.47034365697794E-0002	
 2.04450000000000E+0003	 7.47345935930736E-0002	
 2.04650000000000E+0003	 7.47572506163678E-0002	
 2.04850000000000E+0003	 7.47869076396619E-0002	
 2.05050000000000E+0003	 7.48100646629561E-0002	
 2.05250000000000E+0003	 7.48322216862503E-0002	
 2.05450000000000E+0003	 7.48508787095444E-0002	
 2.05650000000000E+0003	 7.48650357328386E-0002	
 2.05850000000000E+0003	 7.48811927561328E-0002	
 2.06050000000000E+0003	 7.48953497794269E-0002	
 2.06250000000000E+0003	 7.48960068027211E-0002	
 2.06450000000000E+0003	 7.49016638260153E-0002	
 2.06650000000000E+0003	 7.49343208493094E-0002	
 2.06850000000000E+0003	 7.49409778726036E-0002	
 2.07050000000000E+0003	 7.49516348958978E-0002	
 2.07250000000000E+0003	 7.49647919191919E-0002	
 2.07450000000000E+0003	 7.49729489424861E-0002	
 2.07650000000000E+0003	 7.49796059657803E-0002	
 2.07850000000000E+0003	 7.49832629890744E-0002	
 2.08050000000000E+0003	 7.49929200123686E-0002	
 2.08250000000000E+0003	 7.49990770356627E-0002	
 2.08450000000000E+0003	 7.50047340589569E-0002	
 2.08650000000000E+0003	 7.50038910822511E-0002	
 2.08850000000000E+0003	 7.50025481055452E-0002	
 2.09050000000000E+0003	 7.50097051288394E-0002	
 2.09250000000000E+0003	 7.50093621521336E-0002	
 2.09450000000000E+0003	 7.50055191754277E-0002	
 2.09650000000000E+0003	 7.50066761987219E-0002	
 2.09850000000000E+0003	 7.50008332220161E-0002	
 2.10050000000000E+0003	 7.49969902453102E-0002	
 2.10250000000000E+0003	 7.49936472686044E-0002	
 2.10450000000000E+0003	 7.49883042918986E-0002	
 2.10650000000000E+0003	 7.49784613151927E-0002	
 2.10850000000000E+0003	 7.49696183384869E-0002	
 2.11050000000000E+0003	 7.49612753617811E-0002	
 2.11250000000000E+0003	 7.49459323850752E-0002	
 2.11450000000000E+0003	 7.49320894083694E-0002	
 2.11650000000000E+0003	 7.49182464316636E-0002	
 2.11850000000000E+0003	 7.49069034549577E-0002	
 2.12050000000000E+0003	 7.48900604782519E-0002	
 2.12250000000000E+0003	 7.48767175015461E-0002	
 2.12450000000000E+0003	 7.48598745248402E-0002	
 2.12650000000000E+0003	 7.48370315481344E-0002	
 2.12850000000000E+0003	 7.48186885714286E-0002	
 2.13050000000000E+0003	 7.47998455947227E-0002	
 2.13250000000000E+0003	 7.47830026180169E-0002	
 2.13450000000000E+0003	 7.47551596413111E-0002	
 2.13650000000000E+0003	 7.47303166646052E-0002	
 2.13850000000000E+0003	 7.47074736878994E-0002	
 2.14050000000000E+0003	 7.46831307111936E-0002	
 2.14250000000000E+0003	 7.46597877344877E-0002	
 2.14450000000000E+0003	 7.46299447577819E-0002	
 2.14650000000000E+0003	 7.46081017810761E-0002	
 2.14850000000000E+0003	 7.45792588043702E-0002	
 2.15050000000000E+0003	 7.45499158276644E-0002	
 2.15250000000000E+0003	 7.45135728509586E-0002	
 2.15450000000000E+0003	 7.44757298742527E-0002	
 2.15650000000000E+0003	 7.44368868975469E-0002	
 2.15850000000000E+0003	 7.43970439208411E-0002	
 2.16050000000000E+0003	 7.43582009441352E-0002	
 2.16250000000000E+0003	 7.43098579674294E-0002	
 2.16450000000000E+0003	 7.42650149907236E-0002	
 2.16650000000000E+0003	 7.42221720140177E-0002	
 2.16850000000000E+0003	 7.41853290373119E-0002	
 2.17050000000000E+0003	 7.41389860606061E-0002	
 2.17250000000000E+0003	 7.40761430839002E-0002	
 2.17450000000000E+0003	 7.40183001071944E-0002	
 2.17650000000000E+0003	 7.39634571304886E-0002	
 2.17850000000000E+0003	 7.39101141537827E-0002	
 2.18050000000000E+0003	 7.38547711770769E-0002	
 2.18250000000000E+0003	 7.38029282003711E-0002	
 2.18450000000000E+0003	 7.37505852236652E-0002	
 2.18650000000000E+0003	 7.36992422469594E-0002	
 2.18850000000000E+0003	 7.36513992702536E-0002	
 2.19050000000000E+0003	 7.36000562935477E-0002	
 2.19250000000000E+0003	 7.35467133168419E-0002	
 2.19450000000000E+0003	 7.34933703401361E-0002	
 2.19650000000000E+0003	 7.34440273634302E-0002	
 2.19850000000000E+0003	 7.33981843867244E-0002	
 2.20050000000000E+0003	 7.33493414100186E-0002	
 2.20250000000000E+0003	 7.32959984333127E-0002	
 2.20450000000000E+0003	 7.32446554566069E-0002	
 2.20650000000000E+0003	 7.31968124799011E-0002	
 2.20850000000000E+0003	 7.31469695031952E-0002	
 2.21050000000000E+0003	 7.30986265264894E-0002	
 2.21250000000000E+0003	 7.30552835497835E-0002	
 2.21450000000000E+0003	 7.30104405730777E-0002	
 2.21650000000000E+0003	 7.29620975963719E-0002	
 2.21850000000000E+0003	 7.29142546196660E-0002	
 2.22050000000000E+0003	 7.28669116429602E-0002	
 2.22250000000000E+0003	 7.28210686662544E-0002	
 2.22450000000000E+0003	 7.27752256895485E-0002	
 2.22650000000000E+0003	 7.27323827128427E-0002	
 2.22850000000000E+0003	 7.26880397361369E-0002	
 2.23050000000000E+0003	 7.26461967594310E-0002	
 2.23250000000000E+0003	 7.26043537827252E-0002	
 2.23450000000000E+0003	 7.25640108060194E-0002	
 2.23650000000000E+0003	 7.25241678293135E-0002	
 2.23850000000000E+0003	 7.24878248526077E-0002	
 2.24050000000000E+0003	 7.24509818759019E-0002	
 2.24250000000000E+0003	 7.24136388991960E-0002	
 2.24450000000000E+0003	 7.23802959224902E-0002	
 2.24650000000000E+0003	 7.23464529457844E-0002	
 2.24850000000000E+0003	 7.23121099690785E-0002	
 2.25050000000000E+0003	 7.22762669923727E-0002	
 2.25250000000000E+0003	 7.22429240156669E-0002	
 2.25450000000000E+0003	 7.22080810389610E-0002	
 2.25650000000000E+0003	 7.21742380622552E-0002	
 2.25850000000000E+0003	 7.21448950855494E-0002	
 2.26050000000000E+0003	 7.21145521088435E-0002	
 2.26250000000000E+0003	 7.20822091321377E-0002	
 2.26450000000000E+0003	 7.20488661554319E-0002	
 2.26650000000000E+0003	 7.20220231787260E-0002	
 2.26850000000000E+0003	 7.19906802020202E-0002	
 2.27050000000000E+0003	 7.19613372253144E-0002	
 2.27250000000000E+0003	 7.19304942486085E-0002	
 2.27450000000000E+0003	 7.18966512719027E-0002	
 2.27650000000000E+0003	 7.18578082951969E-0002	
 2.27850000000000E+0003	 7.18154653184910E-0002	
 2.28050000000000E+0003	 7.17731223417852E-0002	
 2.28250000000000E+0003	 7.17427793650794E-0002	
 2.28450000000000E+0003	 7.17389363883735E-0002	
 2.28650000000000E+0003	 7.17265934116677E-0002	
 2.28850000000000E+0003	 7.16972504349619E-0002	
 2.29050000000000E+0003	 7.16594074582560E-0002	
 2.29250000000000E+0003	 7.16220644815502E-0002	
 2.29450000000000E+0003	 7.15902215048444E-0002	
 2.29650000000000E+0003	 7.15858785281385E-0002	
 2.29850000000000E+0003	 7.16300355514327E-0002	
 2.30050000000000E+0003	 7.17211925747269E-0002	
 2.30250000000000E+0003	 7.18803495980210E-0002	
 2.30450000000000E+0003	 7.20495066213152E-0002	
 2.30650000000000E+0003	 7.21431636446094E-0002	
 2.30850000000000E+0003	 7.21968206679035E-0002	
 2.31050000000000E+0003	 7.22594776911977E-0002	
 2.31250000000000E+0003	 7.23016347144919E-0002	
 2.31450000000000E+0003	 7.22512917377860E-0002	
 2.31650000000000E+0003	 7.21924487610802E-0002	
 2.31850000000000E+0003	 7.22186057843744E-0002	
 2.32050000000000E+0003	 7.21447628076685E-0002	
 2.32250000000000E+0003	 7.19039198309627E-0002	
 2.32450000000000E+0003	 7.16650768542569E-0002	
 2.32650000000000E+0003	 7.16467338775510E-0002	
 2.32850000000000E+0003	 7.17753909008452E-0002	
 2.33050000000000E+0003	 7.17015479241394E-0002	
 2.33250000000000E+0003	 7.14877049474335E-0002	
 2.33450000000000E+0003	 7.14798619707277E-0002	
 2.33650000000000E+0003	 7.15295189940219E-0002	
 2.33850000000000E+0003	 7.14426760173160E-0002	
 2.34050000000000E+0003	 7.12623330406102E-0002	
 2.34250000000000E+0003	 7.10889900639043E-0002	
 2.34450000000000E+0003	 7.10941470871985E-0002	
 2.34650000000000E+0003	 7.09908041104927E-0002	
 2.34850000000000E+0003	 7.11594611337868E-0002	
 2.35050000000000E+0003	 7.17506181570810E-0002	
 2.35250000000000E+0003	 7.18822751803752E-0002	
 2.35450000000000E+0003	 7.16489322036693E-0002	
 2.35650000000000E+0003	 7.16110892269635E-0002	
 2.35850000000000E+0003	 7.17192462502577E-0002	
 2.36050000000000E+0003	 7.18139032735518E-0002	
 2.36250000000000E+0003	 7.18185602968460E-0002	
 2.36450000000000E+0003	 7.17247173201402E-0002	
 2.36650000000000E+0003	 7.16063743434343E-0002	
 2.36850000000000E+0003	 7.15580313667285E-0002	
 2.37050000000000E+0003	 7.17111883900227E-0002	
 2.37250000000000E+0003	 7.21888454133168E-0002	
 2.37450000000000E+0003	 7.27855024366110E-0002	
 2.37650000000000E+0003	 7.30281594599052E-0002	
 2.37850000000000E+0003	 7.26888164831993E-0002	
 2.38050000000000E+0003	 7.20699735064935E-0002	
 2.38250000000000E+0003	 7.16531305297877E-0002	
 2.38450000000000E+0003	 7.16042875530818E-0002	
 2.38650000000000E+0003	 7.17719445763760E-0002	
 2.38850000000000E+0003	 7.19616015996702E-0002	
 2.39050000000000E+0003	 7.20977586229643E-0002	
 2.39250000000000E+0003	 7.21834156462585E-0002	
 2.39450000000000E+0003	 7.22340726695527E-0002	
 2.39650000000000E+0003	 7.22787296928468E-0002	
 2.39850000000000E+0003	 7.23223867161410E-0002	
 2.40050000000000E+0003	 7.23725437394352E-0002	
 2.40250000000000E+0003	 7.24242007627293E-0002	
 2.40450000000000E+0003	 7.24743577860235E-0002	
 2.40650000000000E+0003	 7.25240148093177E-0002	
 2.40850000000000E+0003	 7.25776718326118E-0002	
 2.41050000000000E+0003	 7.26378288559060E-0002	
 2.41250000000000E+0003	 7.26984858792002E-0002	
 2.41450000000000E+0003	 7.27601429024943E-0002	
 2.41650000000000E+0003	 7.28242999257885E-0002	
 2.41850000000000E+0003	 7.28894569490827E-0002	
 2.42050000000000E+0003	 7.29586139723768E-0002	
 2.42250000000000E+0003	 7.30307709956710E-0002	
 2.42450000000000E+0003	 7.31099280189652E-0002	
 2.42650000000000E+0003	 7.31865850422593E-0002	
 2.42850000000000E+0003	 7.32612420655535E-0002	
 2.43050000000000E+0003	 7.33398990888477E-0002	
 2.43250000000000E+0003	 7.34190561121418E-0002	
 2.43450000000000E+0003	 7.34987131354360E-0002	
 2.43650000000000E+0003	 7.35773701587302E-0002	
 2.43850000000000E+0003	 7.36610271820243E-0002	
 2.44050000000000E+0003	 7.37436842053185E-0002	
 2.44250000000000E+0003	 7.38248412286127E-0002	
 2.44450000000000E+0003	 7.39064982519068E-0002	
 2.44650000000000E+0003	 7.39906552752010E-0002	
 2.44850000000000E+0003	 7.40788122984952E-0002	
 2.45050000000000E+0003	 7.41639693217893E-0002	
 2.45250000000000E+0003	 7.42501263450835E-0002	
 2.45450000000000E+0003	 7.43372833683777E-0002	
 2.45650000000000E+0003	 7.44284403916718E-0002	
 2.45850000000000E+0003	 7.45170974149660E-0002	
 2.46050000000000E+0003	 7.46067544382602E-0002	
 2.46250000000000E+0003	 7.47019114615543E-0002	
 2.46450000000000E+0003	 7.47990684848485E-0002	
 2.46650000000000E+0003	 7.48982255081427E-0002	
 2.46850000000000E+0003	 7.49963825314368E-0002	
 2.47050000000000E+0003	 7.50965395547310E-0002	
 2.47250000000000E+0003	 7.51951965780251E-0002	
 2.47450000000000E+0003	 7.52908536013193E-0002	
 2.47650000000000E+0003	 7.53875106246135E-0002	
 2.47850000000000E+0003	 7.54841676479076E-0002	
 2.48050000000000E+0003	 7.55803246712018E-0002	
 2.48250000000000E+0003	 7.56739816944960E-0002	
 2.48450000000000E+0003	 7.57706387177901E-0002	
 2.48650000000000E+0003	 7.58657957410843E-0002	
 2.48850000000000E+0003	 7.59579527643785E-0002	
 2.49050000000000E+0003	 7.60531097876726E-0002	
 2.49250000000000E+0003	 7.61472668109668E-0002	
 2.49450000000000E+0003	 7.62384238342610E-0002	
 2.49650000000000E+0003	 7.63255808575551E-0002	
 2.49850000000000E+0003	 7.64137378808493E-0002	
 2.50050000000000E+0003	 7.65013949041435E-0002	
 2.50250000000000E+0003	 7.65915519274376E-0002	
 2.50450000000000E+0003	 7.66842089507318E-0002	
 2.50650000000000E+0003	 7.67713659740260E-0002	
 2.50850000000000E+0003	 7.68560229973201E-0002	
 2.51050000000000E+0003	 7.69366800206143E-0002	
 2.51250000000000E+0003	 7.70178370439085E-0002	
 2.51450000000000E+0003	 7.70984940672026E-0002	
 2.51650000000000E+0003	 7.71796510904968E-0002	
 2.51850000000000E+0003	 7.72568081137910E-0002	
 2.52050000000000E+0003	 7.73369651370851E-0002	
 2.52250000000000E+0003	 7.74181221603793E-0002	
 2.52450000000000E+0003	 7.74917791836735E-0002	
 2.52650000000000E+0003	 7.75669362069676E-0002	
 2.52850000000000E+0003	 7.76425932302618E-0002	
 2.53050000000000E+0003	 7.77207502535560E-0002	
 2.53250000000000E+0003	 7.77994072768501E-0002	
 2.53450000000000E+0003	 7.78795643001443E-0002	
 2.53650000000000E+0003	 7.79577213234385E-0002	
 2.53850000000000E+0003	 7.80363783467326E-0002	
 2.54050000000000E+0003	 7.81170353700268E-0002	
 2.54250000000000E+0003	 7.81996923933210E-0002	
 2.54450000000000E+0003	 7.82858494166151E-0002	
 2.54650000000000E+0003	 7.83670064399093E-0002	
 2.54850000000000E+0003	 7.84506634632035E-0002	
 2.55050000000000E+0003	 7.85343204864976E-0002	
 2.55250000000000E+0003	 7.86204775097918E-0002	
 2.55450000000000E+0003	 7.87066345330860E-0002	
 2.55650000000000E+0003	 7.87937915563801E-0002	
 2.55850000000000E+0003	 7.88769485796743E-0002	
 2.56050000000000E+0003	 7.89596056029685E-0002	
 2.56250000000000E+0003	 7.90457626262626E-0002	
 2.56450000000000E+0003	 7.91314196495568E-0002	
 2.56650000000000E+0003	 7.92185766728510E-0002	
 2.56850000000000E+0003	 7.93037336961451E-0002	
 2.57050000000000E+0003	 7.93918907194393E-0002	
 2.57250000000000E+0003	 7.94865477427335E-0002	
 2.57450000000000E+0003	 7.95847047660276E-0002	
 2.57650000000000E+0003	 7.96788617893218E-0002	
 2.57850000000000E+0003	 7.97780188126160E-0002	
 2.58050000000000E+0003	 7.98861758359101E-0002	
 2.58250000000000E+0003	 7.99958328592043E-0002	
 2.58450000000000E+0003	 8.01059898824985E-0002	
 2.58650000000000E+0003	 8.02166469057926E-0002	
 2.58850000000000E+0003	 8.03363039290868E-0002	
 2.59050000000000E+0003	 8.04579609523810E-0002	
 2.59250000000000E+0003	 8.05806179756751E-0002	
 2.59450000000000E+0003	 8.07037749989693E-0002	
 2.59650000000000E+0003	 8.08309320222635E-0002	
 2.59850000000000E+0003	 8.09585890455576E-0002	
 2.60050000000000E+0003	 8.10897460688518E-0002	
 2.60250000000000E+0003	 8.12284030921459E-0002	
 2.60450000000000E+0003	 8.13615601154401E-0002	
 2.60650000000000E+0003	 8.14982171387343E-0002	
 2.60850000000000E+0003	 8.16358741620284E-0002	
 2.61050000000000E+0003	 8.17785311853226E-0002	
 2.61250000000000E+0003	 8.19231882086168E-0002	
 2.61450000000000E+0003	 8.20688452319109E-0002	
 2.61650000000000E+0003	 8.22190022552051E-0002	
 2.61850000000000E+0003	 8.23646592784993E-0002	
 2.62050000000000E+0003	 8.25113163017934E-0002	
 2.62250000000000E+0003	 8.26644733250876E-0002	
 2.62450000000000E+0003	 8.28241303483818E-0002	
 2.62650000000000E+0003	 8.29787873716759E-0002	
 2.62850000000000E+0003	 8.31289443949701E-0002	
 2.63050000000000E+0003	 8.32851014182643E-0002	
 2.63250000000000E+0003	 8.34452584415584E-0002	
 2.63450000000000E+0003	 8.36084154648526E-0002	
 2.63650000000000E+0003	 8.37700724881468E-0002	
 2.63850000000000E+0003	 8.39322295114409E-0002	
 2.64050000000000E+0003	 8.40883865347351E-0002	
 2.64250000000000E+0003	 8.42460435580293E-0002	
 2.64450000000000E+0003	 8.44102005813234E-0002	
 2.64650000000000E+0003	 8.45728576046176E-0002	
 2.64850000000000E+0003	 8.47340146279118E-0002	
 2.65050000000000E+0003	 8.48966716512059E-0002	
 2.65250000000000E+0003	 8.50593286745001E-0002	
 2.65450000000000E+0003	 8.52199856977943E-0002	
 2.65650000000000E+0003	 8.53806427210884E-0002	
 2.65850000000000E+0003	 8.55427997443826E-0002	
 2.66050000000000E+0003	 8.57019567676768E-0002	
 2.66250000000000E+0003	 8.58616137909709E-0002	
 2.66450000000000E+0003	 8.60217708142651E-0002	
 2.66650000000000E+0003	 8.61824278375593E-0002	
 2.66850000000000E+0003	 8.63415848608534E-0002	
 2.67050000000000E+0003	 8.65012418841476E-0002	
 2.67250000000000E+0003	 8.66663989074418E-0002	
 2.67450000000000E+0003	 8.68265559307359E-0002	
 2.67650000000000E+0003	 8.69877129540301E-0002	
 2.67850000000000E+0003	 8.71518699773243E-0002	
 2.68050000000000E+0003	 8.73110270006184E-0002	
 2.68250000000000E+0003	 8.74526840239126E-0002	
 2.68450000000000E+0003	 8.75878410472068E-0002	
 2.68650000000000E+0003	 8.77354980705009E-0002	
 2.68850000000000E+0003	 8.78846550937951E-0002	
 2.69050000000000E+0003	 8.80303121170893E-0002	
 2.69250000000000E+0003	 8.81759691403834E-0002	
 2.69450000000000E+0003	 8.83271261636776E-0002	
 2.69650000000000E+0003	 8.84767831869718E-0002	
 2.69850000000000E+0003	 8.86284402102659E-0002	
 2.70050000000000E+0003	 8.87810972335601E-0002	
 2.70250000000000E+0003	 8.89357542568543E-0002	
 2.70450000000000E+0003	 8.90979112801484E-0002	
 2.70650000000000E+0003	 8.92630683034426E-0002	
 2.70850000000000E+0003	 8.94337253267368E-0002	
 2.71050000000000E+0003	 8.96078823500309E-0002	
 2.71250000000000E+0003	 8.97850393733251E-0002	
 2.71450000000000E+0003	 8.99696963966193E-0002	
 2.71650000000000E+0003	 9.01573534199134E-0002	
 2.71850000000000E+0003	 9.03470104432076E-0002	
 2.72050000000000E+0003	 9.05456674665018E-0002	
 2.72250000000000E+0003	 9.07498244897959E-0002	
 2.72450000000000E+0003	 9.09509815130901E-0002	
 2.72650000000000E+0003	 9.11566385363843E-0002	
 2.72850000000000E+0003	 9.13372955596784E-0002	
 2.73050000000000E+0003	 9.15064525829726E-0002	
 2.73250000000000E+0003	 9.16911096062667E-0002	
 2.73450000000000E+0003	 9.18797666295609E-0002	
 2.73650000000000E+0003	 9.20699236528551E-0002	
 2.73850000000000E+0003	 9.22540806761492E-0002	
 2.74050000000000E+0003	 9.24282376994434E-0002	
 2.74250000000000E+0003	 9.26048947227376E-0002	
 2.74450000000000E+0003	 9.27830517460317E-0002	
 2.74650000000000E+0003	 9.29687087693259E-0002	
 2.74850000000000E+0003	 9.31593657926201E-0002	
 2.75050000000000E+0003	 9.33325228159142E-0002	
 2.75250000000000E+0003	 9.34946798392084E-0002	
 2.75450000000000E+0003	 9.36673368625026E-0002	
 2.75650000000000E+0003	 9.38524938857967E-0002	
 2.75850000000000E+0003	 9.40421509090909E-0002	
 2.76050000000000E+0003	 9.42343079323851E-0002	
 2.76250000000000E+0003	 9.44294649556792E-0002	
 2.76450000000000E+0003	 9.46296219789734E-0002	
 2.76650000000000E+0003	 9.48377790022676E-0002	
 2.76850000000000E+0003	 9.50494360255617E-0002	
 2.77050000000000E+0003	 9.52620930488559E-0002	
 2.77250000000000E+0003	 9.54827500721501E-0002	
 2.77450000000000E+0003	 9.57239070954442E-0002	
 2.77650000000000E+0003	 9.59435641187384E-0002	
 2.77850000000000E+0003	 9.61412211420326E-0002	
 2.78050000000000E+0003	 9.63653781653267E-0002	
 2.78250000000000E+0003	 9.66045351886209E-0002	
 2.78450000000000E+0003	 9.68486922119151E-0002	
 2.78650000000000E+0003	 9.71133492352092E-0002	
 2.78850000000000E+0003	 9.74085062585034E-0002	
 2.79050000000000E+0003	 9.76891632817976E-0002	
 2.79250000000000E+0003	 9.79358203050917E-0002	
 2.79450000000000E+0003	 9.81929773283859E-0002	
 2.79650000000000E+0003	 9.84816343516801E-0002	
 2.79850000000000E+0003	 9.87852913749742E-0002	
 2.80050000000000E+0003	 9.90639483982684E-0002	
 2.80250000000000E+0003	 9.93356054215626E-0002	
 2.80450000000000E+0003	 9.96322624448567E-0002	
 2.80650000000000E+0003	 9.99379194681509E-0002	
 2.80850000000000E+0003	 1.00257076491445E-0001	
 2.81050000000000E+0003	 1.00584233514739E-0001	
 2.81250000000000E+0003	 1.00891890538033E-0001	
 2.81450000000000E+0003	 1.01199047561328E-0001	
 2.81650000000000E+0003	 1.01526704584622E-0001	
 2.81850000000000E+0003	 1.01872861607916E-0001	
 2.82050000000000E+0003	 1.02227018631210E-0001	
 2.82250000000000E+0003	 1.02593675654504E-0001	
 2.82450000000000E+0003	 1.02972832677798E-0001	
 2.82650000000000E+0003	 1.03366989701093E-0001	
 2.82850000000000E+0003	 1.03783646724387E-0001	
 2.83050000000000E+0003	 1.04227803747681E-0001	
 2.83250000000000E+0003	 1.04708460770975E-0001	
 2.83450000000000E+0003	 1.05230617794269E-0001	
 2.83650000000000E+0003	 1.05813274817563E-0001	
 2.83850000000000E+0003	 1.06481431840858E-0001	
 2.84050000000000E+0003	 1.07189588864152E-0001	
 2.84250000000000E+0003	 1.07990245887446E-0001	
 2.84450000000000E+0003	 1.09032402910740E-0001	
 2.84650000000000E+0003	 1.10339559934034E-0001	
 2.84850000000000E+0003	 1.11805216957328E-0001	
 2.85050000000000E+0003	 1.13226873980623E-0001	
 2.85250000000000E+0003	 1.14416031003917E-0001	
 2.85450000000000E+0003	 1.15236688027211E-0001	
 2.85650000000000E+0003	 1.15705345050505E-0001	
 2.85850000000000E+0003	 1.15998502073799E-0001	
 2.86050000000000E+0003	 1.16274659097093E-0001	
 2.86250000000000E+0003	 1.16614316120388E-0001	
 2.86450000000000E+0003	 1.17115473143682E-0001	
 2.86650000000000E+0003	 1.17794130166976E-0001	
 2.86850000000000E+0003	 1.18585287190270E-0001	
 2.87050000000000E+0003	 1.19430444213564E-0001	
 2.87250000000000E+0003	 1.20276601236858E-0001	
 2.87450000000000E+0003	 1.20930758260153E-0001	
 2.87650000000000E+0003	 1.21306415283447E-0001	
 2.87850000000000E+0003	 1.21560572306741E-0001	
 2.88050000000000E+0003	 1.21783729330035E-0001	
 2.88250000000000E+0003	 1.21992886353329E-0001	
 2.88450000000000E+0003	 1.22231043376623E-0001	
 2.88650000000000E+0003	 1.22518200399918E-0001	
 2.88850000000000E+0003	 1.22857857423212E-0001	
 2.89050000000000E+0003	 1.23252014446506E-0001	
 2.89250000000000E+0003	 1.23695671469800E-0001	
 2.89450000000000E+0003	 1.24205828493094E-0001	
 2.89650000000000E+0003	 1.24752485516388E-0001	
 2.89850000000000E+0003	 1.25288642539683E-0001	
 2.90050000000000E+0003	 1.25863299562977E-0001	
 2.90250000000000E+0003	 1.26524456586271E-0001	
 2.90450000000000E+0003	 1.27274613609565E-0001	
 2.90650000000000E+0003	 1.28113770632859E-0001	
 2.90850000000000E+0003	 1.29094427656153E-0001	
 2.91050000000000E+0003	 1.30265584679448E-0001	
 2.91250000000000E+0003	 1.31654741702742E-0001	
 2.91450000000000E+0003	 1.33169898726036E-0001	
 2.91650000000000E+0003	 1.34699555749330E-0001	
 2.91850000000000E+0003	 1.36223712772624E-0001	
 2.92050000000000E+0003	 1.37646369795918E-0001	
 2.92250000000000E+0003	 1.38881026819213E-0001	
 2.92450000000000E+0003	 1.39867683842507E-0001	
 2.92650000000000E+0003	 1.40589340865801E-0001	
 2.92850000000000E+0003	 1.41103497889095E-0001	
 2.93050000000000E+0003	 1.41390154912389E-0001	
 2.93250000000000E+0003	 1.41388311935683E-0001	
 2.93450000000000E+0003	 1.41196968958978E-0001	
 2.93650000000000E+0003	 1.40842125982272E-0001	
 2.93850000000000E+0003	 1.40284783005566E-0001	
 2.94050000000000E+0003	 1.39558940028860E-0001	
 2.94250000000000E+0003	 1.38779597052154E-0001	
 2.94450000000000E+0003	 1.37999754075448E-0001	
 2.94650000000000E+0003	 1.37221911098743E-0001	
 2.94850000000000E+0003	 1.36517068122037E-0001	
 2.95050000000000E+0003	 1.36024725145331E-0001	
 2.95250000000000E+0003	 1.35814382168625E-0001	
 2.95450000000000E+0003	 1.35732039191919E-0001	
 2.95650000000000E+0003	 1.35696696215213E-0001	
 2.95850000000000E+0003	 1.35679853238508E-0001	
 2.96050000000000E+0003	 1.35581010261802E-0001	
 2.96250000000000E+0003	 1.35325167285096E-0001	
 2.96450000000000E+0003	 1.34873824308390E-0001	
 2.96650000000000E+0003	 1.34250481331684E-0001	
 2.96850000000000E+0003	 1.33517638354978E-0001	
 2.97050000000000E+0003	 1.32708795378273E-0001	
 2.97250000000000E+0003	 1.31877452401567E-0001	
 2.97450000000000E+0003	 1.31064609424861E-0001	
 2.97650000000000E+0003	 1.30255766448155E-0001	
 2.97850000000000E+0003	 1.29499923471449E-0001	
 2.98050000000000E+0003	 1.28794580494743E-0001	
 2.98250000000000E+0003	 1.28075237518038E-0001	
 2.98450000000000E+0003	 1.27368894541332E-0001	
 2.98650000000000E+0003	 1.26747051564626E-0001	
 2.98850000000000E+0003	 1.26210708587920E-0001	
 2.99050000000000E+0003	 1.25776365611214E-0001	
 2.99250000000000E+0003	 1.25429522634508E-0001	
 2.99450000000000E+0003	 1.25082179657803E-0001	
 2.99650000000000E+0003	 1.24819836681097E-0001	
 2.99850000000000E+0003	 1.24670993704391E-0001	
 3.00050000000000E+0003	 1.24564650727685E-0001	
 3.00250000000000E+0003	 1.24555307750979E-0001	
 3.00450000000000E+0003	 1.24651464774273E-0001	
 3.00650000000000E+0003	 1.24812621797568E-0001	
 3.00850000000000E+0003	 1.25072278820862E-0001	
 3.01050000000000E+0003	 1.25480935844156E-0001	
 3.01250000000000E+0003	 1.25951092867450E-0001	
 3.01450000000000E+0003	 1.26379749890744E-0001	
 3.01650000000000E+0003	 1.26758906914038E-0001	
 3.01850000000000E+0003	 1.27164063937333E-0001	
 3.02050000000000E+0003	 1.27623720960627E-0001	
 3.02250000000000E+0003	 1.28150377983921E-0001	
 3.02450000000000E+0003	 1.28763535007215E-0001	
 3.02650000000000E+0003	 1.29370692030509E-0001	
 3.02850000000000E+0003	 1.29976349053803E-0001	
 3.03050000000000E+0003	 1.30624506077098E-0001	
 3.03250000000000E+0003	 1.31309663100392E-0001	
 3.03450000000000E+0003	 1.32002320123686E-0001	
 3.03650000000000E+0003	 1.32621477146980E-0001	
 3.03850000000000E+0003	 1.33245134170274E-0001	
 3.04050000000000E+0003	 1.33996291193568E-0001	
 3.04250000000000E+0003	 1.34785448216863E-0001	
 3.04450000000000E+0003	 1.35490605240157E-0001	
 3.04650000000000E+0003	 1.36144262263451E-0001	
 3.04850000000000E+0003	 1.36830419286745E-0001	
 3.05050000000000E+0003	 1.37608076310039E-0001	
 3.05250000000000E+0003	 1.38374733333333E-0001	
 3.05450000000000E+0003	 1.39113390356627E-0001	
 3.05650000000000E+0003	 1.39874047379922E-0001	
 3.05850000000000E+0003	 1.40604204403216E-0001	
 3.06050000000000E+0003	 1.41306361426510E-0001	
 3.06250000000000E+0003	 1.42018518449804E-0001	
 3.06450000000000E+0003	 1.42744675473098E-0001	
 3.06650000000000E+0003	 1.43483332496392E-0001	
 3.06850000000000E+0003	 1.44152989519687E-0001	
 3.07050000000000E+0003	 1.44720146542981E-0001	
 3.07250000000000E+0003	 1.45291303566275E-0001	
 3.07450000000000E+0003	 1.45913960589569E-0001	
 3.07650000000000E+0003	 1.46610617612863E-0001	
 3.07850000000000E+0003	 1.47332274636157E-0001	
 3.08050000000000E+0003	 1.47960431659452E-0001	
 3.08250000000000E+0003	 1.48525088682746E-0001	
 3.08450000000000E+0003	 1.49107745706040E-0001	
 3.08650000000000E+0003	 1.49650902729334E-0001	
 3.08850000000000E+0003	 1.50194059752628E-0001	
 3.09050000000000E+0003	 1.50772716775922E-0001	
 3.09250000000000E+0003	 1.51298373799217E-0001	
 3.09450000000000E+0003	 1.51802030822511E-0001	
 3.09650000000000E+0003	 1.52354187845805E-0001	
 3.09850000000000E+0003	 1.52960344869099E-0001	
 3.10050000000000E+0003	 1.53576501892393E-0001	
 3.10250000000000E+0003	 1.54147158915687E-0001	
 3.10450000000000E+0003	 1.54715815938982E-0001	
 3.10650000000000E+0003	 1.55362972962276E-0001	
 3.10850000000000E+0003	 1.56074129985570E-0001	
 3.11050000000000E+0003	 1.56719287008864E-0001	
 3.11250000000000E+0003	 1.57346944032158E-0001	
 3.11450000000000E+0003	 1.58120101055452E-0001	
 3.11650000000000E+0003	 1.58965258078747E-0001	
 3.11850000000000E+0003	 1.59758415102041E-0001	
 3.12050000000000E+0003	 1.60489572125335E-0001	
 3.12250000000000E+0003	 1.61143229148629E-0001	
 3.12450000000000E+0003	 1.61823386171923E-0001	
 3.12650000000000E+0003	 1.62622043195217E-0001	
 3.12850000000000E+0003	 1.63508700218512E-0001	
 3.13050000000000E+0003	 1.64406357241806E-0001	
 3.13250000000000E+0003	 1.65269014265100E-0001	
 3.13450000000000E+0003	 1.66164171288394E-0001	
 3.13650000000000E+0003	 1.67148828311688E-0001	
 3.13850000000000E+0003	 1.68211485334982E-0001	
 3.14050000000000E+0003	 1.69217642358277E-0001	
 3.14250000000000E+0003	 1.70131799381571E-0001	
 3.14450000000000E+0003	 1.71093956404865E-0001	
 3.14650000000000E+0003	 1.72131613428159E-0001	
 3.14850000000000E+0003	 1.73223770451453E-0001	
 3.15050000000000E+0003	 1.74429927474747E-0001	
 3.15250000000000E+0003	 1.75673584498042E-0001	
 3.15450000000000E+0003	 1.76754741521336E-0001	
 3.15650000000000E+0003	 1.77779898544630E-0001	
 3.15850000000000E+0003	 1.78906555567924E-0001	
 3.16050000000000E+0003	 1.80092712591218E-0001	
 3.16250000000000E+0003	 1.81302869614512E-0001	
 3.16450000000000E+0003	 1.82535526637807E-0001	
 3.16650000000000E+0003	 1.83782183661101E-0001	
 3.16850000000000E+0003	 1.85039340684395E-0001	
 3.17050000000000E+0003	 1.86311497707689E-0001	
 3.17250000000000E+0003	 1.87594654730983E-0001	
 3.17450000000000E+0003	 1.88879311754277E-0001	
 3.17650000000000E+0003	 1.90164968777572E-0001	
 3.17850000000000E+0003	 1.91466625800866E-0001	
 3.18050000000000E+0003	 1.92774782824160E-0001	
 3.18250000000000E+0003	 1.94078939847454E-0001	
 3.18450000000000E+0003	 1.95378096870748E-0001	
 3.18650000000000E+0003	 1.96683253894042E-0001	
 3.18850000000000E+0003	 1.97995910917337E-0001	
 3.19050000000000E+0003	 1.99292067940631E-0001	
 3.19250000000000E+0003	 2.00568724963925E-0001	
 3.19450000000000E+0003	 2.01834881987219E-0001	
 3.19650000000000E+0003	 2.03100039010513E-0001	
 3.19850000000000E+0003	 2.04369196033807E-0001	
 3.20050000000000E+0003	 2.05640353057102E-0001	
 3.20250000000000E+0003	 2.06907010080396E-0001	
 3.20450000000000E+0003	 2.08161667103690E-0001	
 3.20650000000000E+0003	 2.09405324126984E-0001	
 3.20850000000000E+0003	 2.10630481150278E-0001	
 3.21050000000000E+0003	 2.11857138173572E-0001	
 3.21250000000000E+0003	 2.13096795196867E-0001	
 3.21450000000000E+0003	 2.14338452220161E-0001	
 3.21650000000000E+0003	 2.15572609243455E-0001	
 3.21850000000000E+0003	 2.16807766266749E-0001	
 3.22050000000000E+0003	 2.18035923290043E-0001	
 3.22250000000000E+0003	 2.19251580313337E-0001	
 3.22450000000000E+0003	 2.20475737336632E-0001	
 3.22650000000000E+0003	 2.21709394359926E-0001	
 3.22850000000000E+0003	 2.22959551383220E-0001	
 3.23050000000000E+0003	 2.24273208406514E-0001	
 3.23250000000000E+0003	 2.25677865429808E-0001	
 3.23450000000000E+0003	 2.26992522453102E-0001	
 3.23650000000000E+0003	 2.28149679476397E-0001	
 3.23850000000000E+0003	 2.29355336499691E-0001	
 3.24050000000000E+0003	 2.30650493522985E-0001	
 3.24250000000000E+0003	 2.31977150546279E-0001	
 3.24450000000000E+0003	 2.33359307569573E-0001	
 3.24650000000000E+0003	 2.34801964592867E-0001	
 3.24850000000000E+0003	 2.36170621616162E-0001	
 3.25050000000000E+0003	 2.37466778639456E-0001	
 3.25250000000000E+0003	 2.38820935662750E-0001	
 3.25450000000000E+0003	 2.40266592686044E-0001	
 3.25650000000000E+0003	 2.41716749709338E-0001	
 3.25850000000000E+0003	 2.43104406732632E-0001	
 3.26050000000000E+0003	 2.44492063755927E-0001	
 3.26250000000000E+0003	 2.45905720779221E-0001	
 3.26450000000000E+0003	 2.47327877802515E-0001	
 3.26650000000000E+0003	 2.48749534825809E-0001	
 3.26850000000000E+0003	 2.50224191849103E-0001	
 3.27050000000000E+0003	 2.51727848872397E-0001	
 3.27250000000000E+0003	 2.53074005895692E-0001	
 3.27450000000000E+0003	 2.54285662918986E-0001	
 3.27650000000000E+0003	 2.55500819942280E-0001	
 3.27850000000000E+0003	 2.56704476965574E-0001	
 3.28050000000000E+0003	 2.57891133988868E-0001	
 3.28250000000000E+0003	 2.59059291012162E-0001	
 3.28450000000000E+0003	 2.60194448035457E-0001	
 3.28650000000000E+0003	 2.61283105058751E-0001	
 3.28850000000000E+0003	 2.62346262082045E-0001	
 3.29050000000000E+0003	 2.63440419105339E-0001	
 3.29250000000000E+0003	 2.64512576128633E-0001	
 3.29450000000000E+0003	 2.65465733151927E-0001	
 3.29650000000000E+0003	 2.66338890175222E-0001	
 3.29850000000000E+0003	 2.67151047198516E-0001	
 3.30050000000000E+0003	 2.67958204221810E-0001	
 3.30250000000000E+0003	 2.68851861245104E-0001	
 3.30450000000000E+0003	 2.69849018268398E-0001	
 3.30650000000000E+0003	 2.70763675291692E-0001	
 3.30850000000000E+0003	 2.71475332314987E-0001	
 3.31050000000000E+0003	 2.72090489338281E-0001	
 3.31250000000000E+0003	 2.72730646361575E-0001	
 3.31450000000000E+0003	 2.73441303384869E-0001	
 3.31650000000000E+0003	 2.74188960408163E-0001	
 3.31850000000000E+0003	 2.74947117431457E-0001	
 3.32050000000000E+0003	 2.75719274454752E-0001	
 3.32250000000000E+0003	 2.76520931478046E-0001	
 3.32450000000000E+0003	 2.77376588501340E-0001	
 3.32650000000000E+0003	 2.78204245524634E-0001	
 3.32850000000000E+0003	 2.78948902547928E-0001	
 3.33050000000000E+0003	 2.79708559571222E-0001	
 3.33250000000000E+0003	 2.80523216594517E-0001	
 3.33450000000000E+0003	 2.81384373617811E-0001	
 3.33650000000000E+0003	 2.82333530641105E-0001	
 3.33850000000000E+0003	 2.83300187664399E-0001	
 3.34050000000000E+0003	 2.84151344687693E-0001	
 3.34250000000000E+0003	 2.84968501710987E-0001	
 3.34450000000000E+0003	 2.85799158734282E-0001	
 3.34650000000000E+0003	 2.86628315757576E-0001	
 3.34850000000000E+0003	 2.87570472780870E-0001	
 3.35050000000000E+0003	 2.88576129804164E-0001	
 3.35250000000000E+0003	 2.89410786827458E-0001	
 3.35450000000000E+0003	 2.90144943850752E-0001	
 3.35650000000000E+0003	 2.90975100874047E-0001	
 3.35850000000000E+0003	 2.91883257897341E-0001	
 3.36050000000000E+0003	 2.92799914920635E-0001	
 3.36250000000000E+0003	 2.93660071943929E-0001	
 3.36450000000000E+0003	 2.94562228967223E-0001	
 3.36650000000000E+0003	 2.95601885990517E-0001	
 3.36850000000000E+0003	 2.96631043013812E-0001	
 3.37050000000000E+0003	 2.97405700037106E-0001	
 3.37250000000000E+0003	 2.97977357060400E-0001	
 3.37450000000000E+0003	 2.98637014083694E-0001	
 3.37650000000000E+0003	 2.99426171106988E-0001	
 3.37850000000000E+0003	 3.00208828130282E-0001	
 3.38050000000000E+0003	 3.00946485153577E-0001	
 3.38250000000000E+0003	 3.01635142176871E-0001	
 3.38450000000000E+0003	 3.02314799200165E-0001	
 3.38650000000000E+0003	 3.03017956223459E-0001	
 3.38850000000000E+0003	 3.03809613246753E-0001	
 3.39050000000000E+0003	 3.04721770270047E-0001	
 3.39250000000000E+0003	 3.05469427293342E-0001	
 3.39450000000000E+0003	 3.05911584316636E-0001	
 3.39650000000000E+0003	 3.06401741339930E-0001	
 3.39850000000000E+0003	 3.07184398363224E-0001	
 3.40050000000000E+0003	 3.08007555386518E-0001	
 3.40250000000000E+0003	 3.08406712409812E-0001	
 3.40450000000000E+0003	 3.08565369433107E-0001	
 3.40650000000000E+0003	 3.08917526456401E-0001	
 3.40850000000000E+0003	 3.09432683479695E-0001	
 3.41050000000000E+0003	 3.09896840502989E-0001	
 3.41250000000000E+0003	 3.10283497526283E-0001	
 3.41450000000000E+0003	 3.10555154549577E-0001	
 3.41650000000000E+0003	 3.10753311572872E-0001	
 3.41850000000000E+0003	 3.11007468596166E-0001	
 3.42050000000000E+0003	 3.11280625619460E-0001	
 3.42250000000000E+0003	 3.11472782642754E-0001	
 3.42450000000000E+0003	 3.11630939666048E-0001	
 3.42650000000000E+0003	 3.11841096689342E-0001	
 3.42850000000000E+0003	 3.12090253712637E-0001	
 3.43050000000000E+0003	 3.12231910735931E-0001	
 3.43250000000000E+0003	 3.12294567759225E-0001	
 3.43450000000000E+0003	 3.12424724782519E-0001	
 3.43650000000000E+0003	 3.12429881805813E-0001	
 3.43850000000000E+0003	 3.12131038829107E-0001	
 3.44050000000000E+0003	 3.11738695852402E-0001	
 3.44250000000000E+0003	 3.11450352875696E-0001	
 3.44450000000000E+0003	 3.11233509898990E-0001	
 3.44650000000000E+0003	 3.11013166922284E-0001	
 3.44850000000000E+0003	 3.10719823945578E-0001	
 3.45050000000000E+0003	 3.10354980968872E-0001	
 3.45250000000000E+0003	 3.09981637992167E-0001	
 3.45450000000000E+0003	 3.09587795015461E-0001	
 3.45650000000000E+0003	 3.09179952038755E-0001	
 3.45850000000000E+0003	 3.08800609062049E-0001	
 3.46050000000000E+0003	 3.08365266085343E-0001	
 3.46250000000000E+0003	 3.07795423108637E-0001	
 3.46450000000000E+0003	 3.07308580131932E-0001	
 3.46650000000000E+0003	 3.07007237155226E-0001	
 3.46850000000000E+0003	 3.06568894178520E-0001	
 3.47050000000000E+0003	 3.05706051201814E-0001	
 3.47250000000000E+0003	 3.04680708225108E-0001	
 3.47450000000000E+0003	 3.03825365248402E-0001	
 3.47650000000000E+0003	 3.03130022271697E-0001	
 3.47850000000000E+0003	 3.02512679294991E-0001	
 3.48050000000000E+0003	 3.01750836318285E-0001	
 3.48250000000000E+0003	 3.00768993341579E-0001	
 3.48450000000000E+0003	 2.99865150364873E-0001	
 3.48650000000000E+0003	 2.99057807388167E-0001	
 3.48850000000000E+0003	 2.98156464411462E-0001	
 3.49050000000000E+0003	 2.97201121434756E-0001	
 3.49250000000000E+0003	 2.96300278458050E-0001	
 3.49450000000000E+0003	 2.95426935481344E-0001	
 3.49650000000000E+0003	 2.94535592504638E-0001	
 3.49850000000000E+0003	 2.93569249527932E-0001	
 3.50050000000000E+0003	 2.92605406551227E-0001	
 3.50250000000000E+0003	 2.91647563574521E-0001	
 3.50450000000000E+0003	 2.90486720597815E-0001	
 3.50650000000000E+0003	 2.89248877621109E-0001	
 3.50850000000000E+0003	 2.88126534644403E-0001	
 3.51050000000000E+0003	 2.87092191667697E-0001	
 3.51250000000000E+0003	 2.86138348690992E-0001	
 3.51450000000000E+0003	 2.85102005714286E-0001	
 3.51650000000000E+0003	 2.83908162737580E-0001	
 3.51850000000000E+0003	 2.82711319760874E-0001	
 3.52050000000000E+0003	 2.81601476784168E-0001	
 3.52250000000000E+0003	 2.80582633807462E-0001	
 3.52450000000000E+0003	 2.79435790830757E-0001	
 3.52650000000000E+0003	 2.78078947854051E-0001	
 3.52850000000000E+0003	 2.76764604877345E-0001	
 3.53050000000000E+0003	 2.75547261900639E-0001	
 3.53250000000000E+0003	 2.74370418923933E-0001	
 3.53450000000000E+0003	 2.73257075947227E-0001	
 3.53650000000000E+0003	 2.72093232970522E-0001	
 3.53850000000000E+0003	 2.70724889993816E-0001	
 3.54050000000000E+0003	 2.69388547017110E-0001	
 3.54250000000000E+0003	 2.68213704040404E-0001	
 3.54450000000000E+0003	 2.66977361063698E-0001	
 3.54650000000000E+0003	 2.65455518086992E-0001	
 3.54850000000000E+0003	 2.63816175110287E-0001	
 3.55050000000000E+0003	 2.62328332133581E-0001	
 3.55250000000000E+0003	 2.60862989156875E-0001	
 3.55450000000000E+0003	 2.59330646180169E-0001	
 3.55650000000000E+0003	 2.57828303203463E-0001	
 3.55850000000000E+0003	 2.56357460226757E-0001	
 3.56050000000000E+0003	 2.54866617250052E-0001	
 3.56250000000000E+0003	 2.53264274273346E-0001	
 3.56450000000000E+0003	 2.51540931296640E-0001	
 3.56650000000000E+0003	 2.49788588319934E-0001	
 3.56850000000000E+0003	 2.48163745343228E-0001	
 3.57050000000000E+0003	 2.46619402366522E-0001	
 3.57250000000000E+0003	 2.44964059389817E-0001	
 3.57450000000000E+0003	 2.43233716413111E-0001	
 3.57650000000000E+0003	 2.41509873436405E-0001	
 3.57850000000000E+0003	 2.39803030459699E-0001	
 3.58050000000000E+0003	 2.38136687482993E-0001	
 3.58250000000000E+0003	 2.36503344506287E-0001	
 3.58450000000000E+0003	 2.34858001529582E-0001	
 3.58650000000000E+0003	 2.32982158552876E-0001	
 3.58850000000000E+0003	 2.30847315576170E-0001	
 3.59050000000000E+0003	 2.28884972599464E-0001	
 3.59250000000000E+0003	 2.27095129622758E-0001	
 3.59450000000000E+0003	 2.25215286646052E-0001	
 3.59650000000000E+0003	 2.23328943669347E-0001	
 3.59850000000000E+0003	 2.21517100692641E-0001	
 3.60050000000000E+0003	 2.19652257715935E-0001	
 3.60250000000000E+0003	 2.17751914739229E-0001	
 3.60450000000000E+0003	 2.15857571762523E-0001	
 3.60650000000000E+0003	 2.13868228785817E-0001	
 3.60850000000000E+0003	 2.11807885809112E-0001	
 3.61050000000000E+0003	 2.09831542832406E-0001	
 3.61250000000000E+0003	 2.07954699855700E-0001	
 3.61450000000000E+0003	 2.06111856878994E-0001	
 3.61650000000000E+0003	 2.04325013902288E-0001	
 3.61850000000000E+0003	 2.02563670925582E-0001	
 3.62050000000000E+0003	 2.00649827948877E-0001	
 3.62250000000000E+0003	 1.98602984972171E-0001	
 3.62450000000000E+0003	 1.96633141995465E-0001	
 3.62650000000000E+0003	 1.94741799018759E-0001	
 3.62850000000000E+0003	 1.92724956042053E-0001	
 3.63050000000000E+0003	 1.90616613065347E-0001	
 3.63250000000000E+0003	 1.88727270088642E-0001	
 3.63450000000000E+0003	 1.86947427111936E-0001	
 3.63650000000000E+0003	 1.85125084135230E-0001	
 3.63850000000000E+0003	 1.83310241158524E-0001	
 3.64050000000000E+0003	 1.81496898181818E-0001	
 3.64250000000000E+0003	 1.79706055205112E-0001	
 3.64450000000000E+0003	 1.77951712228407E-0001	
 3.64650000000000E+0003	 1.76205369251701E-0001	
 3.64850000000000E+0003	 1.74429026274995E-0001	
 3.65050000000000E+0003	 1.72696183298289E-0001	
 3.65250000000000E+0003	 1.71006840321583E-0001	
 3.65450000000000E+0003	 1.69398497344877E-0001	
 3.65650000000000E+0003	 1.67856154368172E-0001	
 3.65850000000000E+0003	 1.66359311391466E-0001	
 3.66050000000000E+0003	 1.64890468414760E-0001	
 3.66250000000000E+0003	 1.63313125438054E-0001	
 3.66450000000000E+0003	 1.61776782461348E-0001	
 3.66650000000000E+0003	 1.60402939484642E-0001	
 3.66850000000000E+0003	 1.59065096507937E-0001	
 3.67050000000000E+0003	 1.57711753531231E-0001	
 3.67250000000000E+0003	 1.56442910554525E-0001	
 3.67450000000000E+0003	 1.55239067577819E-0001	
 3.67650000000000E+0003	 1.53973724601113E-0001	
 3.67850000000000E+0003	 1.52825881624407E-0001	
 3.68050000000000E+0003	 1.51827038647702E-0001	
 3.68250000000000E+0003	 1.50876195670996E-0001	
 3.68450000000000E+0003	 1.50033852694290E-0001	
 3.68650000000000E+0003	 1.49322509717584E-0001	
 3.68850000000000E+0003	 1.48623666740878E-0001	
 3.69050000000000E+0003	 1.47633323764172E-0001	
 3.69250000000000E+0003	 1.46598980787467E-0001	
 3.69450000000000E+0003	 1.45824137810761E-0001	
 3.69650000000000E+0003	 1.45165794834055E-0001	
 3.69850000000000E+0003	 1.44490951857349E-0001	
 3.70050000000000E+0003	 1.43824108880643E-0001	
 3.70250000000000E+0003	 1.43168765903937E-0001	
 3.70450000000000E+0003	 1.42532422927231E-0001	
 3.70650000000000E+0003	 1.41932079950526E-0001	
 3.70850000000000E+0003	 1.41310736973820E-0001	
 3.71050000000000E+0003	 1.40693893997114E-0001	
 3.71250000000000E+0003	 1.40224051020408E-0001	
 3.71450000000000E+0003	 1.39896208043702E-0001	
 3.71650000000000E+0003	 1.39584365066996E-0001	
 3.71850000000000E+0003	 1.39196022090291E-0001	
 3.72050000000000E+0003	 1.38730179113585E-0001	
 3.72250000000000E+0003	 1.38273836136879E-0001	
 3.72450000000000E+0003	 1.37833993160173E-0001	
 3.72650000000000E+0003	 1.37428150183467E-0001	
 3.72850000000000E+0003	 1.37078307206761E-0001	
 3.73050000000000E+0003	 1.36776464230056E-0001	
 3.73250000000000E+0003	 1.36485121253350E-0001	
 3.73450000000000E+0003	 1.36094278276644E-0001	
 3.73650000000000E+0003	 1.35702935299938E-0001	
 3.73850000000000E+0003	 1.35403092323232E-0001	
 3.74050000000000E+0003	 1.35159749346526E-0001	
 3.74250000000000E+0003	 1.34848906369821E-0001	
 3.74450000000000E+0003	 1.34556063393115E-0001	
 3.74650000000000E+0003	 1.34259220416409E-0001	
 3.74850000000000E+0003	 1.33940877439703E-0001	
 3.75050000000000E+0003	 1.33667034462997E-0001	
 3.75250000000000E+0003	 1.33479691486291E-0001	
 3.75450000000000E+0003	 1.33307848509586E-0001	
 3.75650000000000E+0003	 1.33096505532880E-0001	
 3.75850000000000E+0003	 1.32864162556174E-0001	
 3.76050000000000E+0003	 1.32666819579468E-0001	
 3.76250000000000E+0003	 1.32473976602762E-0001	
 3.76450000000000E+0003	 1.32277133626056E-0001	
 3.76650000000000E+0003	 1.32078790649351E-0001	
 3.76850000000000E+0003	 1.31852947672645E-0001	
 3.77050000000000E+0003	 1.31671104695939E-0001	
 3.77250000000000E+0003	 1.31502261719233E-0001	
 3.77450000000000E+0003	 1.31340918742527E-0001	
 3.77650000000000E+0003	 1.31167575765821E-0001	
 3.77850000000000E+0003	 1.31002232789116E-0001	
 3.78050000000000E+0003	 1.30835389812410E-0001	
 3.78250000000000E+0003	 1.30611546835704E-0001	
 3.78450000000000E+0003	 1.30419203858998E-0001	
 3.78650000000000E+0003	 1.30271860882292E-0001	
 3.78850000000000E+0003	 1.30153017905586E-0001	
 3.79050000000000E+0003	 1.30025174928881E-0001	
 3.79250000000000E+0003	 1.29856831952175E-0001	
 3.79450000000000E+0003	 1.29638488975469E-0001	
 3.79650000000000E+0003	 1.29472645998763E-0001	
 3.79850000000000E+0003	 1.29339303022057E-0001	
 3.80050000000000E+0003	 1.29164460045351E-0001	
 3.80250000000000E+0003	 1.29027117068646E-0001	
 3.80450000000000E+0003	 1.28879774091940E-0001	
 3.80650000000000E+0003	 1.28778931115234E-0001	
 3.80850000000000E+0003	 1.28692588138528E-0001	
 3.81050000000000E+0003	 1.28588745161822E-0001	
 3.81250000000000E+0003	 1.28493902185116E-0001	
 3.81450000000000E+0003	 1.28359059208411E-0001	
 3.81650000000000E+0003	 1.28253716231705E-0001	
 3.81850000000000E+0003	 1.28111873254999E-0001	
 3.82050000000000E+0003	 1.27981030278293E-0001	
 3.82250000000000E+0003	 1.27862187301587E-0001	
 3.82450000000000E+0003	 1.27706844324881E-0001	
 3.82650000000000E+0003	 1.27612001348176E-0001	
 3.82850000000000E+0003	 1.27530158371470E-0001	
 3.83050000000000E+0003	 1.27449815394764E-0001	
 3.83250000000000E+0003	 1.27416472418058E-0001	
 3.83450000000000E+0003	 1.27445629441352E-0001	
 3.83650000000000E+0003	 1.27424786464646E-0001	
 3.83850000000000E+0003	 1.27234943487941E-0001	
 3.84050000000000E+0003	 1.27012600511235E-0001	
 3.84250000000000E+0003	 1.26892257534529E-0001	
 3.84450000000000E+0003	 1.26868914557823E-0001	
 3.84650000000000E+0003	 1.26827571581117E-0001	
 3.84850000000000E+0003	 1.26775228604411E-0001	
 3.85050000000000E+0003	 1.26745885627706E-0001	
 3.85250000000000E+0003	 1.26757042651000E-0001	
 3.85450000000000E+0003	 1.26759199674294E-0001	
 3.85650000000000E+0003	 1.26582856697588E-0001	
 3.85850000000000E+0003	 1.26383513720882E-0001	
 3.86050000000000E+0003	 1.26291170744176E-0001	
 3.86250000000000E+0003	 1.26254827767471E-0001	
 3.86450000000000E+0003	 1.26234484790765E-0001	
 3.86650000000000E+0003	 1.26193641814059E-0001	
 3.86850000000000E+0003	 1.26111798837353E-0001	
 3.87050000000000E+0003	 1.26070455860647E-0001	
 3.87250000000000E+0003	 1.25977612883941E-0001	
 3.87450000000000E+0003	 1.25929269907236E-0001	
 3.87650000000000E+0003	 1.25881926930530E-0001	
 3.87850000000000E+0003	 1.25827083953824E-0001	
 3.88050000000000E+0003	 1.25812740977118E-0001	
 3.88250000000000E+0003	 1.25791898000412E-0001	
 3.88450000000000E+0003	 1.25782055023706E-0001	
 3.88650000000000E+0003	 1.25766212047001E-0001	
 3.88850000000000E+0003	 1.25687869070295E-0001	
 3.89050000000000E+0003	 1.25696526093589E-0001	
 3.89250000000000E+0003	 1.25686683116883E-0001	
 3.89450000000000E+0003	 1.25596340140177E-0001	
 3.89650000000000E+0003	 1.25541497163471E-0001	
 3.89850000000000E+0003	 1.25520654186766E-0001	
 3.90050000000000E+0003	 1.25442311210060E-0001	
 3.90250000000000E+0003	 1.25388468233354E-0001	
 3.90450000000000E+0003	 1.25456125256648E-0001	
 3.90650000000000E+0003	 1.25454782279942E-0001	
 3.90850000000000E+0003	 1.25386439303236E-0001	
 3.91050000000000E+0003	 1.25359596326531E-0001	
 3.91250000000000E+0003	 1.25352253349825E-0001	
 3.91450000000000E+0003	 1.25325910373119E-0001	
 3.91650000000000E+0003	 1.25293067396413E-0001	
 3.91850000000000E+0003	 1.25267724419707E-0001	
 3.92050000000000E+0003	 1.25270881443001E-0001	
 3.92250000000000E+0003	 1.25272538466296E-0001	
 3.92450000000000E+0003	 1.25284195489590E-0001	
 3.92650000000000E+0003	 1.25271852512884E-0001	
 3.92850000000000E+0003	 1.25231009536178E-0001	
 3.93050000000000E+0003	 1.25192666559472E-0001	
 3.93250000000000E+0003	 1.25169823582766E-0001	
 3.93450000000000E+0003	 1.25173980606061E-0001	
 3.93650000000000E+0003	 1.25177637629355E-0001	
 3.93850000000000E+0003	 1.25174794652649E-0001	
 3.94050000000000E+0003	 1.25160451675943E-0001	
 3.94250000000000E+0003	 1.25160108699237E-0001	
 3.94450000000000E+0003	 1.25123765722531E-0001	
 3.94650000000000E+0003	 1.25070422745826E-0001	
 3.94850000000000E+0003	 1.25057079769120E-0001	
 3.95050000000000E+0003	 1.25062236792414E-0001	
 3.95250000000000E+0003	 1.25053893815708E-0001	
 3.95450000000000E+0003	 1.25037050839002E-0001	
 3.95650000000000E+0003	 1.25028207862296E-0001	
 3.95850000000000E+0003	 1.25014364885591E-0001	
 3.96050000000000E+0003	 1.24989521908885E-0001	
 3.96250000000000E+0003	 1.24972678932179E-0001	
 3.96450000000000E+0003	 1.24967335955473E-0001	
 3.96650000000000E+0003	 1.24968492978767E-0001	
 3.96850000000000E+0003	 1.24963650002061E-0001	
 3.97050000000000E+0003	 1.24949307025356E-0001	
 3.97250000000000E+0003	 1.24930464048650E-0001	
 3.97450000000000E+0003	 1.24921121071944E-0001	
 3.97650000000000E+0003	 1.24917778095238E-0001	
 3.97850000000000E+0003	 1.24906935118532E-0001	
 3.98050000000000E+0003	 1.24893092141826E-0001	
 3.98250000000000E+0003	 1.24905749165121E-0001	
 3.98450000000000E+0003	 1.24920406188415E-0001	
 3.98650000000000E+0003	 1.24898063211709E-0001	
 3.98850000000000E+0003	 1.24863720235003E-0001	
 3.99050000000000E+0003	 1.24850877258297E-0001	
 3.99250000000000E+0003	 1.24842534281591E-0001	
 3.99450000000000E+0003	 1.24832691304886E-0001	
 3.99650000000000E+0003	 1.24823348328180E-0001	
 3.99850000000000E+0003	 1.24816505351474E-0001	

>1	DATALINE
