*CPCWIN*

>1	DATALINE
DATALINE
1
Operator:

Description:

Remarks:





15.9.2008
10:59


_x	_y
	
	
UNIT	UNIT
 4.50500000000000E+0002	 1.17608339220779E-0001	
 4.52500000000000E+0002	 1.17897676623377E-0001	
 4.54500000000000E+0002	 1.18058514025974E-0001	
 4.56500000000000E+0002	 1.18275351428571E-0001	
 4.58500000000000E+0002	 1.18297688831169E-0001	
 4.60500000000000E+0002	 1.18653026233766E-0001	
 4.62500000000000E+0002	 1.19083363636364E-0001	
 4.64500000000000E+0002	 1.19598201038961E-0001	
 4.66500000000000E+0002	 1.19889538441558E-0001	
 4.68500000000000E+0002	 1.20109875844156E-0001	
 4.70500000000000E+0002	 1.20290713246753E-0001	
 4.72500000000000E+0002	 1.20681050649351E-0001	
 4.74500000000000E+0002	 1.20986388051948E-0001	
 4.76500000000000E+0002	 1.21356725454545E-0001	
 4.78500000000000E+0002	 1.21752062857143E-0001	
 4.80500000000000E+0002	 1.22239900259740E-0001	
 4.82500000000000E+0002	 1.22664737662338E-0001	
 4.84500000000000E+0002	 1.23205575064935E-0001	
 4.86500000000000E+0002	 1.23664912467532E-0001	
 4.88500000000000E+0002	 1.24187249870130E-0001	
 4.90500000000000E+0002	 1.24696087272727E-0001	
 4.92500000000000E+0002	 1.25249424675325E-0001	
 4.94500000000000E+0002	 1.25793262077922E-0001	
 4.96500000000000E+0002	 1.26391599480519E-0001	
 4.98500000000000E+0002	 1.26882936883117E-0001	
 5.00500000000000E+0002	 1.27370274285714E-0001	
 5.02500000000000E+0002	 1.27758611688312E-0001	
 5.04500000000000E+0002	 1.28308949090909E-0001	
 5.06500000000000E+0002	 1.28843286493506E-0001	
 5.08500000000000E+0002	 1.29380123896104E-0001	
 5.10500000000000E+0002	 1.29898461298701E-0001	
 5.12500000000000E+0002	 1.30499298701299E-0001	
 5.14500000000000E+0002	 1.31102136103896E-0001	
 5.16500000000000E+0002	 1.31759973506494E-0001	
 5.18500000000000E+0002	 1.32437810909091E-0001	
 5.20500000000000E+0002	 1.33274148311688E-0001	
 5.22500000000000E+0002	 1.34133985714286E-0001	
 5.24500000000000E+0002	 1.34917823116883E-0001	
 5.26500000000000E+0002	 1.35695660519481E-0001	
 5.28500000000000E+0002	 1.36804497922078E-0001	
 5.30500000000000E+0002	 1.37853335324675E-0001	
 5.32500000000000E+0002	 1.38418672727273E-0001	
 5.34500000000000E+0002	 1.38502510129870E-0001	
 5.36500000000000E+0002	 1.38337847532468E-0001	
 5.38500000000000E+0002	 1.38021184935065E-0001	
 5.40500000000000E+0002	 1.37729022337662E-0001	
 5.42500000000000E+0002	 1.37486359740260E-0001	
 5.44500000000000E+0002	 1.37293697142857E-0001	
 5.46500000000000E+0002	 1.37146034545455E-0001	
 5.48500000000000E+0002	 1.37084871948052E-0001	
 5.50500000000000E+0002	 1.37089709350649E-0001	
 5.52500000000000E+0002	 1.37067546753247E-0001	
 5.54500000000000E+0002	 1.36939384155844E-0001	
 5.56500000000000E+0002	 1.36777221558442E-0001	
 5.58500000000000E+0002	 1.36574558961039E-0001	
 5.60500000000000E+0002	 1.36247896363636E-0001	
 5.62500000000000E+0002	 1.35852233766234E-0001	
 5.64500000000000E+0002	 1.35484071168831E-0001	
 5.66500000000000E+0002	 1.35143908571429E-0001	
 5.68500000000000E+0002	 1.34820745974026E-0001	
 5.70500000000000E+0002	 1.34541083376623E-0001	
 5.72500000000000E+0002	 1.34309920779221E-0001	
 5.74500000000000E+0002	 1.34150258181818E-0001	
 5.76500000000000E+0002	 1.34036095584416E-0001	
 5.78500000000000E+0002	 1.33988432987013E-0001	
 5.80500000000000E+0002	 1.33934270389610E-0001	
 5.82500000000000E+0002	 1.33823607792208E-0001	
 5.84500000000000E+0002	 1.33658945194805E-0001	
 5.86500000000000E+0002	 1.33485282597403E-0001	
 5.88500000000000E+0002	 1.33371120000000E-0001	
 5.90500000000000E+0002	 1.33335457402597E-0001	
 5.92500000000000E+0002	 1.33360794805195E-0001	
 5.94500000000000E+0002	 1.33485132207792E-0001	
 5.96500000000000E+0002	 1.33618469610390E-0001	
 5.98500000000000E+0002	 1.33757807012987E-0001	
 6.00500000000000E+0002	 1.33917144415584E-0001	
 6.02500000000000E+0002	 1.34065981818182E-0001	
 6.04500000000000E+0002	 1.34103319220779E-0001	
 6.06500000000000E+0002	 1.34019656623377E-0001	
 6.08500000000000E+0002	 1.33843494025974E-0001	
 6.10500000000000E+0002	 1.33604831428571E-0001	
 6.12500000000000E+0002	 1.33346168831169E-0001	
 6.14500000000000E+0002	 1.33106506233766E-0001	
 6.16500000000000E+0002	 1.32899343636364E-0001	
 6.18500000000000E+0002	 1.32687181038961E-0001	
 6.20500000000000E+0002	 1.32444518441558E-0001	
 6.22500000000000E+0002	 1.32148855844156E-0001	
 6.24500000000000E+0002	 1.31850193246753E-0001	
 6.26500000000000E+0002	 1.31570530649351E-0001	
 6.28500000000000E+0002	 1.31326368051948E-0001	
 6.30500000000000E+0002	 1.31033705454545E-0001	
 6.32500000000000E+0002	 1.30712542857143E-0001	
 6.34500000000000E+0002	 1.30317380259740E-0001	
 6.36500000000000E+0002	 1.29944217662338E-0001	
 6.38500000000000E+0002	 1.29588055064935E-0001	
 6.40500000000000E+0002	 1.29269392467532E-0001	
 6.42500000000000E+0002	 1.28940229870130E-0001	
 6.44500000000000E+0002	 1.28657567272727E-0001	
 6.46500000000000E+0002	 1.28362404675325E-0001	
 6.48500000000000E+0002	 1.28116742077922E-0001	
 6.50500000000000E+0002	 1.27830579480519E-0001	
 6.52500000000000E+0002	 1.27555916883117E-0001	
 6.54500000000000E+0002	 1.27235254285714E-0001	
 6.56500000000000E+0002	 1.26948591688312E-0001	
 6.58500000000000E+0002	 1.26638929090909E-0001	
 6.60500000000000E+0002	 1.26337266493506E-0001	
 6.62500000000000E+0002	 1.26056603896104E-0001	
 6.64500000000000E+0002	 1.26079441298701E-0001	
 6.66500000000000E+0002	 1.27261278701299E-0001	
 6.68500000000000E+0002	 1.28214616103896E-0001	
 6.70500000000000E+0002	 1.25759453506494E-0001	
 6.72500000000000E+0002	 1.24569790909091E-0001	
 6.74500000000000E+0002	 1.24011628311688E-0001	
 6.76500000000000E+0002	 1.23612465714286E-0001	
 6.78500000000000E+0002	 1.23194803116883E-0001	
 6.80500000000000E+0002	 1.22802640519481E-0001	
 6.82500000000000E+0002	 1.22376977922078E-0001	
 6.84500000000000E+0002	 1.21998815324675E-0001	
 6.86500000000000E+0002	 1.21619652727273E-0001	
 6.88500000000000E+0002	 1.21280990129870E-0001	
 6.90500000000000E+0002	 1.20916327532468E-0001	
 6.92500000000000E+0002	 1.20622664935065E-0001	
 6.94500000000000E+0002	 1.20335002337662E-0001	
 6.96500000000000E+0002	 1.20110839740260E-0001	
 6.98500000000000E+0002	 1.19859677142857E-0001	
 7.00500000000000E+0002	 1.19607014545455E-0001	
 7.02500000000000E+0002	 1.19286351948052E-0001	
 7.04500000000000E+0002	 1.18926689350649E-0001	
 7.06500000000000E+0002	 1.18505526753247E-0001	
 7.08500000000000E+0002	 1.18131364155844E-0001	
 7.10500000000000E+0002	 1.17757701558442E-0001	
 7.12500000000000E+0002	 1.17359538961039E-0001	
 7.14500000000000E+0002	 1.16795376363636E-0001	
 7.16500000000000E+0002	 1.16149213766234E-0001	
 7.18500000000000E+0002	 1.15485551168831E-0001	
 7.20500000000000E+0002	 1.14828888571429E-0001	
 7.22500000000000E+0002	 1.14116225974026E-0001	
 7.24500000000000E+0002	 1.13304063376623E-0001	
 7.26500000000000E+0002	 1.12341900779221E-0001	
 7.28500000000000E+0002	 1.11299238181818E-0001	
 7.30500000000000E+0002	 1.10222075584416E-0001	
 7.32500000000000E+0002	 1.09218412987013E-0001	
 7.34500000000000E+0002	 1.08347250389610E-0001	
 7.36500000000000E+0002	 1.07597087792208E-0001	
 7.38500000000000E+0002	 1.06918925194805E-0001	
 7.40500000000000E+0002	 1.06302762597403E-0001	
 7.42500000000000E+0002	 1.05729600000000E-0001	
 7.44500000000000E+0002	 1.05177937402597E-0001	
 7.46500000000000E+0002	 1.04650274805195E-0001	
 7.48500000000000E+0002	 1.04148612207792E-0001	
 7.50500000000000E+0002	 1.03691449610390E-0001	
 7.52500000000000E+0002	 1.03319287012987E-0001	
 7.54500000000000E+0002	 1.03051124415584E-0001	
 7.56500000000000E+0002	 1.02888461818182E-0001	
 7.58500000000000E+0002	 1.02852299220779E-0001	
 7.60500000000000E+0002	 1.02941136623377E-0001	
 7.62500000000000E+0002	 1.03118474025974E-0001	
 7.64500000000000E+0002	 1.03186811428571E-0001	
 7.66500000000000E+0002	 1.02876148831169E-0001	
 7.68500000000000E+0002	 1.02074986233766E-0001	
 7.70500000000000E+0002	 1.01014823636364E-0001	
 7.72500000000000E+0002	 1.00018661038961E-0001	
 7.74500000000000E+0002	 9.93474984415584E-0002	
 7.76500000000000E+0002	 9.91688358441558E-0002	
 7.78500000000000E+0002	 9.93186732467532E-0002	
 7.80500000000000E+0002	 9.92270106493506E-0002	
 7.82500000000000E+0002	 9.86138480519481E-0002	
 7.84500000000000E+0002	 9.77731854545455E-0002	
 7.86500000000000E+0002	 9.69540228571429E-0002	
 7.88500000000000E+0002	 9.61443602597403E-0002	
 7.90500000000000E+0002	 9.53511976623377E-0002	
 7.92500000000000E+0002	 9.47610350649351E-0002	
 7.94500000000000E+0002	 9.44058724675325E-0002	
 7.96500000000000E+0002	 9.40587098701299E-0002	
 7.98500000000000E+0002	 9.34870472727273E-0002	
 8.00500000000000E+0002	 9.28223846753247E-0002	
 8.02500000000000E+0002	 9.21952220779221E-0002	
 8.04500000000000E+0002	 9.17100594805195E-0002	
 8.06500000000000E+0002	 9.13163968831169E-0002	
 8.08500000000000E+0002	 9.10027342857143E-0002	
 8.10500000000000E+0002	 9.06395716883117E-0002	
 8.12500000000000E+0002	 9.01984090909091E-0002	
 8.14500000000000E+0002	 8.95932464935065E-0002	
 8.16500000000000E+0002	 8.89565838961039E-0002	
 8.18500000000000E+0002	 8.82924212987013E-0002	
 8.20500000000000E+0002	 8.77312587012987E-0002	
 8.22500000000000E+0002	 8.72515961038961E-0002	
 8.24500000000000E+0002	 8.69389335064935E-0002	
 8.26500000000000E+0002	 8.66622709090909E-0002	
 8.28500000000000E+0002	 8.64811083116883E-0002	
 8.30500000000000E+0002	 8.63104457142857E-0002	
 8.32500000000000E+0002	 8.62367831168831E-0002	
 8.34500000000000E+0002	 8.61776205194805E-0002	
 8.36500000000000E+0002	 8.61649579220779E-0002	
 8.38500000000000E+0002	 8.60932953246753E-0002	
 8.40500000000000E+0002	 8.60156327272727E-0002	
 8.42500000000000E+0002	 8.58529701298701E-0002	
 8.44500000000000E+0002	 8.56898075324675E-0002	
 8.46500000000000E+0002	 8.55086449350649E-0002	
 8.48500000000000E+0002	 8.53939823376623E-0002	
 8.50500000000000E+0002	 8.53223197402597E-0002	
 8.52500000000000E+0002	 8.53656571428571E-0002	
 8.54500000000000E+0002	 8.54599945454545E-0002	
 8.56500000000000E+0002	 8.56008319480519E-0002	
 8.58500000000000E+0002	 8.56546693506494E-0002	
 8.60500000000000E+0002	 8.55545067532468E-0002	
 8.62500000000000E+0002	 8.52388441558442E-0002	
 8.64500000000000E+0002	 8.47321815584416E-0002	
 8.66500000000000E+0002	 8.40735189610390E-0002	
 8.68500000000000E+0002	 8.35038563636364E-0002	
 8.70500000000000E+0002	 8.33441937662338E-0002	
 8.72500000000000E+0002	 8.33275311688312E-0002	
 8.74500000000000E+0002	 8.27338685714286E-0002	
 8.76500000000000E+0002	 8.18502059740260E-0002	
 8.78500000000000E+0002	 8.11930433766234E-0002	
 8.80500000000000E+0002	 8.07818807792208E-0002	
 8.82500000000000E+0002	 8.05142181818182E-0002	
 8.84500000000000E+0002	 8.02950555844156E-0002	
 8.86500000000000E+0002	 8.00653929870130E-0002	
 8.88500000000000E+0002	 7.98317303896104E-0002	
 8.90500000000000E+0002	 7.95855677922078E-0002	
 8.92500000000000E+0002	 7.93019051948052E-0002	
 8.94500000000000E+0002	 7.89687425974026E-0002	
 8.96500000000000E+0002	 7.86200800000000E-0002	
 8.98500000000000E+0002	 7.82904174025974E-0002	
 9.00500000000000E+0002	 7.80562548051948E-0002	
 9.02500000000000E+0002	 7.80065922077922E-0002	
 9.04500000000000E+0002	 7.82429296103896E-0002	
 9.06500000000000E+0002	 7.87887670129870E-0002	
 9.08500000000000E+0002	 7.96396044155844E-0002	
 9.10500000000000E+0002	 8.06429418181818E-0002	
 9.12500000000000E+0002	 8.16122792207792E-0002	
 9.14500000000000E+0002	 8.23176166233766E-0002	
 9.16500000000000E+0002	 8.26484540259740E-0002	
 9.18500000000000E+0002	 8.25307914285714E-0002	
 9.20500000000000E+0002	 8.20361288311688E-0002	
 9.22500000000000E+0002	 8.12474662337662E-0002	
 9.24500000000000E+0002	 8.03368036363636E-0002	
 9.26500000000000E+0002	 7.93691410389610E-0002	
 9.28500000000000E+0002	 7.84639784415584E-0002	
 9.30500000000000E+0002	 7.76338158441558E-0002	
 9.32500000000000E+0002	 7.69621532467532E-0002	
 9.34500000000000E+0002	 7.64254906493506E-0002	
 9.36500000000000E+0002	 7.60473280519481E-0002	
 9.38500000000000E+0002	 7.57476654545455E-0002	
 9.40500000000000E+0002	 7.55470028571429E-0002	
 9.42500000000000E+0002	 7.54268402597403E-0002	
 9.44500000000000E+0002	 7.54576776623377E-0002	
 9.46500000000000E+0002	 7.56335150649351E-0002	
 9.48500000000000E+0002	 7.59953524675325E-0002	
 9.50500000000000E+0002	 7.65076898701299E-0002	
 9.52500000000000E+0002	 7.71870272727273E-0002	
 9.54500000000000E+0002	 7.80258646753247E-0002	
 9.56500000000000E+0002	 7.90592020779221E-0002	
 9.58500000000000E+0002	 8.02430394805195E-0002	
 9.60500000000000E+0002	 8.15323768831169E-0002	
 9.62500000000000E+0002	 8.28587142857143E-0002	
 9.64500000000000E+0002	 8.41775516883117E-0002	
 9.66500000000000E+0002	 8.54313890909091E-0002	
 9.68500000000000E+0002	 8.66152264935065E-0002	
 9.70500000000000E+0002	 8.77765638961039E-0002	
 9.72500000000000E+0002	 8.90079012987013E-0002	
 9.74500000000000E+0002	 9.04322387012987E-0002	
 9.76500000000000E+0002	 9.22370761038961E-0002	
 9.78500000000000E+0002	 9.46329135064935E-0002	
 9.80500000000000E+0002	 9.77552509090909E-0002	
 9.82500000000000E+0002	 1.01557588311688E-0001	
 9.84500000000000E+0002	 1.05754425714286E-0001	
 9.86500000000000E+0002	 1.09923763116883E-0001	
 9.88500000000000E+0002	 1.13654600519481E-0001	
 9.90500000000000E+0002	 1.16698437922078E-0001	
 9.92500000000000E+0002	 1.19103275324675E-0001	
 9.94500000000000E+0002	 1.21171112727273E-0001	
 9.96500000000000E+0002	 1.23323950129870E-0001	
 9.98500000000000E+0002	 1.25913287532468E-0001	
 1.00050000000000E+0003	 1.29122624935065E-0001	
 1.00250000000000E+0003	 1.32886462337662E-0001	
 1.00450000000000E+0003	 1.37005799740260E-0001	
 1.00650000000000E+0003	 1.41227637142857E-0001	
 1.00850000000000E+0003	 1.45371974545455E-0001	
 1.01050000000000E+0003	 1.49322811948052E-0001	
 1.01250000000000E+0003	 1.53065149350649E-0001	
 1.01450000000000E+0003	 1.56539486753247E-0001	
 1.01650000000000E+0003	 1.59648324155844E-0001	
 1.01850000000000E+0003	 1.62186661558442E-0001	
 1.02050000000000E+0003	 1.64041498961039E-0001	
 1.02250000000000E+0003	 1.65230836363636E-0001	
 1.02450000000000E+0003	 1.66011173766234E-0001	
 1.02650000000000E+0003	 1.66659511168831E-0001	
 1.02850000000000E+0003	 1.67419348571429E-0001	
 1.03050000000000E+0003	 1.68324685974026E-0001	
 1.03250000000000E+0003	 1.69312023376623E-0001	
 1.03450000000000E+0003	 1.70228860779221E-0001	
 1.03650000000000E+0003	 1.70983198181818E-0001	
 1.03850000000000E+0003	 1.71505035584416E-0001	
 1.04050000000000E+0003	 1.71871872987013E-0001	
 1.04250000000000E+0003	 1.72239210389610E-0001	
 1.04450000000000E+0003	 1.72840547792208E-0001	
 1.04650000000000E+0003	 1.73803385194805E-0001	
 1.04850000000000E+0003	 1.75168722597403E-0001	
 1.05050000000000E+0003	 1.76747560000000E-0001	
 1.05250000000000E+0003	 1.78185397402597E-0001	
 1.05450000000000E+0003	 1.79102734805195E-0001	
 1.05650000000000E+0003	 1.79338072207792E-0001	
 1.05850000000000E+0003	 1.78918409610390E-0001	
 1.06050000000000E+0003	 1.78041247012987E-0001	
 1.06250000000000E+0003	 1.77048584415584E-0001	
 1.06450000000000E+0003	 1.76411421818182E-0001	
 1.06650000000000E+0003	 1.76538259220779E-0001	
 1.06850000000000E+0003	 1.77630596623377E-0001	
 1.07050000000000E+0003	 1.79590934025974E-0001	
 1.07250000000000E+0003	 1.82087271428571E-0001	
 1.07450000000000E+0003	 1.84685608831169E-0001	
 1.07650000000000E+0003	 1.86987446233766E-0001	
 1.07850000000000E+0003	 1.88685283636364E-0001	
 1.08050000000000E+0003	 1.89582121038961E-0001	
 1.08250000000000E+0003	 1.89549958441558E-0001	
 1.08450000000000E+0003	 1.88452795844156E-0001	
 1.08650000000000E+0003	 1.86169133246753E-0001	
 1.08850000000000E+0003	 1.82757470649351E-0001	
 1.09050000000000E+0003	 1.78594808051948E-0001	
 1.09250000000000E+0003	 1.74413645454545E-0001	
 1.09450000000000E+0003	 1.70852982857143E-0001	
 1.09650000000000E+0003	 1.68106820259740E-0001	
 1.09850000000000E+0003	 1.65969657662338E-0001	
 1.10050000000000E+0003	 1.64103995064935E-0001	
 1.10250000000000E+0003	 1.62234832467532E-0001	
 1.10450000000000E+0003	 1.60217169870130E-0001	
 1.10650000000000E+0003	 1.58082007272727E-0001	
 1.10850000000000E+0003	 1.56002344675325E-0001	
 1.11050000000000E+0003	 1.54124182077922E-0001	
 1.11250000000000E+0003	 1.52476019480519E-0001	
 1.11450000000000E+0003	 1.50988856883117E-0001	
 1.11650000000000E+0003	 1.49542194285714E-0001	
 1.11850000000000E+0003	 1.48026031688312E-0001	
 1.12050000000000E+0003	 1.46382869090909E-0001	
 1.12250000000000E+0003	 1.44573206493506E-0001	
 1.12450000000000E+0003	 1.42595043896104E-0001	
 1.12650000000000E+0003	 1.40483381298701E-0001	
 1.12850000000000E+0003	 1.38304718701299E-0001	
 1.13050000000000E+0003	 1.36076556103896E-0001	
 1.13250000000000E+0003	 1.33900393506494E-0001	
 1.13450000000000E+0003	 1.31893230909091E-0001	
 1.13650000000000E+0003	 1.30133068311688E-0001	
 1.13850000000000E+0003	 1.28678405714286E-0001	
 1.14050000000000E+0003	 1.27632743116883E-0001	
 1.14250000000000E+0003	 1.26995080519481E-0001	
 1.14450000000000E+0003	 1.26703417922078E-0001	
 1.14650000000000E+0003	 1.26556255324675E-0001	
 1.14850000000000E+0003	 1.26312092727273E-0001	
 1.15050000000000E+0003	 1.25689430129870E-0001	
 1.15250000000000E+0003	 1.24569267532468E-0001	
 1.15450000000000E+0003	 1.22955104935065E-0001	
 1.15650000000000E+0003	 1.21051442337662E-0001	
 1.15850000000000E+0003	 1.19007779740260E-0001	
 1.16050000000000E+0003	 1.16922117142857E-0001	
 1.16250000000000E+0003	 1.14704954545455E-0001	
 1.16450000000000E+0003	 1.12340791948052E-0001	
 1.16650000000000E+0003	 1.09815629350649E-0001	
 1.16850000000000E+0003	 1.07273466753247E-0001	
 1.17050000000000E+0003	 1.04801304155844E-0001	
 1.17250000000000E+0003	 1.02495141558442E-0001	
 1.17450000000000E+0003	 1.00303978961039E-0001	
 1.17650000000000E+0003	 9.82848163636364E-0002	
 1.17850000000000E+0003	 9.64576537662338E-0002	
 1.18050000000000E+0003	 9.49169911688312E-0002	
 1.18250000000000E+0003	 9.36873285714286E-0002	
 1.18450000000000E+0003	 9.28451659740260E-0002	
 1.18650000000000E+0003	 9.23665033766234E-0002	
 1.18850000000000E+0003	 9.22838407792208E-0002	
 1.19050000000000E+0003	 9.25601781818182E-0002	
 1.19250000000000E+0003	 9.31795155844156E-0002	
 1.19450000000000E+0003	 9.40958529870130E-0002	
 1.19650000000000E+0003	 9.52561903896104E-0002	
 1.19850000000000E+0003	 9.65620277922078E-0002	
 1.20050000000000E+0003	 9.79573651948052E-0002	
 1.20250000000000E+0003	 9.93802025974026E-0002	
 1.20450000000000E+0003	 1.00788540000000E-0001	
 1.20650000000000E+0003	 1.02180377402597E-0001	
 1.20850000000000E+0003	 1.03548714805195E-0001	
 1.21050000000000E+0003	 1.04903052207792E-0001	
 1.21250000000000E+0003	 1.06252889610390E-0001	
 1.21450000000000E+0003	 1.07601727012987E-0001	
 1.21650000000000E+0003	 1.09140064415584E-0001	
 1.21850000000000E+0003	 1.11320401818182E-0001	
 1.22050000000000E+0003	 1.13754739220779E-0001	
 1.22250000000000E+0003	 1.15412576623377E-0001	
 1.22450000000000E+0003	 1.16151914025974E-0001	
 1.22650000000000E+0003	 1.16604251428571E-0001	
 1.22850000000000E+0003	 1.17120588831169E-0001	
 1.23050000000000E+0003	 1.17726926233766E-0001	
 1.23250000000000E+0003	 1.18273763636364E-0001	
 1.23450000000000E+0003	 1.18665601038961E-0001	
 1.23650000000000E+0003	 1.18836438441558E-0001	
 1.23850000000000E+0003	 1.18757775844156E-0001	
 1.24050000000000E+0003	 1.18428613246753E-0001	
 1.24250000000000E+0003	 1.17893950649351E-0001	
 1.24450000000000E+0003	 1.17197788051948E-0001	
 1.24650000000000E+0003	 1.16394125454545E-0001	
 1.24850000000000E+0003	 1.15530462857143E-0001	
 1.25050000000000E+0003	 1.14607800259740E-0001	
 1.25250000000000E+0003	 1.13631137662338E-0001	
 1.25450000000000E+0003	 1.12606975064935E-0001	
 1.25650000000000E+0003	 1.11579312467532E-0001	
 1.25850000000000E+0003	 1.10545649870130E-0001	
 1.26050000000000E+0003	 1.09522487272727E-0001	
 1.26250000000000E+0003	 1.08491824675325E-0001	
 1.26450000000000E+0003	 1.07501662077922E-0001	
 1.26650000000000E+0003	 1.06542999480519E-0001	
 1.26850000000000E+0003	 1.05667336883117E-0001	
 1.27050000000000E+0003	 1.04864174285714E-0001	
 1.27250000000000E+0003	 1.04163011688312E-0001	
 1.27450000000000E+0003	 1.03540349090909E-0001	
 1.27650000000000E+0003	 1.03019686493506E-0001	
 1.27850000000000E+0003	 1.02568523896104E-0001	
 1.28050000000000E+0003	 1.02180361298701E-0001	
 1.28250000000000E+0003	 1.01774698701299E-0001	
 1.28450000000000E+0003	 1.01370036103896E-0001	
 1.28650000000000E+0003	 1.00962373506494E-0001	
 1.28850000000000E+0003	 1.00613210909091E-0001	
 1.29050000000000E+0003	 1.00355048311688E-0001	
 1.29250000000000E+0003	 1.00221385714286E-0001	
 1.29450000000000E+0003	 1.00159223116883E-0001	
 1.29650000000000E+0003	 1.00198060519481E-0001	
 1.29850000000000E+0003	 1.00351397922078E-0001	
 1.30050000000000E+0003	 1.00648735324675E-0001	
 1.30250000000000E+0003	 1.01021572727273E-0001	
 1.30450000000000E+0003	 1.01421910129870E-0001	
 1.30650000000000E+0003	 1.01806247532468E-0001	
 1.30850000000000E+0003	 1.02187584935065E-0001	
 1.31050000000000E+0003	 1.02537422337662E-0001	
 1.31250000000000E+0003	 1.02815259740260E-0001	
 1.31450000000000E+0003	 1.02963597142857E-0001	
 1.31650000000000E+0003	 1.02976934545455E-0001	
 1.31850000000000E+0003	 1.02840271948052E-0001	
 1.32050000000000E+0003	 1.02613609350649E-0001	
 1.32250000000000E+0003	 1.02351446753247E-0001	
 1.32450000000000E+0003	 1.02140284155844E-0001	
 1.32650000000000E+0003	 1.02027621558442E-0001	
 1.32850000000000E+0003	 1.02053958961039E-0001	
 1.33050000000000E+0003	 1.02215296363636E-0001	
 1.33250000000000E+0003	 1.02492633766234E-0001	
 1.33450000000000E+0003	 1.02784971168831E-0001	
 1.33650000000000E+0003	 1.03007808571429E-0001	
 1.33850000000000E+0003	 1.03079645974026E-0001	
 1.34050000000000E+0003	 1.03054483376623E-0001	
 1.34250000000000E+0003	 1.03057320779221E-0001	
 1.34450000000000E+0003	 1.03109158181818E-0001	
 1.34650000000000E+0003	 1.03153995584416E-0001	
 1.34850000000000E+0003	 1.03279832987013E-0001	
 1.35050000000000E+0003	 1.03644670389610E-0001	
 1.35250000000000E+0003	 1.04317507792208E-0001	
 1.35450000000000E+0003	 1.05235845194805E-0001	
 1.35650000000000E+0003	 1.06287682597403E-0001	
 1.35850000000000E+0003	 1.07240520000000E-0001	
 1.36050000000000E+0003	 1.07962357402597E-0001	
 1.36250000000000E+0003	 1.08525194805195E-0001	
 1.36450000000000E+0003	 1.09143532207792E-0001	
 1.36650000000000E+0003	 1.09989869610390E-0001	
 1.36850000000000E+0003	 1.10801207012987E-0001	
 1.37050000000000E+0003	 1.11100044415584E-0001	
 1.37250000000000E+0003	 1.10999381818182E-0001	
 1.37450000000000E+0003	 1.10828719220779E-0001	
 1.37650000000000E+0003	 1.10827556623377E-0001	
 1.37850000000000E+0003	 1.10895894025974E-0001	
 1.38050000000000E+0003	 1.11164231428571E-0001	
 1.38250000000000E+0003	 1.11697568831169E-0001	
 1.38450000000000E+0003	 1.12273906233766E-0001	
 1.38650000000000E+0003	 1.12512743636364E-0001	
 1.38850000000000E+0003	 1.12651581038961E-0001	
 1.39050000000000E+0003	 1.13216418441558E-0001	
 1.39250000000000E+0003	 1.14178255844156E-0001	
 1.39450000000000E+0003	 1.15077593246753E-0001	
 1.39650000000000E+0003	 1.15933930649351E-0001	
 1.39850000000000E+0003	 1.16792268051948E-0001	
 1.40050000000000E+0003	 1.17693105454545E-0001	
 1.40250000000000E+0003	 1.18324442857143E-0001	
 1.40450000000000E+0003	 1.18574780259740E-0001	
 1.40650000000000E+0003	 1.18606617662338E-0001	
 1.40850000000000E+0003	 1.18413955064935E-0001	
 1.41050000000000E+0003	 1.18147792467532E-0001	
 1.41250000000000E+0003	 1.17852629870130E-0001	
 1.41450000000000E+0003	 1.17492467272727E-0001	
 1.41650000000000E+0003	 1.17017804675325E-0001	
 1.41850000000000E+0003	 1.16016142077922E-0001	
 1.42050000000000E+0003	 1.14699979480519E-0001	
 1.42250000000000E+0003	 1.13847316883117E-0001	
 1.42450000000000E+0003	 1.13440154285714E-0001	
 1.42650000000000E+0003	 1.12834991688312E-0001	
 1.42850000000000E+0003	 1.11858829090909E-0001	
 1.43050000000000E+0003	 1.11043166493506E-0001	
 1.43250000000000E+0003	 1.10546503896104E-0001	
 1.43450000000000E+0003	 1.10233341298701E-0001	
 1.43650000000000E+0003	 1.09824678701299E-0001	
 1.43850000000000E+0003	 1.09654516103896E-0001	
 1.44050000000000E+0003	 1.10132353506494E-0001	
 1.44250000000000E+0003	 1.11059690909091E-0001	
 1.44450000000000E+0003	 1.11667028311688E-0001	
 1.44650000000000E+0003	 1.11892365714286E-0001	
 1.44850000000000E+0003	 1.12111203116883E-0001	
 1.45050000000000E+0003	 1.12427540519481E-0001	
 1.45250000000000E+0003	 1.12700877922078E-0001	
 1.45450000000000E+0003	 1.12664715324675E-0001	
 1.45650000000000E+0003	 1.11301052727273E-0001	
 1.45850000000000E+0003	 1.09206390129870E-0001	
 1.46050000000000E+0003	 1.08410227532468E-0001	
 1.46250000000000E+0003	 1.08211064935065E-0001	
 1.46450000000000E+0003	 1.07220902337662E-0001	
 1.46650000000000E+0003	 1.05765239740260E-0001	
 1.46850000000000E+0003	 1.04416077142857E-0001	
 1.47050000000000E+0003	 1.02814414545455E-0001	
 1.47250000000000E+0003	 1.00180751948052E-0001	
 1.47450000000000E+0003	 9.74330893506494E-0002	
 1.47650000000000E+0003	 9.56229267532468E-0002	
 1.47850000000000E+0003	 9.48502641558442E-0002	
 1.48050000000000E+0003	 9.43056015584416E-0002	
 1.48250000000000E+0003	 9.38129389610390E-0002	
 1.48450000000000E+0003	 9.34807763636364E-0002	
 1.48650000000000E+0003	 9.32091137662338E-0002	
 1.48850000000000E+0003	 9.31164511688312E-0002	
 1.49050000000000E+0003	 9.32957885714286E-0002	
 1.49250000000000E+0003	 9.39451259740260E-0002	
 1.49450000000000E+0003	 9.47869633766234E-0002	
 1.49650000000000E+0003	 9.55073007792208E-0002	
 1.49850000000000E+0003	 9.62876381818182E-0002	
 1.50050000000000E+0003	 9.76074755844156E-0002	
 1.50250000000000E+0003	 9.92923129870130E-0002	
 1.50450000000000E+0003	 1.00530650389610E-0001	
 1.50650000000000E+0003	 1.01461987792208E-0001	
 1.50850000000000E+0003	 1.03384825194805E-0001	
 1.51050000000000E+0003	 1.06056662597403E-0001	
 1.51250000000000E+0003	 1.09614000000000E-0001	
 1.51450000000000E+0003	 1.12961837402597E-0001	
 1.51650000000000E+0003	 1.15565674805195E-0001	
 1.51850000000000E+0003	 1.17824512207792E-0001	
 1.52050000000000E+0003	 1.19165849610390E-0001	
 1.52250000000000E+0003	 1.20664187012987E-0001	
 1.52450000000000E+0003	 1.23064524415584E-0001	
 1.52650000000000E+0003	 1.26070861818182E-0001	
 1.52850000000000E+0003	 1.29302699220779E-0001	
 1.53050000000000E+0003	 1.32118036623377E-0001	
 1.53250000000000E+0003	 1.34649874025974E-0001	
 1.53450000000000E+0003	 1.37489711428571E-0001	
 1.53650000000000E+0003	 1.39887048831169E-0001	
 1.53850000000000E+0003	 1.41417386233766E-0001	
 1.54050000000000E+0003	 1.43084723636364E-0001	
 1.54250000000000E+0003	 1.45087561038961E-0001	
 1.54450000000000E+0003	 1.46984398441558E-0001	
 1.54650000000000E+0003	 1.48914235844156E-0001	
 1.54850000000000E+0003	 1.49807073246753E-0001	
 1.55050000000000E+0003	 1.49580910649351E-0001	
 1.55250000000000E+0003	 1.48445248051948E-0001	
 1.55450000000000E+0003	 1.46071585454545E-0001	
 1.55650000000000E+0003	 1.43421922857143E-0001	
 1.55850000000000E+0003	 1.39662260259740E-0001	
 1.56050000000000E+0003	 1.35719597662338E-0001	
 1.56250000000000E+0003	 1.33628435064935E-0001	
 1.56450000000000E+0003	 1.32772272467532E-0001	
 1.56650000000000E+0003	 1.32349109870130E-0001	
 1.56850000000000E+0003	 1.30756447272727E-0001	
 1.57050000000000E+0003	 1.28684784675325E-0001	
 1.57250000000000E+0003	 1.27291622077922E-0001	
 1.57450000000000E+0003	 1.25731959480519E-0001	
 1.57650000000000E+0003	 1.23597796883117E-0001	
 1.57850000000000E+0003	 1.21744134285714E-0001	
 1.58050000000000E+0003	 1.21068471688312E-0001	
 1.58250000000000E+0003	 1.20904809090909E-0001	
 1.58450000000000E+0003	 1.20515146493506E-0001	
 1.58650000000000E+0003	 1.20084483896104E-0001	
 1.58850000000000E+0003	 1.20061821298701E-0001	
 1.59050000000000E+0003	 1.20369658701299E-0001	
 1.59250000000000E+0003	 1.21104996103896E-0001	
 1.59450000000000E+0003	 1.22115333506494E-0001	
 1.59650000000000E+0003	 1.23493670909091E-0001	
 1.59850000000000E+0003	 1.25047508311688E-0001	
 1.60050000000000E+0003	 1.26903345714286E-0001	
 1.60250000000000E+0003	 1.29068183116883E-0001	
 1.60450000000000E+0003	 1.31615520519481E-0001	
 1.60650000000000E+0003	 1.34395857922078E-0001	
 1.60850000000000E+0003	 1.37638195324675E-0001	
 1.61050000000000E+0003	 1.41374032727273E-0001	
 1.61250000000000E+0003	 1.45441870129870E-0001	
 1.61450000000000E+0003	 1.49456207532468E-0001	
 1.61650000000000E+0003	 1.53970544935065E-0001	
 1.61850000000000E+0003	 1.59099382337662E-0001	
 1.62050000000000E+0003	 1.64179719740260E-0001	
 1.62250000000000E+0003	 1.70261557142857E-0001	
 1.62450000000000E+0003	 1.77048894545455E-0001	
 1.62650000000000E+0003	 1.83089731948052E-0001	
 1.62850000000000E+0003	 1.89216069350649E-0001	
 1.63050000000000E+0003	 1.95541906753247E-0001	
 1.63250000000000E+0003	 2.00627744155844E-0001	
 1.63450000000000E+0003	 2.05068081558442E-0001	
 1.63650000000000E+0003	 2.09526918961039E-0001	
 1.63850000000000E+0003	 2.13201256363636E-0001	
 1.64050000000000E+0003	 2.15944593766234E-0001	
 1.64250000000000E+0003	 2.18599931168831E-0001	
 1.64450000000000E+0003	 2.20305268571429E-0001	
 1.64650000000000E+0003	 2.21603105974026E-0001	
 1.64850000000000E+0003	 2.23431443376623E-0001	
 1.65050000000000E+0003	 2.25161780779221E-0001	
 1.65250000000000E+0003	 2.25524618181818E-0001	
 1.65450000000000E+0003	 2.25382955584416E-0001	
 1.65650000000000E+0003	 2.25520792987013E-0001	
 1.65850000000000E+0003	 2.25484630389610E-0001	
 1.66050000000000E+0003	 2.24536467792208E-0001	
 1.66250000000000E+0003	 2.21300305194805E-0001	
 1.66450000000000E+0003	 2.17189142597403E-0001	
 1.66650000000000E+0003	 2.13340480000000E-0001	
 1.66850000000000E+0003	 2.08940317402597E-0001	
 1.67050000000000E+0003	 2.04176154805195E-0001	
 1.67250000000000E+0003	 2.00149992207792E-0001	
 1.67450000000000E+0003	 1.96030829610390E-0001	
 1.67650000000000E+0003	 1.91571167012987E-0001	
 1.67850000000000E+0003	 1.88018004415584E-0001	
 1.68050000000000E+0003	 1.84602341818182E-0001	
 1.68250000000000E+0003	 1.81306679220779E-0001	
 1.68450000000000E+0003	 1.76289516623377E-0001	
 1.68650000000000E+0003	 1.71698354025974E-0001	
 1.68850000000000E+0003	 1.68255191428571E-0001	
 1.69050000000000E+0003	 1.65781528831169E-0001	
 1.69250000000000E+0003	 1.63248366233766E-0001	
 1.69450000000000E+0003	 1.59864203636364E-0001	
 1.69650000000000E+0003	 1.55292541038961E-0001	
 1.69850000000000E+0003	 1.51839878441558E-0001	
 1.70050000000000E+0003	 1.48442715844156E-0001	
 1.70250000000000E+0003	 1.46323553246753E-0001	
 1.70450000000000E+0003	 1.44795390649351E-0001	
 1.70650000000000E+0003	 1.43505728051948E-0001	
 1.70850000000000E+0003	 1.42013565454545E-0001	
 1.71050000000000E+0003	 1.39607402857143E-0001	
 1.71250000000000E+0003	 1.36961240259740E-0001	
 1.71450000000000E+0003	 1.33623077662338E-0001	
 1.71650000000000E+0003	 1.29029415064935E-0001	
 1.71850000000000E+0003	 1.22944252467532E-0001	
 1.72050000000000E+0003	 1.17968589870130E-0001	
 1.72250000000000E+0003	 1.14286927272727E-0001	
 1.72450000000000E+0003	 1.10725764675325E-0001	
 1.72650000000000E+0003	 1.07449602077922E-0001	
 1.72850000000000E+0003	 1.04420439480519E-0001	
 1.73050000000000E+0003	 1.01878276883117E-0001	
 1.73250000000000E+0003	 9.95071142857143E-0002	
 1.73450000000000E+0003	 9.60449516883117E-0002	
 1.73650000000000E+0003	 9.36697890909091E-0002	
 1.73850000000000E+0003	 9.28036264935065E-0002	
 1.74050000000000E+0003	 9.24574638961039E-0002	
 1.74250000000000E+0003	 9.20393012987013E-0002	
 1.74450000000000E+0003	 9.10586387012987E-0002	
 1.74650000000000E+0003	 9.02039761038961E-0002	
 1.74850000000000E+0003	 8.91033135064935E-0002	
 1.75050000000000E+0003	 8.77166509090909E-0002	
 1.75250000000000E+0003	 8.59384883116883E-0002	
 1.75450000000000E+0003	 8.46238257142857E-0002	
 1.75650000000000E+0003	 8.36821631168831E-0002	
 1.75850000000000E+0003	 8.28655005194805E-0002	
 1.76050000000000E+0003	 8.18143379220779E-0002	
 1.76250000000000E+0003	 8.06036753246753E-0002	
 1.76450000000000E+0003	 7.98980127272727E-0002	
 1.76650000000000E+0003	 7.92248501298701E-0002	
 1.76850000000000E+0003	 7.84356875324675E-0002	
 1.77050000000000E+0003	 7.76495249350649E-0002	
 1.77250000000000E+0003	 7.66513623376623E-0002	
 1.77450000000000E+0003	 7.60831997402597E-0002	
 1.77650000000000E+0003	 7.56765371428571E-0002	
 1.77850000000000E+0003	 7.56123745454545E-0002	
 1.78050000000000E+0003	 7.54267119480519E-0002	
 1.78250000000000E+0003	 7.50600493506494E-0002	
 1.78450000000000E+0003	 7.45473867532468E-0002	
 1.78650000000000E+0003	 7.39787241558442E-0002	
 1.78850000000000E+0003	 7.36620615584416E-0002	
 1.79050000000000E+0003	 7.32838989610390E-0002	
 1.79250000000000E+0003	 7.26332363636364E-0002	
 1.79450000000000E+0003	 7.21500737662338E-0002	
 1.79650000000000E+0003	 7.18279111688312E-0002	
 1.79850000000000E+0003	 7.16872485714286E-0002	
 1.80050000000000E+0003	 7.15100859740260E-0002	
 1.80250000000000E+0003	 7.11729233766234E-0002	
 1.80450000000000E+0003	 7.08002607792208E-0002	
 1.80650000000000E+0003	 7.05470981818182E-0002	
 1.80850000000000E+0003	 7.03679355844156E-0002	
 1.81050000000000E+0003	 7.00892729870130E-0002	
 1.81250000000000E+0003	 6.98186103896104E-0002	
 1.81450000000000E+0003	 6.95914477922078E-0002	
 1.81650000000000E+0003	 6.92917851948052E-0002	
 1.81850000000000E+0003	 6.90626225974026E-0002	
 1.82050000000000E+0003	 6.88284600000000E-0002	
 1.82250000000000E+0003	 6.86142974025974E-0002	
 1.82450000000000E+0003	 6.83811348051948E-0002	
 1.82650000000000E+0003	 6.81769722077922E-0002	
 1.82850000000000E+0003	 6.79698096103896E-0002	
 1.83050000000000E+0003	 6.77201470129870E-0002	
 1.83250000000000E+0003	 6.75099844155844E-0002	
 1.83450000000000E+0003	 6.73568218181818E-0002	
 1.83650000000000E+0003	 6.71656592207792E-0002	
 1.83850000000000E+0003	 6.69829966233766E-0002	
 1.84050000000000E+0003	 6.68158340259740E-0002	
 1.84250000000000E+0003	 6.66661714285714E-0002	
 1.84450000000000E+0003	 6.64220088311688E-0002	
 1.84650000000000E+0003	 6.62423462337662E-0002	
 1.84850000000000E+0003	 6.61266836363636E-0002	
 1.85050000000000E+0003	 6.59985210389610E-0002	
 1.85250000000000E+0003	 6.58548584415584E-0002	
 1.85450000000000E+0003	 6.57166958441558E-0002	
 1.85650000000000E+0003	 6.55755332467532E-0002	
 1.85850000000000E+0003	 6.54348706493506E-0002	
 1.86050000000000E+0003	 6.52957080519481E-0002	
 1.86250000000000E+0003	 6.51695454545455E-0002	
 1.86450000000000E+0003	 6.50498828571429E-0002	
 1.86650000000000E+0003	 6.49107202597403E-0002	
 1.86850000000000E+0003	 6.46520576623377E-0002	
 1.87050000000000E+0003	 6.44738950649351E-0002	
 1.87250000000000E+0003	 6.43747324675325E-0002	
 1.87450000000000E+0003	 6.42720698701299E-0002	
 1.87650000000000E+0003	 6.43569072727273E-0002	
 1.87850000000000E+0003	 6.43587446753247E-0002	
 1.88050000000000E+0003	 6.42675820779221E-0002	
 1.88250000000000E+0003	 6.41834194805195E-0002	
 1.88450000000000E+0003	 6.40962568831169E-0002	
 1.88650000000000E+0003	 6.40330942857143E-0002	
 1.88850000000000E+0003	 6.39054316883117E-0002	
 1.89050000000000E+0003	 6.37497690909091E-0002	
 1.89250000000000E+0003	 6.37396064935065E-0002	
 1.89450000000000E+0003	 6.36129438961039E-0002	
 1.89650000000000E+0003	 6.35662812987013E-0002	
 1.89850000000000E+0003	 6.35826187012987E-0002	
 1.90050000000000E+0003	 6.35019561038961E-0002	
 1.90250000000000E+0003	 6.34582935064935E-0002	
 1.90450000000000E+0003	 6.34166309090909E-0002	
 1.90650000000000E+0003	 6.33714683116883E-0002	
 1.90850000000000E+0003	 6.32988057142857E-0002	
 1.91050000000000E+0003	 6.32276431168831E-0002	
 1.91250000000000E+0003	 6.32074805194805E-0002	
 1.91450000000000E+0003	 6.31683179220779E-0002	
 1.91650000000000E+0003	 6.31491553246753E-0002	
 1.91850000000000E+0003	 6.31064927272727E-0002	
 1.92050000000000E+0003	 6.30753301298701E-0002	
 1.92250000000000E+0003	 6.30566675324675E-0002	
 1.92450000000000E+0003	 6.30175049350649E-0002	
 1.92650000000000E+0003	 6.30028423376623E-0002	
 1.92850000000000E+0003	 6.29816797402597E-0002	
 1.93050000000000E+0003	 6.29540171428571E-0002	
 1.93250000000000E+0003	 6.29228545454545E-0002	
 1.93450000000000E+0003	 6.28956919480519E-0002	
 1.93650000000000E+0003	 6.28815293506494E-0002	
 1.93850000000000E+0003	 6.28668667532468E-0002	
 1.94050000000000E+0003	 6.28482041558442E-0002	
 1.94250000000000E+0003	 6.27435415584416E-0002	
 1.94450000000000E+0003	 6.27188789610390E-0002	
 1.94650000000000E+0003	 6.27342163636364E-0002	
 1.94850000000000E+0003	 6.27245537662338E-0002	
 1.95050000000000E+0003	 6.27853911688312E-0002	
 1.95250000000000E+0003	 6.27937285714286E-0002	
 1.95450000000000E+0003	 6.28005659740260E-0002	
 1.95650000000000E+0003	 6.27969033766234E-0002	
 1.95850000000000E+0003	 6.28032407792208E-0002	
 1.96050000000000E+0003	 6.27965781818182E-0002	
 1.96250000000000E+0003	 6.28029155844156E-0002	
 1.96450000000000E+0003	 6.28107529870130E-0002	
 1.96650000000000E+0003	 6.27830903896104E-0002	
 1.96850000000000E+0003	 6.27574277922078E-0002	
 1.97050000000000E+0003	 6.27782651948052E-0002	
 1.97250000000000E+0003	 6.27696025974026E-0002	
 1.97450000000000E+0003	 6.28069400000000E-0002	
 1.97650000000000E+0003	 6.28357774025974E-0002	
 1.97850000000000E+0003	 6.28451148051948E-0002	
 1.98050000000000E+0003	 6.28509522077922E-0002	
 1.98250000000000E+0003	 6.28622896103896E-0002	
 1.98450000000000E+0003	 6.28686270129870E-0002	
 1.98650000000000E+0003	 6.28794644155844E-0002	
 1.98850000000000E+0003	 6.28798018181818E-0002	
 1.99050000000000E+0003	 6.28871392207792E-0002	
 1.99250000000000E+0003	 6.28394766233766E-0002	
 1.99450000000000E+0003	 6.28623140259740E-0002	
 1.99650000000000E+0003	 6.28946514285714E-0002	
 1.99850000000000E+0003	 6.29289888311688E-0002	
 2.00050000000000E+0003	 6.29978262337662E-0002	
 2.00250000000000E+0003	 6.30316636363636E-0002	
 2.00450000000000E+0003	 6.30530010389610E-0002	
 2.00650000000000E+0003	 6.30813384415584E-0002	
 2.00850000000000E+0003	 6.31071758441558E-0002	
 2.01050000000000E+0003	 6.31440132467532E-0002	
 2.01250000000000E+0003	 6.31798506493506E-0002	
 2.01450000000000E+0003	 6.32221880519481E-0002	
 2.01650000000000E+0003	 6.32380254545455E-0002	
 2.01850000000000E+0003	 6.32548628571429E-0002	
 2.02050000000000E+0003	 6.32962002597403E-0002	
 2.02250000000000E+0003	 6.33340376623377E-0002	
 2.02450000000000E+0003	 6.33918750649351E-0002	
 2.02650000000000E+0003	 6.34497124675325E-0002	
 2.02850000000000E+0003	 6.34965498701299E-0002	
 2.03050000000000E+0003	 6.35443872727273E-0002	
 2.03250000000000E+0003	 6.35812246753247E-0002	
 2.03450000000000E+0003	 6.36175620779221E-0002	
 2.03650000000000E+0003	 6.36518994805195E-0002	
 2.03850000000000E+0003	 6.36872368831169E-0002	
 2.04050000000000E+0003	 6.37145742857143E-0002	
 2.04250000000000E+0003	 6.37349116883117E-0002	
 2.04450000000000E+0003	 6.37657490909091E-0002	
 2.04650000000000E+0003	 6.37940864935065E-0002	
 2.04850000000000E+0003	 6.38269238961039E-0002	
 2.05050000000000E+0003	 6.38577612987013E-0002	
 2.05250000000000E+0003	 6.38825987012987E-0002	
 2.05450000000000E+0003	 6.39049361038961E-0002	
 2.05650000000000E+0003	 6.39247735064935E-0002	
 2.05850000000000E+0003	 6.39441109090909E-0002	
 2.06050000000000E+0003	 6.39569483116883E-0002	
 2.06250000000000E+0003	 6.39717857142857E-0002	
 2.06450000000000E+0003	 6.39751231168831E-0002	
 2.06650000000000E+0003	 6.39714605194805E-0002	
 2.06850000000000E+0003	 6.39867979220779E-0002	
 2.07050000000000E+0003	 6.40006353246753E-0002	
 2.07250000000000E+0003	 6.40224727272727E-0002	
 2.07450000000000E+0003	 6.40398101298701E-0002	
 2.07650000000000E+0003	 6.40516475324675E-0002	
 2.07850000000000E+0003	 6.40599849350649E-0002	
 2.08050000000000E+0003	 6.40623223376623E-0002	
 2.08250000000000E+0003	 6.40676597402597E-0002	
 2.08450000000000E+0003	 6.40714971428571E-0002	
 2.08650000000000E+0003	 6.40783345454545E-0002	
 2.08850000000000E+0003	 6.40781719480519E-0002	
 2.09050000000000E+0003	 6.40740093506494E-0002	
 2.09250000000000E+0003	 6.40673467532468E-0002	
 2.09450000000000E+0003	 6.40736841558442E-0002	
 2.09650000000000E+0003	 6.40750215584416E-0002	
 2.09850000000000E+0003	 6.40783589610390E-0002	
 2.10050000000000E+0003	 6.40716963636364E-0002	
 2.10250000000000E+0003	 6.40725337662338E-0002	
 2.10450000000000E+0003	 6.40638711688312E-0002	
 2.10650000000000E+0003	 6.40597085714286E-0002	
 2.10850000000000E+0003	 6.40490459740260E-0002	
 2.11050000000000E+0003	 6.40408833766234E-0002	
 2.11250000000000E+0003	 6.40232207792208E-0002	
 2.11450000000000E+0003	 6.40110581818182E-0002	
 2.11650000000000E+0003	 6.39918955844156E-0002	
 2.11850000000000E+0003	 6.39802329870130E-0002	
 2.12050000000000E+0003	 6.39615703896104E-0002	
 2.12250000000000E+0003	 6.39469077922078E-0002	
 2.12450000000000E+0003	 6.39272451948052E-0002	
 2.12650000000000E+0003	 6.39115825974026E-0002	
 2.12850000000000E+0003	 6.38924200000000E-0002	
 2.13050000000000E+0003	 6.38767574025974E-0002	
 2.13250000000000E+0003	 6.38595948051948E-0002	
 2.13450000000000E+0003	 6.38424322077922E-0002	
 2.13650000000000E+0003	 6.38157696103896E-0002	
 2.13850000000000E+0003	 6.37916070129870E-0002	
 2.14050000000000E+0003	 6.37674444155844E-0002	
 2.14250000000000E+0003	 6.37437818181818E-0002	
 2.14450000000000E+0003	 6.37156192207792E-0002	
 2.14650000000000E+0003	 6.36894566233766E-0002	
 2.14850000000000E+0003	 6.36642940259740E-0002	
 2.15050000000000E+0003	 6.36346314285714E-0002	
 2.15250000000000E+0003	 6.35949688311688E-0002	
 2.15450000000000E+0003	 6.35558062337662E-0002	
 2.15650000000000E+0003	 6.35206436363636E-0002	
 2.15850000000000E+0003	 6.34839810389610E-0002	
 2.16050000000000E+0003	 6.34433184415584E-0002	
 2.16250000000000E+0003	 6.33966558441558E-0002	
 2.16450000000000E+0003	 6.33474932467532E-0002	
 2.16650000000000E+0003	 6.33043306493506E-0002	
 2.16850000000000E+0003	 6.32706680519481E-0002	
 2.17050000000000E+0003	 6.32230054545455E-0002	
 2.17250000000000E+0003	 6.31538428571429E-0002	
 2.17450000000000E+0003	 6.30886802597403E-0002	
 2.17650000000000E+0003	 6.30315176623377E-0002	
 2.17850000000000E+0003	 6.29813550649351E-0002	
 2.18050000000000E+0003	 6.29291924675325E-0002	
 2.18250000000000E+0003	 6.28735298701299E-0002	
 2.18450000000000E+0003	 6.28183672727273E-0002	
 2.18650000000000E+0003	 6.27687046753247E-0002	
 2.18850000000000E+0003	 6.27200420779221E-0002	
 2.19050000000000E+0003	 6.26708794805195E-0002	
 2.19250000000000E+0003	 6.26187168831169E-0002	
 2.19450000000000E+0003	 6.25675542857143E-0002	
 2.19650000000000E+0003	 6.25163916883117E-0002	
 2.19850000000000E+0003	 6.24642290909091E-0002	
 2.20050000000000E+0003	 6.24110664935065E-0002	
 2.20250000000000E+0003	 6.23629038961039E-0002	
 2.20450000000000E+0003	 6.23157412987013E-0002	
 2.20650000000000E+0003	 6.22670787012987E-0002	
 2.20850000000000E+0003	 6.22214161038961E-0002	
 2.21050000000000E+0003	 6.21772535064935E-0002	
 2.21250000000000E+0003	 6.21270909090909E-0002	
 2.21450000000000E+0003	 6.20739283116883E-0002	
 2.21650000000000E+0003	 6.20247657142857E-0002	
 2.21850000000000E+0003	 6.19811031168831E-0002	
 2.22050000000000E+0003	 6.19374405194805E-0002	
 2.22250000000000E+0003	 6.18917779220779E-0002	
 2.22450000000000E+0003	 6.18486153246753E-0002	
 2.22650000000000E+0003	 6.18049527272727E-0002	
 2.22850000000000E+0003	 6.17587901298701E-0002	
 2.23050000000000E+0003	 6.17126275324675E-0002	
 2.23250000000000E+0003	 6.16684649350649E-0002	
 2.23450000000000E+0003	 6.16263023376623E-0002	
 2.23650000000000E+0003	 6.15836397402597E-0002	
 2.23850000000000E+0003	 6.15394771428571E-0002	
 2.24050000000000E+0003	 6.14963145454545E-0002	
 2.24250000000000E+0003	 6.14516519480519E-0002	
 2.24450000000000E+0003	 6.14079893506494E-0002	
 2.24650000000000E+0003	 6.13693267532468E-0002	
 2.24850000000000E+0003	 6.13331641558442E-0002	
 2.25050000000000E+0003	 6.12925015584416E-0002	
 2.25250000000000E+0003	 6.12503389610390E-0002	
 2.25450000000000E+0003	 6.12086763636364E-0002	
 2.25650000000000E+0003	 6.11715137662338E-0002	
 2.25850000000000E+0003	 6.11368511688312E-0002	
 2.26050000000000E+0003	 6.11051885714286E-0002	
 2.26250000000000E+0003	 6.10760259740260E-0002	
 2.26450000000000E+0003	 6.10428633766234E-0002	
 2.26650000000000E+0003	 6.10077007792208E-0002	
 2.26850000000000E+0003	 6.09730381818182E-0002	
 2.27050000000000E+0003	 6.09398755844156E-0002	
 2.27250000000000E+0003	 6.09057129870130E-0002	
 2.27450000000000E+0003	 6.08715503896104E-0002	
 2.27650000000000E+0003	 6.08323877922078E-0002	
 2.27850000000000E+0003	 6.07907251948052E-0002	
 2.28050000000000E+0003	 6.07445625974026E-0002	
 2.28250000000000E+0003	 6.07024000000000E-0002	
 2.28450000000000E+0003	 6.06752374025974E-0002	
 2.28650000000000E+0003	 6.06525748051948E-0002	
 2.28850000000000E+0003	 6.06169122077922E-0002	
 2.29050000000000E+0003	 6.05747496103896E-0002	
 2.29250000000000E+0003	 6.05230870129870E-0002	
 2.29450000000000E+0003	 6.04804244155844E-0002	
 2.29650000000000E+0003	 6.04647618181818E-0002	
 2.29850000000000E+0003	 6.04875992207792E-0002	
 2.30050000000000E+0003	 6.05664366233766E-0002	
 2.30250000000000E+0003	 6.07217740259740E-0002	
 2.30450000000000E+0003	 6.08941114285714E-0002	
 2.30650000000000E+0003	 6.10254488311688E-0002	
 2.30850000000000E+0003	 6.11542862337662E-0002	
 2.31050000000000E+0003	 6.13186236363636E-0002	
 2.31250000000000E+0003	 6.14634610389610E-0002	
 2.31450000000000E+0003	 6.14162984415584E-0002	
 2.31650000000000E+0003	 6.12101358441558E-0002	
 2.31850000000000E+0003	 6.11074732467532E-0002	
 2.32050000000000E+0003	 6.10223106493506E-0002	
 2.32250000000000E+0003	 6.08441480519481E-0002	
 2.32450000000000E+0003	 6.06319854545455E-0002	
 2.32650000000000E+0003	 6.05368228571429E-0002	
 2.32850000000000E+0003	 6.06746602597403E-0002	
 2.33050000000000E+0003	 6.07829976623377E-0002	
 2.33250000000000E+0003	 6.07128350649351E-0002	
 2.33450000000000E+0003	 6.06331724675325E-0002	
 2.33650000000000E+0003	 6.06275098701299E-0002	
 2.33850000000000E+0003	 6.05483472727273E-0002	
 2.34050000000000E+0003	 6.03641846753247E-0002	
 2.34250000000000E+0003	 6.02640220779221E-0002	
 2.34450000000000E+0003	 6.06488594805195E-0002	
 2.34650000000000E+0003	 6.08306968831169E-0002	
 2.34850000000000E+0003	 6.05745342857143E-0002	
 2.35050000000000E+0003	 6.09753716883117E-0002	
 2.35250000000000E+0003	 6.13887090909091E-0002	
 2.35450000000000E+0003	 6.11065464935065E-0002	
 2.35650000000000E+0003	 6.08893838961039E-0002	
 2.35850000000000E+0003	 6.10147212987013E-0002	
 2.36050000000000E+0003	 6.12485587012987E-0002	
 2.36250000000000E+0003	 6.13348961038961E-0002	
 2.36450000000000E+0003	 6.12342335064935E-0002	
 2.36650000000000E+0003	 6.10660709090909E-0002	
 2.36850000000000E+0003	 6.09274083116883E-0002	
 2.37050000000000E+0003	 6.09797457142857E-0002	
 2.37250000000000E+0003	 6.14270831168831E-0002	
 2.37450000000000E+0003	 6.20859205194805E-0002	
 2.37650000000000E+0003	 6.23407579220779E-0002	
 2.37850000000000E+0003	 6.18670953246753E-0002	
 2.38050000000000E+0003	 6.10439327272727E-0002	
 2.38250000000000E+0003	 6.04342701298701E-0002	
 2.38450000000000E+0003	 6.02226075324675E-0002	
 2.38650000000000E+0003	 6.02554449350649E-0002	
 2.38850000000000E+0003	 6.03477823376623E-0002	
 2.39050000000000E+0003	 6.04171197402597E-0002	
 2.39250000000000E+0003	 6.04574571428571E-0002	
 2.39450000000000E+0003	 6.04862945454545E-0002	
 2.39650000000000E+0003	 6.05136319480519E-0002	
 2.39850000000000E+0003	 6.05419693506494E-0002	
 2.40050000000000E+0003	 6.05683067532468E-0002	
 2.40250000000000E+0003	 6.05996441558442E-0002	
 2.40450000000000E+0003	 6.06344815584416E-0002	
 2.40650000000000E+0003	 6.06688189610390E-0002	
 2.40850000000000E+0003	 6.07021563636364E-0002	
 2.41050000000000E+0003	 6.07389937662338E-0002	
 2.41250000000000E+0003	 6.07773311688312E-0002	
 2.41450000000000E+0003	 6.08226685714286E-0002	
 2.41650000000000E+0003	 6.08680059740260E-0002	
 2.41850000000000E+0003	 6.09133433766234E-0002	
 2.42050000000000E+0003	 6.09586807792208E-0002	
 2.42250000000000E+0003	 6.10130181818182E-0002	
 2.42450000000000E+0003	 6.10693555844156E-0002	
 2.42650000000000E+0003	 6.11276929870130E-0002	
 2.42850000000000E+0003	 6.11805303896104E-0002	
 2.43050000000000E+0003	 6.12358677922078E-0002	
 2.43250000000000E+0003	 6.12932051948052E-0002	
 2.43450000000000E+0003	 6.13535425974026E-0002	
 2.43650000000000E+0003	 6.14118800000000E-0002	
 2.43850000000000E+0003	 6.14777174025974E-0002	
 2.44050000000000E+0003	 6.15410548051948E-0002	
 2.44250000000000E+0003	 6.16028922077922E-0002	
 2.44450000000000E+0003	 6.16627296103896E-0002	
 2.44650000000000E+0003	 6.17260670129870E-0002	
 2.44850000000000E+0003	 6.17874044155844E-0002	
 2.45050000000000E+0003	 6.18512418181818E-0002	
 2.45250000000000E+0003	 6.19120792207792E-0002	
 2.45450000000000E+0003	 6.19719166233766E-0002	
 2.45650000000000E+0003	 6.20347540259740E-0002	
 2.45850000000000E+0003	 6.21025914285714E-0002	
 2.46050000000000E+0003	 6.21684288311688E-0002	
 2.46250000000000E+0003	 6.22362662337662E-0002	
 2.46450000000000E+0003	 6.23026036363636E-0002	
 2.46650000000000E+0003	 6.23724410389610E-0002	
 2.46850000000000E+0003	 6.24492784415584E-0002	
 2.47050000000000E+0003	 6.25266158441558E-0002	
 2.47250000000000E+0003	 6.26019532467532E-0002	
 2.47450000000000E+0003	 6.26787906493506E-0002	
 2.47650000000000E+0003	 6.27521280519481E-0002	
 2.47850000000000E+0003	 6.28269654545455E-0002	
 2.48050000000000E+0003	 6.29033028571429E-0002	
 2.48250000000000E+0003	 6.29791402597403E-0002	
 2.48450000000000E+0003	 6.30514776623377E-0002	
 2.48650000000000E+0003	 6.31263150649351E-0002	
 2.48850000000000E+0003	 6.32006524675325E-0002	
 2.49050000000000E+0003	 6.32754898701299E-0002	
 2.49250000000000E+0003	 6.33488272727273E-0002	
 2.49450000000000E+0003	 6.34236646753247E-0002	
 2.49650000000000E+0003	 6.34965020779221E-0002	
 2.49850000000000E+0003	 6.35668394805195E-0002	
 2.50050000000000E+0003	 6.36391768831169E-0002	
 2.50250000000000E+0003	 6.37130142857143E-0002	
 2.50450000000000E+0003	 6.37823516883117E-0002	
 2.50650000000000E+0003	 6.38496890909091E-0002	
 2.50850000000000E+0003	 6.39175264935065E-0002	
 2.51050000000000E+0003	 6.39863638961039E-0002	
 2.51250000000000E+0003	 6.40517012987013E-0002	
 2.51450000000000E+0003	 6.41140387012987E-0002	
 2.51650000000000E+0003	 6.41743761038961E-0002	
 2.51850000000000E+0003	 6.42337135064935E-0002	
 2.52050000000000E+0003	 6.42910509090909E-0002	
 2.52250000000000E+0003	 6.43518883116883E-0002	
 2.52450000000000E+0003	 6.44132257142857E-0002	
 2.52650000000000E+0003	 6.44755631168831E-0002	
 2.52850000000000E+0003	 6.45369005194805E-0002	
 2.53050000000000E+0003	 6.45977379220779E-0002	
 2.53250000000000E+0003	 6.46570753246753E-0002	
 2.53450000000000E+0003	 6.47184127272727E-0002	
 2.53650000000000E+0003	 6.47817501298701E-0002	
 2.53850000000000E+0003	 6.48455875324675E-0002	
 2.54050000000000E+0003	 6.49084249350649E-0002	
 2.54250000000000E+0003	 6.49727623376623E-0002	
 2.54450000000000E+0003	 6.50370997402597E-0002	
 2.54650000000000E+0003	 6.51019371428571E-0002	
 2.54850000000000E+0003	 6.51697745454545E-0002	
 2.55050000000000E+0003	 6.52356119480519E-0002	
 2.55250000000000E+0003	 6.53019493506494E-0002	
 2.55450000000000E+0003	 6.53707867532468E-0002	
 2.55650000000000E+0003	 6.54391241558442E-0002	
 2.55850000000000E+0003	 6.55084615584416E-0002	
 2.56050000000000E+0003	 6.55842989610390E-0002	
 2.56250000000000E+0003	 6.56591363636364E-0002	
 2.56450000000000E+0003	 6.57319737662338E-0002	
 2.56650000000000E+0003	 6.58043111688312E-0002	
 2.56850000000000E+0003	 6.58751485714286E-0002	
 2.57050000000000E+0003	 6.59484859740260E-0002	
 2.57250000000000E+0003	 6.60308233766234E-0002	
 2.57450000000000E+0003	 6.61171607792208E-0002	
 2.57650000000000E+0003	 6.62034981818182E-0002	
 2.57850000000000E+0003	 6.62908355844156E-0002	
 2.58050000000000E+0003	 6.63826729870130E-0002	
 2.58250000000000E+0003	 6.64755103896104E-0002	
 2.58450000000000E+0003	 6.65693477922078E-0002	
 2.58650000000000E+0003	 6.66656851948052E-0002	
 2.58850000000000E+0003	 6.67685225974026E-0002	
 2.59050000000000E+0003	 6.68748600000000E-0002	
 2.59250000000000E+0003	 6.69801974025974E-0002	
 2.59450000000000E+0003	 6.70875348051948E-0002	
 2.59650000000000E+0003	 6.71958722077922E-0002	
 2.59850000000000E+0003	 6.73047096103896E-0002	
 2.60050000000000E+0003	 6.74145470129870E-0002	
 2.60250000000000E+0003	 6.75303844155844E-0002	
 2.60450000000000E+0003	 6.76442218181818E-0002	
 2.60650000000000E+0003	 6.77620592207792E-0002	
 2.60850000000000E+0003	 6.78848966233766E-0002	
 2.61050000000000E+0003	 6.80087340259740E-0002	
 2.61250000000000E+0003	 6.81265714285714E-0002	
 2.61450000000000E+0003	 6.82504088311688E-0002	
 2.61650000000000E+0003	 6.83797462337662E-0002	
 2.61850000000000E+0003	 6.85065836363636E-0002	
 2.62050000000000E+0003	 6.86299210389610E-0002	
 2.62250000000000E+0003	 6.87607584415584E-0002	
 2.62450000000000E+0003	 6.88940958441558E-0002	
 2.62650000000000E+0003	 6.90304332467532E-0002	
 2.62850000000000E+0003	 6.91657706493506E-0002	
 2.63050000000000E+0003	 6.93011080519481E-0002	
 2.63250000000000E+0003	 6.94349454545455E-0002	
 2.63450000000000E+0003	 6.95752828571429E-0002	
 2.63650000000000E+0003	 6.97171202597403E-0002	
 2.63850000000000E+0003	 6.98634576623377E-0002	
 2.64050000000000E+0003	 7.00012950649351E-0002	
 2.64250000000000E+0003	 7.01391324675325E-0002	
 2.64450000000000E+0003	 7.02794698701299E-0002	
 2.64650000000000E+0003	 7.04213072727273E-0002	
 2.64850000000000E+0003	 7.05616446753247E-0002	
 2.65050000000000E+0003	 7.07059820779221E-0002	
 2.65250000000000E+0003	 7.08503194805195E-0002	
 2.65450000000000E+0003	 7.09986568831169E-0002	
 2.65650000000000E+0003	 7.11469942857143E-0002	
 2.65850000000000E+0003	 7.12948316883117E-0002	
 2.66050000000000E+0003	 7.14411690909091E-0002	
 2.66250000000000E+0003	 7.15860064935065E-0002	
 2.66450000000000E+0003	 7.17308438961039E-0002	
 2.66650000000000E+0003	 7.18751812987013E-0002	
 2.66850000000000E+0003	 7.20225187012987E-0002	
 2.67050000000000E+0003	 7.21748561038961E-0002	
 2.67250000000000E+0003	 7.23336935064935E-0002	
 2.67450000000000E+0003	 7.24875309090909E-0002	
 2.67650000000000E+0003	 7.26398683116883E-0002	
 2.67850000000000E+0003	 7.27977057142857E-0002	
 2.68050000000000E+0003	 7.29480431168831E-0002	
 2.68250000000000E+0003	 7.30788805194805E-0002	
 2.68450000000000E+0003	 7.32077179220779E-0002	
 2.68650000000000E+0003	 7.33485553246753E-0002	
 2.68850000000000E+0003	 7.34913927272727E-0002	
 2.69050000000000E+0003	 7.36352301298701E-0002	
 2.69250000000000E+0003	 7.37820675324675E-0002	
 2.69450000000000E+0003	 7.39319049350649E-0002	
 2.69650000000000E+0003	 7.40807423376623E-0002	
 2.69850000000000E+0003	 7.42275797402597E-0002	
 2.70050000000000E+0003	 7.43744171428571E-0002	
 2.70250000000000E+0003	 7.45252545454545E-0002	
 2.70450000000000E+0003	 7.46835919480519E-0002	
 2.70650000000000E+0003	 7.48464293506494E-0002	
 2.70850000000000E+0003	 7.50137667532468E-0002	
 2.71050000000000E+0003	 7.51906041558442E-0002	
 2.71250000000000E+0003	 7.53669415584416E-0002	
 2.71450000000000E+0003	 7.55487789610390E-0002	
 2.71650000000000E+0003	 7.57331163636364E-0002	
 2.71850000000000E+0003	 7.59184537662338E-0002	
 2.72050000000000E+0003	 7.61147911688312E-0002	
 2.72250000000000E+0003	 7.63196285714286E-0002	
 2.72450000000000E+0003	 7.65219659740260E-0002	
 2.72650000000000E+0003	 7.67263033766234E-0002	
 2.72850000000000E+0003	 7.69001407792208E-0002	
 2.73050000000000E+0003	 7.70659781818182E-0002	
 2.73250000000000E+0003	 7.72448155844156E-0002	
 2.73450000000000E+0003	 7.74316529870130E-0002	
 2.73650000000000E+0003	 7.76209903896104E-0002	
 2.73850000000000E+0003	 7.78013277922078E-0002	
 2.74050000000000E+0003	 7.79656651948052E-0002	
 2.74250000000000E+0003	 7.81355025974026E-0002	
 2.74450000000000E+0003	 7.83083400000000E-0002	
 2.74650000000000E+0003	 7.85031774025974E-0002	
 2.74850000000000E+0003	 7.86985148051948E-0002	
 2.75050000000000E+0003	 7.88703522077922E-0002	
 2.75250000000000E+0003	 7.90236896103896E-0002	
 2.75450000000000E+0003	 7.91930270129870E-0002	
 2.75650000000000E+0003	 7.93798644155844E-0002	
 2.75850000000000E+0003	 7.95717018181818E-0002	
 2.76050000000000E+0003	 7.97610392207792E-0002	
 2.76250000000000E+0003	 7.99593766233766E-0002	
 2.76450000000000E+0003	 8.01622140259740E-0002	
 2.76650000000000E+0003	 8.03710514285714E-0002	
 2.76850000000000E+0003	 8.05793888311688E-0002	
 2.77050000000000E+0003	 8.07937262337662E-0002	
 2.77250000000000E+0003	 8.10205636363636E-0002	
 2.77450000000000E+0003	 8.12699010389610E-0002	
 2.77650000000000E+0003	 8.14892384415584E-0002	
 2.77850000000000E+0003	 8.16800758441558E-0002	
 2.78050000000000E+0003	 8.18929132467532E-0002	
 2.78250000000000E+0003	 8.21307506493506E-0002	
 2.78450000000000E+0003	 8.23755880519481E-0002	
 2.78650000000000E+0003	 8.26404254545455E-0002	
 2.78850000000000E+0003	 8.29377628571429E-0002	
 2.79050000000000E+0003	 8.32196002597403E-0002	
 2.79250000000000E+0003	 8.34649376623377E-0002	
 2.79450000000000E+0003	 8.37192750649351E-0002	
 2.79650000000000E+0003	 8.40116124675325E-0002	
 2.79850000000000E+0003	 8.43239498701299E-0002	
 2.80050000000000E+0003	 8.46052872727273E-0002	
 2.80250000000000E+0003	 8.48766246753247E-0002	
 2.80450000000000E+0003	 8.51714620779221E-0002	
 2.80650000000000E+0003	 8.54802994805195E-0002	
 2.80850000000000E+0003	 8.58131368831169E-0002	
 2.81050000000000E+0003	 8.61549742857143E-0002	
 2.81250000000000E+0003	 8.64683116883117E-0002	
 2.81450000000000E+0003	 8.67841490909091E-0002	
 2.81650000000000E+0003	 8.71244864935065E-0002	
 2.81850000000000E+0003	 8.74823238961039E-0002	
 2.82050000000000E+0003	 8.78486612987013E-0002	
 2.82250000000000E+0003	 8.82304987012987E-0002	
 2.82450000000000E+0003	 8.86258361038961E-0002	
 2.82650000000000E+0003	 8.90306735064935E-0002	
 2.82850000000000E+0003	 8.94535109090909E-0002	
 2.83050000000000E+0003	 8.99088483116883E-0002	
 2.83250000000000E+0003	 9.04046857142857E-0002	
 2.83450000000000E+0003	 9.09455231168831E-0002	
 2.83650000000000E+0003	 9.15498605194805E-0002	
 2.83850000000000E+0003	 9.22556979220779E-0002	
 2.84050000000000E+0003	 9.29995353246753E-0002	
 2.84250000000000E+0003	 9.38428727272727E-0002	
 2.84450000000000E+0003	 9.49427101298701E-0002	
 2.84650000000000E+0003	 9.63230475324675E-0002	
 2.84850000000000E+0003	 9.78773849350649E-0002	
 2.85050000000000E+0003	 9.94082223376623E-0002	
 2.85250000000000E+0003	 1.00728559740260E-0001	
 2.85450000000000E+0003	 1.01682897142857E-0001	
 2.85650000000000E+0003	 1.02254234545455E-0001	
 2.85850000000000E+0003	 1.02616071948052E-0001	
 2.86050000000000E+0003	 1.02926409350649E-0001	
 2.86250000000000E+0003	 1.03284746753247E-0001	
 2.86450000000000E+0003	 1.03818584155844E-0001	
 2.86650000000000E+0003	 1.04554421558442E-0001	
 2.86850000000000E+0003	 1.05414758961039E-0001	
 2.87050000000000E+0003	 1.06349096363636E-0001	
 2.87250000000000E+0003	 1.07279433766234E-0001	
 2.87450000000000E+0003	 1.07979771168831E-0001	
 2.87650000000000E+0003	 1.08356608571429E-0001	
 2.87850000000000E+0003	 1.08601445974026E-0001	
 2.88050000000000E+0003	 1.08813283376623E-0001	
 2.88250000000000E+0003	 1.09022620779221E-0001	
 2.88450000000000E+0003	 1.09269958181818E-0001	
 2.88650000000000E+0003	 1.09579295584416E-0001	
 2.88850000000000E+0003	 1.09955632987013E-0001	
 2.89050000000000E+0003	 1.10395470389610E-0001	
 2.89250000000000E+0003	 1.10895807792208E-0001	
 2.89450000000000E+0003	 1.11480645194805E-0001	
 2.89650000000000E+0003	 1.12103482597403E-0001	
 2.89850000000000E+0003	 1.12706320000000E-0001	
 2.90050000000000E+0003	 1.13354657402597E-0001	
 2.90250000000000E+0003	 1.14104494805195E-0001	
 2.90450000000000E+0003	 1.14947332207792E-0001	
 2.90650000000000E+0003	 1.15885169610390E-0001	
 2.90850000000000E+0003	 1.16976507012987E-0001	
 2.91050000000000E+0003	 1.18277844415584E-0001	
 2.91250000000000E+0003	 1.19797681818182E-0001	
 2.91450000000000E+0003	 1.21442519220779E-0001	
 2.91650000000000E+0003	 1.23102356623377E-0001	
 2.91850000000000E+0003	 1.24761194025974E-0001	
 2.92050000000000E+0003	 1.26320531428571E-0001	
 2.92250000000000E+0003	 1.27692368831169E-0001	
 2.92450000000000E+0003	 1.28799206233766E-0001	
 2.92650000000000E+0003	 1.29617543636364E-0001	
 2.92850000000000E+0003	 1.30208881038961E-0001	
 2.93050000000000E+0003	 1.30537218441558E-0001	
 2.93250000000000E+0003	 1.30533555844156E-0001	
 2.93450000000000E+0003	 1.30309393246753E-0001	
 2.93650000000000E+0003	 1.29884730649351E-0001	
 2.93850000000000E+0003	 1.29233068051948E-0001	
 2.94050000000000E+0003	 1.28405905454545E-0001	
 2.94250000000000E+0003	 1.27542242857143E-0001	
 2.94450000000000E+0003	 1.26683080259740E-0001	
 2.94650000000000E+0003	 1.25833917662338E-0001	
 2.94850000000000E+0003	 1.25083255064935E-0001	
 2.95050000000000E+0003	 1.24609092467532E-0001	
 2.95250000000000E+0003	 1.24471929870130E-0001	
 2.95450000000000E+0003	 1.24469767272727E-0001	
 2.95650000000000E+0003	 1.24513604675325E-0001	
 2.95850000000000E+0003	 1.24581442077922E-0001	
 2.96050000000000E+0003	 1.24555279480519E-0001	
 2.96250000000000E+0003	 1.24348616883117E-0001	
 2.96450000000000E+0003	 1.23877954285714E-0001	
 2.96650000000000E+0003	 1.23132291688312E-0001	
 2.96850000000000E+0003	 1.22150129090909E-0001	
 2.97050000000000E+0003	 1.21151966493506E-0001	
 2.97250000000000E+0003	 1.20364803896104E-0001	
 2.97450000000000E+0003	 1.19675141298701E-0001	
 2.97650000000000E+0003	 1.18900478701299E-0001	
 2.97850000000000E+0003	 1.18125316103896E-0001	
 2.98050000000000E+0003	 1.17383153506494E-0001	
 2.98250000000000E+0003	 1.16600490909091E-0001	
 2.98450000000000E+0003	 1.15823328311688E-0001	
 2.98650000000000E+0003	 1.15152665714286E-0001	
 2.98850000000000E+0003	 1.14597003116883E-0001	
 2.99050000000000E+0003	 1.14171840519481E-0001	
 2.99250000000000E+0003	 1.13845177922078E-0001	
 2.99450000000000E+0003	 1.13518015324675E-0001	
 2.99650000000000E+0003	 1.13285852727273E-0001	
 2.99850000000000E+0003	 1.13179190129870E-0001	
 3.00050000000000E+0003	 1.13112027532468E-0001	
 3.00250000000000E+0003	 1.13154864935065E-0001	
 3.00450000000000E+0003	 1.13302202337662E-0001	
 3.00650000000000E+0003	 1.13504039740260E-0001	
 3.00850000000000E+0003	 1.13808377142857E-0001	
 3.01050000000000E+0003	 1.14263214545455E-0001	
 3.01250000000000E+0003	 1.14757051948052E-0001	
 3.01450000000000E+0003	 1.15159889350649E-0001	
 3.01650000000000E+0003	 1.15503226753247E-0001	
 3.01850000000000E+0003	 1.15915564155844E-0001	
 3.02050000000000E+0003	 1.16407901558442E-0001	
 3.02250000000000E+0003	 1.16965738961039E-0001	
 3.02450000000000E+0003	 1.17615076363636E-0001	
 3.02650000000000E+0003	 1.18261413766234E-0001	
 3.02850000000000E+0003	 1.18919251168831E-0001	
 3.03050000000000E+0003	 1.19656588571429E-0001	
 3.03250000000000E+0003	 1.20452425974026E-0001	
 3.03450000000000E+0003	 1.21249263376623E-0001	
 3.03650000000000E+0003	 1.21948600779221E-0001	
 3.03850000000000E+0003	 1.22669938181818E-0001	
 3.04050000000000E+0003	 1.23551275584416E-0001	
 3.04250000000000E+0003	 1.24454112987013E-0001	
 3.04450000000000E+0003	 1.25251950389610E-0001	
 3.04650000000000E+0003	 1.25991287792208E-0001	
 3.04850000000000E+0003	 1.26777125194805E-0001	
 3.05050000000000E+0003	 1.27661962597403E-0001	
 3.05250000000000E+0003	 1.28523800000000E-0001	
 3.05450000000000E+0003	 1.29363137402597E-0001	
 3.05650000000000E+0003	 1.30219974805195E-0001	
 3.05850000000000E+0003	 1.31033312207792E-0001	
 3.06050000000000E+0003	 1.31820149610390E-0001	
 3.06250000000000E+0003	 1.32633487012987E-0001	
 3.06450000000000E+0003	 1.33462824415584E-0001	
 3.06650000000000E+0003	 1.34297661818182E-0001	
 3.06850000000000E+0003	 1.35042499220779E-0001	
 3.07050000000000E+0003	 1.35679336623377E-0001	
 3.07250000000000E+0003	 1.36327674025974E-0001	
 3.07450000000000E+0003	 1.37040511428571E-0001	
 3.07650000000000E+0003	 1.37841348831169E-0001	
 3.07850000000000E+0003	 1.38668686233766E-0001	
 3.08050000000000E+0003	 1.39383023636364E-0001	
 3.08250000000000E+0003	 1.40024361038961E-0001	
 3.08450000000000E+0003	 1.40681698441558E-0001	
 3.08650000000000E+0003	 1.41307535844156E-0001	
 3.08850000000000E+0003	 1.41937373246753E-0001	
 3.09050000000000E+0003	 1.42600710649351E-0001	
 3.09250000000000E+0003	 1.43197548051948E-0001	
 3.09450000000000E+0003	 1.43775885454545E-0001	
 3.09650000000000E+0003	 1.44413722857143E-0001	
 3.09850000000000E+0003	 1.45108560259740E-0001	
 3.10050000000000E+0003	 1.45806897662338E-0001	
 3.10250000000000E+0003	 1.46441735064935E-0001	
 3.10450000000000E+0003	 1.47073072467532E-0001	
 3.10650000000000E+0003	 1.47801409870130E-0001	
 3.10850000000000E+0003	 1.48602247272727E-0001	
 3.11050000000000E+0003	 1.49321584675325E-0001	
 3.11250000000000E+0003	 1.50024422077922E-0001	
 3.11450000000000E+0003	 1.50904759480519E-0001	
 3.11650000000000E+0003	 1.51859596883117E-0001	
 3.11850000000000E+0003	 1.52737934285714E-0001	
 3.12050000000000E+0003	 1.53540271688312E-0001	
 3.12250000000000E+0003	 1.54256109090909E-0001	
 3.12450000000000E+0003	 1.54998946493506E-0001	
 3.12650000000000E+0003	 1.55873783896104E-0001	
 3.12850000000000E+0003	 1.56852621298701E-0001	
 3.13050000000000E+0003	 1.57842458701299E-0001	
 3.13250000000000E+0003	 1.58790296103896E-0001	
 3.13450000000000E+0003	 1.59774133506494E-0001	
 3.13650000000000E+0003	 1.60861470909091E-0001	
 3.13850000000000E+0003	 1.62036808311688E-0001	
 3.14050000000000E+0003	 1.63123645714286E-0001	
 3.14250000000000E+0003	 1.64104483116883E-0001	
 3.14450000000000E+0003	 1.65152820519481E-0001	
 3.14650000000000E+0003	 1.66293157922078E-0001	
 3.14850000000000E+0003	 1.67499995324675E-0001	
 3.15050000000000E+0003	 1.68834832727273E-0001	
 3.15250000000000E+0003	 1.70195170129870E-0001	
 3.15450000000000E+0003	 1.71366007532468E-0001	
 3.15650000000000E+0003	 1.72474344935065E-0001	
 3.15850000000000E+0003	 1.73695182337662E-0001	
 3.16050000000000E+0003	 1.74990019740260E-0001	
 3.16250000000000E+0003	 1.76316857142857E-0001	
 3.16450000000000E+0003	 1.77663194545455E-0001	
 3.16650000000000E+0003	 1.79017031948052E-0001	
 3.16850000000000E+0003	 1.80378369350649E-0001	
 3.17050000000000E+0003	 1.81756706753247E-0001	
 3.17250000000000E+0003	 1.83145044155844E-0001	
 3.17450000000000E+0003	 1.84536381558442E-0001	
 3.17650000000000E+0003	 1.85929218961039E-0001	
 3.17850000000000E+0003	 1.87338056363636E-0001	
 3.18050000000000E+0003	 1.88745893766234E-0001	
 3.18250000000000E+0003	 1.90141231168831E-0001	
 3.18450000000000E+0003	 1.91534568571429E-0001	
 3.18650000000000E+0003	 1.92937405974026E-0001	
 3.18850000000000E+0003	 1.94341243376623E-0001	
 3.19050000000000E+0003	 1.95721080779221E-0001	
 3.19250000000000E+0003	 1.97072418181818E-0001	
 3.19450000000000E+0003	 1.98415755584416E-0001	
 3.19650000000000E+0003	 1.99761092987013E-0001	
 3.19850000000000E+0003	 2.01110430389610E-0001	
 3.20050000000000E+0003	 2.02448767792208E-0001	
 3.20250000000000E+0003	 2.03772605194805E-0001	
 3.20450000000000E+0003	 2.05090442597403E-0001	
 3.20650000000000E+0003	 2.06401780000000E-0001	
 3.20850000000000E+0003	 2.07687117402597E-0001	
 3.21050000000000E+0003	 2.08967954805195E-0001	
 3.21250000000000E+0003	 2.10266292207792E-0001	
 3.21450000000000E+0003	 2.11575629610390E-0001	
 3.21650000000000E+0003	 2.12867967012987E-0001	
 3.21850000000000E+0003	 2.14159804415584E-0001	
 3.22050000000000E+0003	 2.15438641818182E-0001	
 3.22250000000000E+0003	 2.16700479220779E-0001	
 3.22450000000000E+0003	 2.17979816623377E-0001	
 3.22650000000000E+0003	 2.19282654025974E-0001	
 3.22850000000000E+0003	 2.20599991428571E-0001	
 3.23050000000000E+0003	 2.21990828831169E-0001	
 3.23250000000000E+0003	 2.23482666233766E-0001	
 3.23450000000000E+0003	 2.24861003636364E-0001	
 3.23650000000000E+0003	 2.26056841038961E-0001	
 3.23850000000000E+0003	 2.27309178441558E-0001	
 3.24050000000000E+0003	 2.28667515844156E-0001	
 3.24250000000000E+0003	 2.30083853246753E-0001	
 3.24450000000000E+0003	 2.31577190649351E-0001	
 3.24650000000000E+0003	 2.33124028051948E-0001	
 3.24850000000000E+0003	 2.34563865454545E-0001	
 3.25050000000000E+0003	 2.35932702857143E-0001	
 3.25250000000000E+0003	 2.37387540259740E-0001	
 3.25450000000000E+0003	 2.38953877662338E-0001	
 3.25650000000000E+0003	 2.40507715064935E-0001	
 3.25850000000000E+0003	 2.41983552467532E-0001	
 3.26050000000000E+0003	 2.43468389870130E-0001	
 3.26250000000000E+0003	 2.44993227272727E-0001	
 3.26450000000000E+0003	 2.46514064675325E-0001	
 3.26650000000000E+0003	 2.48034402077922E-0001	
 3.26850000000000E+0003	 2.49622739480519E-0001	
 3.27050000000000E+0003	 2.51237076883117E-0001	
 3.27250000000000E+0003	 2.52660914285714E-0001	
 3.27450000000000E+0003	 2.53936251688312E-0001	
 3.27650000000000E+0003	 2.55192089090909E-0001	
 3.27850000000000E+0003	 2.56419926493506E-0001	
 3.28050000000000E+0003	 2.57638263896104E-0001	
 3.28250000000000E+0003	 2.58828601298701E-0001	
 3.28450000000000E+0003	 2.59971438701299E-0001	
 3.28650000000000E+0003	 2.61057276103896E-0001	
 3.28850000000000E+0003	 2.62118613506494E-0001	
 3.29050000000000E+0003	 2.63217950909091E-0001	
 3.29250000000000E+0003	 2.64281788311688E-0001	
 3.29450000000000E+0003	 2.65203625714286E-0001	
 3.29650000000000E+0003	 2.66016463116883E-0001	
 3.29850000000000E+0003	 2.66751800519481E-0001	
 3.30050000000000E+0003	 2.67489137922078E-0001	
 3.30250000000000E+0003	 2.68326475324675E-0001	
 3.30450000000000E+0003	 2.69266312727273E-0001	
 3.30650000000000E+0003	 2.70115150129870E-0001	
 3.30850000000000E+0003	 2.70751987532468E-0001	
 3.31050000000000E+0003	 2.71276824935065E-0001	
 3.31250000000000E+0003	 2.71824662337662E-0001	
 3.31450000000000E+0003	 2.72449499740260E-0001	
 3.31650000000000E+0003	 2.73107837142857E-0001	
 3.31850000000000E+0003	 2.73780174545455E-0001	
 3.32050000000000E+0003	 2.74472511948052E-0001	
 3.32250000000000E+0003	 2.75203349350649E-0001	
 3.32450000000000E+0003	 2.75996186753247E-0001	
 3.32650000000000E+0003	 2.76749524155844E-0001	
 3.32850000000000E+0003	 2.77402361558442E-0001	
 3.33050000000000E+0003	 2.78079698961039E-0001	
 3.33250000000000E+0003	 2.78825036363636E-0001	
 3.33450000000000E+0003	 2.79629373766234E-0001	
 3.33650000000000E+0003	 2.80525211168831E-0001	
 3.33850000000000E+0003	 2.81428548571429E-0001	
 3.34050000000000E+0003	 2.82200385974026E-0001	
 3.34250000000000E+0003	 2.82944723376623E-0001	
 3.34450000000000E+0003	 2.83699560779221E-0001	
 3.34650000000000E+0003	 2.84454398181818E-0001	
 3.34850000000000E+0003	 2.85350235584416E-0001	
 3.35050000000000E+0003	 2.86310572987013E-0001	
 3.35250000000000E+0003	 2.87068910389610E-0001	
 3.35450000000000E+0003	 2.87721247792208E-0001	
 3.35650000000000E+0003	 2.88487085194805E-0001	
 3.35850000000000E+0003	 2.89349422597403E-0001	
 3.36050000000000E+0003	 2.90219260000000E-0001	
 3.36250000000000E+0003	 2.91028597402597E-0001	
 3.36450000000000E+0003	 2.91892934805195E-0001	
 3.36650000000000E+0003	 2.92915272207792E-0001	
 3.36850000000000E+0003	 2.93902109610390E-0001	
 3.37050000000000E+0003	 2.94600947012987E-0001	
 3.37250000000000E+0003	 2.95097784415584E-0001	
 3.37450000000000E+0003	 2.95706121818182E-0001	
 3.37650000000000E+0003	 2.96458459220779E-0001	
 3.37850000000000E+0003	 2.97206796623377E-0001	
 3.38050000000000E+0003	 2.97910634025974E-0001	
 3.38250000000000E+0003	 2.98558971428571E-0001	
 3.38450000000000E+0003	 2.99205308831169E-0001	
 3.38650000000000E+0003	 2.99894646233766E-0001	
 3.38850000000000E+0003	 3.00684983636364E-0001	
 3.39050000000000E+0003	 3.01607321038961E-0001	
 3.39250000000000E+0003	 3.02346658441558E-0001	
 3.39450000000000E+0003	 3.02760995844156E-0001	
 3.39650000000000E+0003	 3.03232833246753E-0001	
 3.39850000000000E+0003	 3.04027670649351E-0001	
 3.40050000000000E+0003	 3.04850008051948E-0001	
 3.40250000000000E+0003	 3.05220845454545E-0001	
 3.40450000000000E+0003	 3.05348182857143E-0001	
 3.40650000000000E+0003	 3.05692520259740E-0001	
 3.40850000000000E+0003	 3.06216857662338E-0001	
 3.41050000000000E+0003	 3.06688195064935E-0001	
 3.41250000000000E+0003	 3.07075032467532E-0001	
 3.41450000000000E+0003	 3.07324869870130E-0001	
 3.41650000000000E+0003	 3.07483707272727E-0001	
 3.41850000000000E+0003	 3.07709044675325E-0001	
 3.42050000000000E+0003	 3.07971382077922E-0001	
 3.42250000000000E+0003	 3.08154219480519E-0001	
 3.42450000000000E+0003	 3.08297056883117E-0001	
 3.42650000000000E+0003	 3.08506394285714E-0001	
 3.42850000000000E+0003	 3.08766731688312E-0001	
 3.43050000000000E+0003	 3.08907069090909E-0001	
 3.43250000000000E+0003	 3.08955406493506E-0001	
 3.43450000000000E+0003	 3.09088243896104E-0001	
 3.43650000000000E+0003	 3.09081581298701E-0001	
 3.43850000000000E+0003	 3.08736418701299E-0001	
 3.44050000000000E+0003	 3.08292756103896E-0001	
 3.44250000000000E+0003	 3.07987593506494E-0001	
 3.44450000000000E+0003	 3.07775430909091E-0001	
 3.44650000000000E+0003	 3.07565768311688E-0001	
 3.44850000000000E+0003	 3.07283105714286E-0001	
 3.45050000000000E+0003	 3.06901443116883E-0001	
 3.45250000000000E+0003	 3.06510780519481E-0001	
 3.45450000000000E+0003	 3.06115117922078E-0001	
 3.45650000000000E+0003	 3.05722955324675E-0001	
 3.45850000000000E+0003	 3.05394792727273E-0001	
 3.46050000000000E+0003	 3.04995630129870E-0001	
 3.46250000000000E+0003	 3.04432467532468E-0001	
 3.46450000000000E+0003	 3.03976304935065E-0001	
 3.46650000000000E+0003	 3.03739142337662E-0001	
 3.46850000000000E+0003	 3.03338979740260E-0001	
 3.47050000000000E+0003	 3.02443317142857E-0001	
 3.47250000000000E+0003	 3.01360654545455E-0001	
 3.47450000000000E+0003	 3.00488491948052E-0001	
 3.47650000000000E+0003	 2.99824829350649E-0001	
 3.47850000000000E+0003	 2.99274166753247E-0001	
 3.48050000000000E+0003	 2.98548504155844E-0001	
 3.48250000000000E+0003	 2.97552841558442E-0001	
 3.48450000000000E+0003	 2.96655178961039E-0001	
 3.48650000000000E+0003	 2.95882516363636E-0001	
 3.48850000000000E+0003	 2.94987853766234E-0001	
 3.49050000000000E+0003	 2.94012691168831E-0001	
 3.49250000000000E+0003	 2.93120028571429E-0001	
 3.49450000000000E+0003	 2.92290365974026E-0001	
 3.49650000000000E+0003	 2.91437203376623E-0001	
 3.49850000000000E+0003	 2.90480540779221E-0001	
 3.50050000000000E+0003	 2.89539378181818E-0001	
 3.50250000000000E+0003	 2.88626715584416E-0001	
 3.50450000000000E+0003	 2.87450552987013E-0001	
 3.50650000000000E+0003	 2.86145890389610E-0001	
 3.50850000000000E+0003	 2.84988227792208E-0001	
 3.51050000000000E+0003	 2.83979565194805E-0001	
 3.51250000000000E+0003	 2.83052402597403E-0001	
 3.51450000000000E+0003	 2.81996240000000E-0001	
 3.51650000000000E+0003	 2.80753577402597E-0001	
 3.51850000000000E+0003	 2.79526414805195E-0001	
 3.52050000000000E+0003	 2.78443252207792E-0001	
 3.52250000000000E+0003	 2.77494089610390E-0001	
 3.52450000000000E+0003	 2.76376927012987E-0001	
 3.52650000000000E+0003	 2.74968264415584E-0001	
 3.52850000000000E+0003	 2.73592601818182E-0001	
 3.53050000000000E+0003	 2.72329939220779E-0001	
 3.53250000000000E+0003	 2.71119276623377E-0001	
 3.53450000000000E+0003	 2.70006114025974E-0001	
 3.53650000000000E+0003	 2.68841951428571E-0001	
 3.53850000000000E+0003	 2.67436288831169E-0001	
 3.54050000000000E+0003	 2.66084126233766E-0001	
 3.54250000000000E+0003	 2.64964463636364E-0001	
 3.54450000000000E+0003	 2.63789301038961E-0001	
 3.54650000000000E+0003	 2.62245638441558E-0001	
 3.54850000000000E+0003	 2.60500475844156E-0001	
 3.55050000000000E+0003	 2.58908313246753E-0001	
 3.55250000000000E+0003	 2.57379650649351E-0001	
 3.55450000000000E+0003	 2.55794488051948E-0001	
 3.55650000000000E+0003	 2.54242325454545E-0001	
 3.55850000000000E+0003	 2.52754662857143E-0001	
 3.56050000000000E+0003	 2.51274500259740E-0001	
 3.56250000000000E+0003	 2.49679337662338E-0001	
 3.56450000000000E+0003	 2.47968675064935E-0001	
 3.56650000000000E+0003	 2.46260012467532E-0001	
 3.56850000000000E+0003	 2.44640849870130E-0001	
 3.57050000000000E+0003	 2.42973687272727E-0001	
 3.57250000000000E+0003	 2.41170024675325E-0001	
 3.57450000000000E+0003	 2.39365862077922E-0001	
 3.57650000000000E+0003	 2.37609199480519E-0001	
 3.57850000000000E+0003	 2.35891536883117E-0001	
 3.58050000000000E+0003	 2.34239374285714E-0001	
 3.58250000000000E+0003	 2.32635211688312E-0001	
 3.58450000000000E+0003	 2.31016049090909E-0001	
 3.58650000000000E+0003	 2.29126886493506E-0001	
 3.58850000000000E+0003	 2.26958723896104E-0001	
 3.59050000000000E+0003	 2.24949561298701E-0001	
 3.59250000000000E+0003	 2.23078398701299E-0001	
 3.59450000000000E+0003	 2.21153236103896E-0001	
 3.59650000000000E+0003	 2.19261573506494E-0001	
 3.59850000000000E+0003	 2.17456410909091E-0001	
 3.60050000000000E+0003	 2.15561748311688E-0001	
 3.60250000000000E+0003	 2.13610585714286E-0001	
 3.60450000000000E+0003	 2.11693423116883E-0001	
 3.60650000000000E+0003	 2.09697760519481E-0001	
 3.60850000000000E+0003	 2.07625097922078E-0001	
 3.61050000000000E+0003	 2.05633435324675E-0001	
 3.61250000000000E+0003	 2.03692272727273E-0001	
 3.61450000000000E+0003	 2.01808110129870E-0001	
 3.61650000000000E+0003	 1.99950947532468E-0001	
 3.61850000000000E+0003	 1.98094284935065E-0001	
 3.62050000000000E+0003	 1.96174122337662E-0001	
 3.62250000000000E+0003	 1.94114959740260E-0001	
 3.62450000000000E+0003	 1.92101797142857E-0001	
 3.62650000000000E+0003	 1.90172134545455E-0001	
 3.62850000000000E+0003	 1.88039471948052E-0001	
 3.63050000000000E+0003	 1.85941809350649E-0001	
 3.63250000000000E+0003	 1.84012646753247E-0001	
 3.63450000000000E+0003	 1.82167484155844E-0001	
 3.63650000000000E+0003	 1.80268821558442E-0001	
 3.63850000000000E+0003	 1.78369658961039E-0001	
 3.64050000000000E+0003	 1.76506996363636E-0001	
 3.64250000000000E+0003	 1.74694833766234E-0001	
 3.64450000000000E+0003	 1.72972171168831E-0001	
 3.64650000000000E+0003	 1.71290508571429E-0001	
 3.64850000000000E+0003	 1.69525845974026E-0001	
 3.65050000000000E+0003	 1.67673683376623E-0001	
 3.65250000000000E+0003	 1.65857020779221E-0001	
 3.65450000000000E+0003	 1.64064858181818E-0001	
 3.65650000000000E+0003	 1.62426695584416E-0001	
 3.65850000000000E+0003	 1.60898032987013E-0001	
 3.66050000000000E+0003	 1.59340370389610E-0001	
 3.66250000000000E+0003	 1.57674707792208E-0001	
 3.66450000000000E+0003	 1.56063045194805E-0001	
 3.66650000000000E+0003	 1.54673382597403E-0001	
 3.66850000000000E+0003	 1.53290720000000E-0001	
 3.67050000000000E+0003	 1.51856057402597E-0001	
 3.67250000000000E+0003	 1.50592894805195E-0001	
 3.67450000000000E+0003	 1.49328232207792E-0001	
 3.67650000000000E+0003	 1.48036569610390E-0001	
 3.67850000000000E+0003	 1.46768407012987E-0001	
 3.68050000000000E+0003	 1.45673744415584E-0001	
 3.68250000000000E+0003	 1.44654081818182E-0001	
 3.68450000000000E+0003	 1.43768419220779E-0001	
 3.68650000000000E+0003	 1.43073756623377E-0001	
 3.68850000000000E+0003	 1.42368594025974E-0001	
 3.69050000000000E+0003	 1.41287431428571E-0001	
 3.69250000000000E+0003	 1.40155268831169E-0001	
 3.69450000000000E+0003	 1.39309106233766E-0001	
 3.69650000000000E+0003	 1.38573943636364E-0001	
 3.69850000000000E+0003	 1.37862781038961E-0001	
 3.70050000000000E+0003	 1.37165118441558E-0001	
 3.70250000000000E+0003	 1.36507455844156E-0001	
 3.70450000000000E+0003	 1.35853793246753E-0001	
 3.70650000000000E+0003	 1.35237630649351E-0001	
 3.70850000000000E+0003	 1.34661968051948E-0001	
 3.71050000000000E+0003	 1.34062805454545E-0001	
 3.71250000000000E+0003	 1.33536142857143E-0001	
 3.71450000000000E+0003	 1.33092480259740E-0001	
 3.71650000000000E+0003	 1.32656817662338E-0001	
 3.71850000000000E+0003	 1.32269155064935E-0001	
 3.72050000000000E+0003	 1.31824492467532E-0001	
 3.72250000000000E+0003	 1.31393829870130E-0001	
 3.72450000000000E+0003	 1.30961167272727E-0001	
 3.72650000000000E+0003	 1.30521504675325E-0001	
 3.72850000000000E+0003	 1.30187842077922E-0001	
 3.73050000000000E+0003	 1.29919179480519E-0001	
 3.73250000000000E+0003	 1.29767516883117E-0001	
 3.73450000000000E+0003	 1.29439854285714E-0001	
 3.73650000000000E+0003	 1.29089691688312E-0001	
 3.73850000000000E+0003	 1.28761029090909E-0001	
 3.74050000000000E+0003	 1.28399866493506E-0001	
 3.74250000000000E+0003	 1.28006203896104E-0001	
 3.74450000000000E+0003	 1.27647041298701E-0001	
 3.74650000000000E+0003	 1.27410878701299E-0001	
 3.74850000000000E+0003	 1.27031216103896E-0001	
 3.75050000000000E+0003	 1.26753553506494E-0001	
 3.75250000000000E+0003	 1.26496390909091E-0001	
 3.75450000000000E+0003	 1.26274228311688E-0001	
 3.75650000000000E+0003	 1.26017065714286E-0001	
 3.75850000000000E+0003	 1.25787903116883E-0001	
 3.76050000000000E+0003	 1.25551740519481E-0001	
 3.76250000000000E+0003	 1.25326077922078E-0001	
 3.76450000000000E+0003	 1.25083415324675E-0001	
 3.76650000000000E+0003	 1.24922252727273E-0001	
 3.76850000000000E+0003	 1.24693590129870E-0001	
 3.77050000000000E+0003	 1.24487927532468E-0001	
 3.77250000000000E+0003	 1.24265264935065E-0001	
 3.77450000000000E+0003	 1.24043102337662E-0001	
 3.77650000000000E+0003	 1.23921939740260E-0001	
 3.77850000000000E+0003	 1.23805277142857E-0001	
 3.78050000000000E+0003	 1.23645114545455E-0001	
 3.78250000000000E+0003	 1.23370451948052E-0001	
 3.78450000000000E+0003	 1.23135289350649E-0001	
 3.78650000000000E+0003	 1.22971126753247E-0001	
 3.78850000000000E+0003	 1.22822964155844E-0001	
 3.79050000000000E+0003	 1.22688301558442E-0001	
 3.79250000000000E+0003	 1.22551138961039E-0001	
 3.79450000000000E+0003	 1.22380476363636E-0001	
 3.79650000000000E+0003	 1.22241813766234E-0001	
 3.79850000000000E+0003	 1.22139651168831E-0001	
 3.80050000000000E+0003	 1.21912488571429E-0001	
 3.80250000000000E+0003	 1.21815825974026E-0001	
 3.80450000000000E+0003	 1.21654663376623E-0001	
 3.80650000000000E+0003	 1.21479000779221E-0001	
 3.80850000000000E+0003	 1.21399838181818E-0001	
 3.81050000000000E+0003	 1.21233675584416E-0001	
 3.81250000000000E+0003	 1.21176512987013E-0001	
 3.81450000000000E+0003	 1.21062850389610E-0001	
 3.81650000000000E+0003	 1.20994187792208E-0001	
 3.81850000000000E+0003	 1.20917025194805E-0001	
 3.82050000000000E+0003	 1.20748362597403E-0001	
 3.82250000000000E+0003	 1.20684700000000E-0001	
 3.82450000000000E+0003	 1.20484037402597E-0001	
 3.82650000000000E+0003	 1.20357374805195E-0001	
 3.82850000000000E+0003	 1.20298712207792E-0001	
 3.83050000000000E+0003	 1.20196549610390E-0001	
 3.83250000000000E+0003	 1.20171887012987E-0001	
 3.83450000000000E+0003	 1.20207724415584E-0001	
 3.83650000000000E+0003	 1.20177561818182E-0001	
 3.83850000000000E+0003	 1.19995899220779E-0001	
 3.84050000000000E+0003	 1.19806236623377E-0001	
 3.84250000000000E+0003	 1.19697074025974E-0001	
 3.84450000000000E+0003	 1.19681411428571E-0001	
 3.84650000000000E+0003	 1.19623748831169E-0001	
 3.84850000000000E+0003	 1.19550086233766E-0001	
 3.85050000000000E+0003	 1.19551923636364E-0001	
 3.85250000000000E+0003	 1.19406761038961E-0001	
 3.85450000000000E+0003	 1.19292098441558E-0001	
 3.85650000000000E+0003	 1.19224935844156E-0001	
 3.85850000000000E+0003	 1.19101273246753E-0001	
 3.86050000000000E+0003	 1.19071610649351E-0001	
 3.86250000000000E+0003	 1.19047448051948E-0001	
 3.86450000000000E+0003	 1.18980785454545E-0001	
 3.86650000000000E+0003	 1.18990122857143E-0001	
 3.86850000000000E+0003	 1.18872960259740E-0001	
 3.87050000000000E+0003	 1.18850297662338E-0001	
 3.87250000000000E+0003	 1.18755135064935E-0001	
 3.87450000000000E+0003	 1.18662472467532E-0001	
 3.87650000000000E+0003	 1.18665309870130E-0001	
 3.87850000000000E+0003	 1.18604147272727E-0001	
 3.88050000000000E+0003	 1.18607984675325E-0001	
 3.88250000000000E+0003	 1.18657322077922E-0001	
 3.88450000000000E+0003	 1.18619659480519E-0001	
 3.88650000000000E+0003	 1.18603496883117E-0001	
 3.88850000000000E+0003	 1.18481834285714E-0001	
 3.89050000000000E+0003	 1.18384671688312E-0001	
 3.89250000000000E+0003	 1.18380009090909E-0001	
 3.89450000000000E+0003	 1.18318346493506E-0001	
 3.89650000000000E+0003	 1.18306183896104E-0001	
 3.89850000000000E+0003	 1.18337021298701E-0001	
 3.90050000000000E+0003	 1.18362358701299E-0001	
 3.90250000000000E+0003	 1.18284196103896E-0001	
 3.90450000000000E+0003	 1.18213033506494E-0001	
 3.90650000000000E+0003	 1.18158370909091E-0001	
 3.90850000000000E+0003	 1.18083708311688E-0001	
 3.91050000000000E+0003	 1.18048045714286E-0001	
 3.91250000000000E+0003	 1.18050383116883E-0001	
 3.91450000000000E+0003	 1.18067220519481E-0001	
 3.91650000000000E+0003	 1.18087057922078E-0001	
 3.91850000000000E+0003	 1.18075895324675E-0001	
 3.92050000000000E+0003	 1.18043232727273E-0001	
 3.92250000000000E+0003	 1.18018570129870E-0001	
 3.92450000000000E+0003	 1.17995407532468E-0001	
 3.92650000000000E+0003	 1.17995744935065E-0001	
 3.92850000000000E+0003	 1.17983582337662E-0001	
 3.93050000000000E+0003	 1.17990919740260E-0001	
 3.93250000000000E+0003	 1.17992757142857E-0001	
 3.93450000000000E+0003	 1.17988094545455E-0001	
 3.93650000000000E+0003	 1.17937931948052E-0001	
 3.93850000000000E+0003	 1.17912269350649E-0001	
 3.94050000000000E+0003	 1.17904106753247E-0001	
 3.94250000000000E+0003	 1.17901944155844E-0001	
 3.94450000000000E+0003	 1.17903281558442E-0001	
 3.94650000000000E+0003	 1.17876618961039E-0001	
 3.94850000000000E+0003	 1.17857456363636E-0001	
 3.95050000000000E+0003	 1.17837793766234E-0001	
 3.95250000000000E+0003	 1.17814131168831E-0001	
 3.95450000000000E+0003	 1.17797468571429E-0001	
 3.95650000000000E+0003	 1.17788305974026E-0001	
 3.95850000000000E+0003	 1.17790143376623E-0001	
 3.96050000000000E+0003	 1.17783980779221E-0001	
 3.96250000000000E+0003	 1.17770318181818E-0001	
 3.96450000000000E+0003	 1.17754155584416E-0001	
 3.96650000000000E+0003	 1.17747992987013E-0001	
 3.96850000000000E+0003	 1.17747330389610E-0001	
 3.97050000000000E+0003	 1.17745667792208E-0001	
 3.97250000000000E+0003	 1.17745005194805E-0001	
 3.97450000000000E+0003	 1.17751842597403E-0001	
 3.97650000000000E+0003	 1.17753180000000E-0001	
 3.97850000000000E+0003	 1.17742017402597E-0001	
 3.98050000000000E+0003	 1.17737354805195E-0001	
 3.98250000000000E+0003	 1.17767692207792E-0001	
 3.98450000000000E+0003	 1.17787029610390E-0001	
 3.98650000000000E+0003	 1.17763867012987E-0001	
 3.98850000000000E+0003	 1.17729204415584E-0001	
 3.99050000000000E+0003	 1.17717041818182E-0001	
 3.99250000000000E+0003	 1.17715379220779E-0001	
 3.99450000000000E+0003	 1.17714716623377E-0001	
 3.99650000000000E+0003	 1.17716554025974E-0001	
 3.99850000000000E+0003	 1.17713891428571E-0001	

>1	DATALINE
