*CPCWIN*

>1	DATALINE
DATALINE
1
Operator:

Description:

Remarks:





15.9.2008
10:55


_x	_y
	
	
UNIT	UNIT
 4.50500000000000E+0002	 1.67826270764791E-0001	
 4.52500000000000E+0002	 1.68261178499278E-0001	
 4.54500000000000E+0002	 1.68823086233766E-0001	
 4.56500000000000E+0002	 1.69214493968254E-0001	
 4.58500000000000E+0002	 1.69489401702742E-0001	
 4.60500000000000E+0002	 1.70309809437229E-0001	
 4.62500000000000E+0002	 1.71075717171717E-0001	
 4.64500000000000E+0002	 1.71881624906205E-0001	
 4.66500000000000E+0002	 1.72389532640693E-0001	
 4.68500000000000E+0002	 1.72938940375180E-0001	
 4.70500000000000E+0002	 1.73438848109668E-0001	
 4.72500000000000E+0002	 1.74093255844156E-0001	
 4.74500000000000E+0002	 1.74927163578644E-0001	
 4.76500000000000E+0002	 1.75817571313131E-0001	
 4.78500000000000E+0002	 1.76551979047619E-0001	
 4.80500000000000E+0002	 1.77415886782107E-0001	
 4.82500000000000E+0002	 1.78209294516595E-0001	
 4.84500000000000E+0002	 1.79174202251082E-0001	
 4.86500000000000E+0002	 1.80224609985570E-0001	
 4.88500000000000E+0002	 1.81445517720058E-0001	
 4.90500000000000E+0002	 1.82547925454545E-0001	
 4.92500000000000E+0002	 1.83704833189033E-0001	
 4.94500000000000E+0002	 1.84825240923521E-0001	
 4.96500000000000E+0002	 1.86000648658009E-0001	
 4.98500000000000E+0002	 1.87102056392496E-0001	
 5.00500000000000E+0002	 1.88076464126984E-0001	
 5.02500000000000E+0002	 1.89035871861472E-0001	
 5.04500000000000E+0002	 1.90248779595960E-0001	
 5.06500000000000E+0002	 1.91331687330447E-0001	
 5.08500000000000E+0002	 1.92365095064935E-0001	
 5.10500000000000E+0002	 1.93436502799423E-0001	
 5.12500000000000E+0002	 1.94551410533911E-0001	
 5.14500000000000E+0002	 1.95647818268398E-0001	
 5.16500000000000E+0002	 1.96803226002886E-0001	
 5.18500000000000E+0002	 1.98088133737374E-0001	
 5.20500000000000E+0002	 1.99409041471861E-0001	
 5.22500000000000E+0002	 2.00675949206349E-0001	
 5.24500000000000E+0002	 2.01747356940837E-0001	
 5.26500000000000E+0002	 2.02871764675325E-0001	
 5.28500000000000E+0002	 2.04188672409812E-0001	
 5.30500000000000E+0002	 2.05381080144300E-0001	
 5.32500000000000E+0002	 2.06033987878788E-0001	
 5.34500000000000E+0002	 2.06349895613276E-0001	
 5.36500000000000E+0002	 2.06348803347763E-0001	
 5.38500000000000E+0002	 2.06145211082251E-0001	
 5.40500000000000E+0002	 2.05742118816739E-0001	
 5.42500000000000E+0002	 2.05454026551227E-0001	
 5.44500000000000E+0002	 2.05228934285714E-0001	
 5.46500000000000E+0002	 2.05160842020202E-0001	
 5.48500000000000E+0002	 2.05105249754690E-0001	
 5.50500000000000E+0002	 2.05130157489177E-0001	
 5.52500000000000E+0002	 2.05024565223665E-0001	
 5.54500000000000E+0002	 2.04842972958153E-0001	
 5.56500000000000E+0002	 2.04493380692641E-0001	
 5.58500000000000E+0002	 2.04063788427128E-0001	
 5.60500000000000E+0002	 2.03428696161616E-0001	
 5.62500000000000E+0002	 2.02722603896104E-0001	
 5.64500000000000E+0002	 2.02000511630592E-0001	
 5.66500000000000E+0002	 2.01404919365079E-0001	
 5.68500000000000E+0002	 2.00907827099567E-0001	
 5.70500000000000E+0002	 2.00538234834055E-0001	
 5.72500000000000E+0002	 2.00192142568543E-0001	
 5.74500000000000E+0002	 1.99871050303030E-0001	
 5.76500000000000E+0002	 1.99680458037518E-0001	
 5.78500000000000E+0002	 1.99662865772006E-0001	
 5.80500000000000E+0002	 1.99583273506494E-0001	
 5.82500000000000E+0002	 1.99393181240981E-0001	
 5.84500000000000E+0002	 1.99178588975469E-0001	
 5.86500000000000E+0002	 1.98972996709957E-0001	
 5.88500000000000E+0002	 1.98808404444444E-0001	
 5.90500000000000E+0002	 1.98649812178932E-0001	
 5.92500000000000E+0002	 1.98664219913420E-0001	
 5.94500000000000E+0002	 1.98810627647908E-0001	
 5.96500000000000E+0002	 1.99084535382395E-0001	
 5.98500000000000E+0002	 1.99362943116883E-0001	
 6.00500000000000E+0002	 1.99605350851371E-0001	
 6.02500000000000E+0002	 1.99767258585859E-0001	
 6.04500000000000E+0002	 1.99856666320346E-0001	
 6.06500000000000E+0002	 1.99708574054834E-0001	
 6.08500000000000E+0002	 1.99401981789322E-0001	
 6.10500000000000E+0002	 1.98975389523810E-0001	
 6.12500000000000E+0002	 1.98534797258297E-0001	
 6.14500000000000E+0002	 1.98072704992785E-0001	
 6.16500000000000E+0002	 1.97648612727273E-0001	
 6.18500000000000E+0002	 1.97230020461760E-0001	
 6.20500000000000E+0002	 1.96791928196248E-0001	
 6.22500000000000E+0002	 1.96293835930736E-0001	
 6.24500000000000E+0002	 1.95798743665224E-0001	
 6.26500000000000E+0002	 1.95325651399711E-0001	
 6.28500000000000E+0002	 1.94859559134199E-0001	
 6.30500000000000E+0002	 1.94387966868687E-0001	
 6.32500000000000E+0002	 1.93851874603175E-0001	
 6.34500000000000E+0002	 1.93227282337662E-0001	
 6.36500000000000E+0002	 1.92615690072150E-0001	
 6.38500000000000E+0002	 1.92089097806638E-0001	
 6.40500000000000E+0002	 1.91553005541126E-0001	
 6.42500000000000E+0002	 1.91007413275613E-0001	
 6.44500000000000E+0002	 1.90422321010101E-0001	
 6.46500000000000E+0002	 1.89850728744589E-0001	
 6.48500000000000E+0002	 1.89278136479076E-0001	
 6.50500000000000E+0002	 1.88715044213564E-0001	
 6.52500000000000E+0002	 1.88186951948052E-0001	
 6.54500000000000E+0002	 1.87702859682540E-0001	
 6.56500000000000E+0002	 1.87258767417027E-0001	
 6.58500000000000E+0002	 1.86868175151515E-0001	
 6.60500000000000E+0002	 1.86497582886003E-0001	
 6.62500000000000E+0002	 1.86109490620491E-0001	
 6.64500000000000E+0002	 1.85860398354978E-0001	
 6.66500000000000E+0002	 1.85642306089466E-0001	
 6.68500000000000E+0002	 1.84885713823954E-0001	
 6.70500000000000E+0002	 1.84082121558442E-0001	
 6.72500000000000E+0002	 1.83457029292929E-0001	
 6.74500000000000E+0002	 1.82707937027417E-0001	
 6.76500000000000E+0002	 1.82028344761905E-0001	
 6.78500000000000E+0002	 1.81337252496392E-0001	
 6.80500000000000E+0002	 1.80661660230880E-0001	
 6.82500000000000E+0002	 1.79970067965368E-0001	
 6.84500000000000E+0002	 1.79360475699856E-0001	
 6.86500000000000E+0002	 1.78809883434343E-0001	
 6.88500000000000E+0002	 1.78308791168831E-0001	
 6.90500000000000E+0002	 1.77837198903319E-0001	
 6.92500000000000E+0002	 1.77489606637807E-0001	
 6.94500000000000E+0002	 1.77197014372294E-0001	
 6.96500000000000E+0002	 1.76974922106782E-0001	
 6.98500000000000E+0002	 1.76723829841270E-0001	
 7.00500000000000E+0002	 1.76388737575758E-0001	
 7.02500000000000E+0002	 1.75901645310245E-0001	
 7.04500000000000E+0002	 1.75271553044733E-0001	
 7.06500000000000E+0002	 1.74572460779221E-0001	
 7.08500000000000E+0002	 1.73890868513709E-0001	
 7.10500000000000E+0002	 1.73245276248196E-0001	
 7.12500000000000E+0002	 1.72560183982684E-0001	
 7.14500000000000E+0002	 1.71685591717172E-0001	
 7.16500000000000E+0002	 1.70647499451659E-0001	
 7.18500000000000E+0002	 1.69607407186147E-0001	
 7.20500000000000E+0002	 1.68511814920635E-0001	
 7.22500000000000E+0002	 1.67283222655123E-0001	
 7.24500000000000E+0002	 1.65812130389610E-0001	
 7.26500000000000E+0002	 1.64114538124098E-0001	
 7.28500000000000E+0002	 1.62271945858586E-0001	
 7.30500000000000E+0002	 1.60420853593074E-0001	
 7.32500000000000E+0002	 1.58721761327561E-0001	
 7.34500000000000E+0002	 1.57253669062049E-0001	
 7.36500000000000E+0002	 1.56012576796537E-0001	
 7.38500000000000E+0002	 1.54938484531025E-0001	
 7.40500000000000E+0002	 1.54002392265512E-0001	
 7.42500000000000E+0002	 1.53108800000000E-0001	
 7.44500000000000E+0002	 1.52294207734488E-0001	
 7.46500000000000E+0002	 1.51520615468975E-0001	
 7.48500000000000E+0002	 1.50817023203463E-0001	
 7.50500000000000E+0002	 1.50137930937951E-0001	
 7.52500000000000E+0002	 1.49655338672439E-0001	
 7.54500000000000E+0002	 1.49338746406926E-0001	
 7.56500000000000E+0002	 1.49257154141414E-0001	
 7.58500000000000E+0002	 1.49322061875902E-0001	
 7.60500000000000E+0002	 1.49639469610390E-0001	
 7.62500000000000E+0002	 1.50016377344877E-0001	
 7.64500000000000E+0002	 1.50184285079365E-0001	
 7.66500000000000E+0002	 1.49601192813853E-0001	
 7.68500000000000E+0002	 1.48212100548341E-0001	
 7.70500000000000E+0002	 1.46357008282828E-0001	
 7.72500000000000E+0002	 1.44748416017316E-0001	
 7.74500000000000E+0002	 1.43812823751804E-0001	
 7.76500000000000E+0002	 1.43871231486291E-0001	
 7.78500000000000E+0002	 1.44471639220779E-0001	
 7.80500000000000E+0002	 1.44520046955267E-0001	
 7.82500000000000E+0002	 1.43506954689755E-0001	
 7.84500000000000E+0002	 1.42103362424242E-0001	
 7.86500000000000E+0002	 1.40742770158730E-0001	
 7.88500000000000E+0002	 1.39371677893218E-0001	
 7.90500000000000E+0002	 1.38026585627706E-0001	
 7.92500000000000E+0002	 1.37060993362193E-0001	
 7.94500000000000E+0002	 1.36572401096681E-0001	
 7.96500000000000E+0002	 1.36045808831169E-0001	
 7.98500000000000E+0002	 1.35095216565657E-0001	
 8.00500000000000E+0002	 1.33882124300144E-0001	
 8.02500000000000E+0002	 1.32794032034632E-0001	
 8.04500000000000E+0002	 1.31987439769120E-0001	
 8.06500000000000E+0002	 1.31446847503608E-0001	
 8.08500000000000E+0002	 1.31023255238095E-0001	
 8.10500000000000E+0002	 1.30596662972583E-0001	
 8.12500000000000E+0002	 1.30016070707071E-0001	
 8.14500000000000E+0002	 1.29249478441558E-0001	
 8.16500000000000E+0002	 1.28340886176046E-0001	
 8.18500000000000E+0002	 1.27397793910534E-0001	
 8.20500000000000E+0002	 1.26546201645022E-0001	
 8.22500000000000E+0002	 1.25853609379509E-0001	
 8.24500000000000E+0002	 1.25357017113997E-0001	
 8.26500000000000E+0002	 1.24999424848485E-0001	
 8.28500000000000E+0002	 1.24781832582973E-0001	
 8.30500000000000E+0002	 1.24672240317460E-0001	
 8.32500000000000E+0002	 1.24725648051948E-0001	
 8.34500000000000E+0002	 1.24860555786436E-0001	
 8.36500000000000E+0002	 1.25052963520924E-0001	
 8.38500000000000E+0002	 1.25190371255411E-0001	
 8.40500000000000E+0002	 1.25277278989899E-0001	
 8.42500000000000E+0002	 1.25232686724387E-0001	
 8.44500000000000E+0002	 1.25142094458874E-0001	
 8.46500000000000E+0002	 1.25012502193362E-0001	
 8.48500000000000E+0002	 1.24964409927850E-0001	
 8.50500000000000E+0002	 1.25016817662338E-0001	
 8.52500000000000E+0002	 1.25255225396825E-0001	
 8.54500000000000E+0002	 1.25597633131313E-0001	
 8.56500000000000E+0002	 1.25959540865801E-0001	
 8.58500000000000E+0002	 1.26154448600289E-0001	
 8.60500000000000E+0002	 1.26051356334776E-0001	
 8.62500000000000E+0002	 1.25545764069264E-0001	
 8.64500000000000E+0002	 1.24663671803752E-0001	
 8.66500000000000E+0002	 1.23498579538240E-0001	
 8.68500000000000E+0002	 1.22389487272727E-0001	
 8.70500000000000E+0002	 1.21881895007215E-0001	
 8.72500000000000E+0002	 1.21626802741703E-0001	
 8.74500000000000E+0002	 1.20660210476190E-0001	
 8.76500000000000E+0002	 1.19350618210678E-0001	
 8.78500000000000E+0002	 1.18450525945166E-0001	
 8.80500000000000E+0002	 1.17937433679654E-0001	
 8.82500000000000E+0002	 1.17656841414141E-0001	
 8.84500000000000E+0002	 1.17430749148629E-0001	
 8.86500000000000E+0002	 1.17186156883117E-0001	
 8.88500000000000E+0002	 1.16899064617605E-0001	
 8.90500000000000E+0002	 1.16571472352092E-0001	
 8.92500000000000E+0002	 1.16166380086580E-0001	
 8.94500000000000E+0002	 1.15713287821068E-0001	
 8.96500000000000E+0002	 1.15266695555556E-0001	
 8.98500000000000E+0002	 1.14929603290043E-0001	
 9.00500000000000E+0002	 1.14853511024531E-0001	
 9.02500000000000E+0002	 1.15164918759019E-0001	
 9.04500000000000E+0002	 1.16039326493506E-0001	
 9.06500000000000E+0002	 1.17491734227994E-0001	
 9.08500000000000E+0002	 1.19429641962482E-0001	
 9.10500000000000E+0002	 1.21521049696970E-0001	
 9.12500000000000E+0002	 1.23409457431457E-0001	
 9.14500000000000E+0002	 1.24672865165945E-0001	
 9.16500000000000E+0002	 1.25144772900433E-0001	
 9.18500000000000E+0002	 1.24746680634921E-0001	
 9.20500000000000E+0002	 1.23708088369408E-0001	
 9.22500000000000E+0002	 1.22221496103896E-0001	
 9.24500000000000E+0002	 1.20593403838384E-0001	
 9.26500000000000E+0002	 1.18961311572872E-0001	
 9.28500000000000E+0002	 1.17493219307359E-0001	
 9.30500000000000E+0002	 1.16202127041847E-0001	
 9.32500000000000E+0002	 1.15177034776335E-0001	
 9.34500000000000E+0002	 1.14347942510823E-0001	
 9.36500000000000E+0002	 1.13725350245310E-0001	
 9.38500000000000E+0002	 1.13274257979798E-0001	
 9.40500000000000E+0002	 1.13047165714286E-0001	
 9.42500000000000E+0002	 1.13054073448773E-0001	
 9.44500000000000E+0002	 1.13357481183261E-0001	
 9.46500000000000E+0002	 1.13938888917749E-0001	
 9.48500000000000E+0002	 1.14785296652237E-0001	
 9.50500000000000E+0002	 1.15878704386724E-0001	
 9.52500000000000E+0002	 1.17279112121212E-0001	
 9.54500000000000E+0002	 1.19045519855700E-0001	
 9.56500000000000E+0002	 1.21202427590188E-0001	
 9.58500000000000E+0002	 1.23706835324675E-0001	
 9.60500000000000E+0002	 1.26428243059163E-0001	
 9.62500000000000E+0002	 1.29219150793651E-0001	
 9.64500000000000E+0002	 1.31936558528139E-0001	
 9.66500000000000E+0002	 1.34473466262626E-0001	
 9.68500000000000E+0002	 1.36780873997114E-0001	
 9.70500000000000E+0002	 1.38915281731602E-0001	
 9.72500000000000E+0002	 1.41056689466089E-0001	
 9.74500000000000E+0002	 1.43497097200577E-0001	
 9.76500000000000E+0002	 1.46657004935065E-0001	
 9.78500000000000E+0002	 1.50927412669553E-0001	
 9.80500000000000E+0002	 1.56532320404040E-0001	
 9.82500000000000E+0002	 1.63308728138528E-0001	
 9.84500000000000E+0002	 1.70785135873016E-0001	
 9.86500000000000E+0002	 1.78183043607504E-0001	
 9.88500000000000E+0002	 1.84841951341991E-0001	
 9.90500000000000E+0002	 1.90380859076479E-0001	
 9.92500000000000E+0002	 1.94907766810967E-0001	
 9.94500000000000E+0002	 1.98813674545455E-0001	
 9.96500000000000E+0002	 2.02733082279942E-0001	
 9.98500000000000E+0002	 2.07213990014430E-0001	
 1.00050000000000E+0003	 2.12586397748918E-0001	
 1.00250000000000E+0003	 2.18735305483405E-0001	
 1.00450000000000E+0003	 2.25347713217893E-0001	
 1.00650000000000E+0003	 2.32058120952381E-0001	
 1.00850000000000E+0003	 2.38597528686869E-0001	
 1.01050000000000E+0003	 2.44802936421356E-0001	
 1.01250000000000E+0003	 2.50671844155844E-0001	
 1.01450000000000E+0003	 2.56162751890332E-0001	
 1.01650000000000E+0003	 2.61115659624820E-0001	
 1.01850000000000E+0003	 2.65322067359307E-0001	
 1.02050000000000E+0003	 2.68604975093795E-0001	
 1.02250000000000E+0003	 2.71037382828283E-0001	
 1.02450000000000E+0003	 2.72880790562771E-0001	
 1.02650000000000E+0003	 2.74519698297258E-0001	
 1.02850000000000E+0003	 2.76157106031746E-0001	
 1.03050000000000E+0003	 2.77856013766234E-0001	
 1.03250000000000E+0003	 2.79527421500722E-0001	
 1.03450000000000E+0003	 2.81077829235209E-0001	
 1.03650000000000E+0003	 2.82337736969697E-0001	
 1.03850000000000E+0003	 2.83309644704185E-0001	
 1.04050000000000E+0003	 2.84087552438672E-0001	
 1.04250000000000E+0003	 2.84936460173160E-0001	
 1.04450000000000E+0003	 2.86129367907648E-0001	
 1.04650000000000E+0003	 2.87889775642136E-0001	
 1.04850000000000E+0003	 2.90214183376623E-0001	
 1.05050000000000E+0003	 2.92794091111111E-0001	
 1.05250000000000E+0003	 2.94999498845599E-0001	
 1.05450000000000E+0003	 2.96264406580087E-0001	
 1.05650000000000E+0003	 2.96339314314574E-0001	
 1.05850000000000E+0003	 2.95289722049062E-0001	
 1.06050000000000E+0003	 2.93438629783550E-0001	
 1.06250000000000E+0003	 2.91418537518038E-0001	
 1.06450000000000E+0003	 2.90054445252525E-0001	
 1.06650000000000E+0003	 2.89986852987013E-0001	
 1.06850000000000E+0003	 2.91444760721501E-0001	
 1.07050000000000E+0003	 2.94213668455988E-0001	
 1.07250000000000E+0003	 2.97717576190476E-0001	
 1.07450000000000E+0003	 3.01311483924964E-0001	
 1.07650000000000E+0003	 3.04369391659452E-0001	
 1.07850000000000E+0003	 3.06422299393939E-0001	
 1.08050000000000E+0003	 3.07187707128427E-0001	
 1.08250000000000E+0003	 3.06527114862915E-0001	
 1.08450000000000E+0003	 3.04242022597403E-0001	
 1.08650000000000E+0003	 3.00202930331890E-0001	
 1.08850000000000E+0003	 2.94477838066378E-0001	
 1.09050000000000E+0003	 2.87706745800866E-0001	
 1.09250000000000E+0003	 2.80942653535354E-0001	
 1.09450000000000E+0003	 2.75254061269841E-0001	
 1.09650000000000E+0003	 2.70974969004329E-0001	
 1.09850000000000E+0003	 2.67799876738817E-0001	
 1.10050000000000E+0003	 2.65089284473304E-0001	
 1.10250000000000E+0003	 2.62380692207792E-0001	
 1.10450000000000E+0003	 2.59442099942280E-0001	
 1.10650000000000E+0003	 2.56359507676768E-0001	
 1.10850000000000E+0003	 2.53350415411255E-0001	
 1.11050000000000E+0003	 2.50665323145743E-0001	
 1.11250000000000E+0003	 2.48329730880231E-0001	
 1.11450000000000E+0003	 2.46161638614719E-0001	
 1.11650000000000E+0003	 2.43908546349206E-0001	
 1.11850000000000E+0003	 2.41387454083694E-0001	
 1.12050000000000E+0003	 2.38502361818182E-0001	
 1.12250000000000E+0003	 2.35232769552670E-0001	
 1.12450000000000E+0003	 2.31670177287157E-0001	
 1.12650000000000E+0003	 2.27907085021645E-0001	
 1.12850000000000E+0003	 2.24089992756133E-0001	
 1.13050000000000E+0003	 2.20276900490620E-0001	
 1.13250000000000E+0003	 2.16622808225108E-0001	
 1.13450000000000E+0003	 2.13227715959596E-0001	
 1.13650000000000E+0003	 2.10208623694084E-0001	
 1.13850000000000E+0003	 2.07659531428571E-0001	
 1.14050000000000E+0003	 2.05755439163059E-0001	
 1.14250000000000E+0003	 2.04548846897547E-0001	
 1.14450000000000E+0003	 2.04002754632035E-0001	
 1.14650000000000E+0003	 2.03809162366522E-0001	
 1.14850000000000E+0003	 2.03561570101010E-0001	
 1.15050000000000E+0003	 2.02776977835498E-0001	
 1.15250000000000E+0003	 2.01180885569986E-0001	
 1.15450000000000E+0003	 1.98728793304473E-0001	
 1.15650000000000E+0003	 1.95643701038961E-0001	
 1.15850000000000E+0003	 1.92189608773449E-0001	
 1.16050000000000E+0003	 1.88515016507937E-0001	
 1.16250000000000E+0003	 1.84601424242424E-0001	
 1.16450000000000E+0003	 1.80392831976912E-0001	
 1.16650000000000E+0003	 1.75938739711400E-0001	
 1.16850000000000E+0003	 1.71399147445887E-0001	
 1.17050000000000E+0003	 1.66967555180375E-0001	
 1.17250000000000E+0003	 1.62725962914863E-0001	
 1.17450000000000E+0003	 1.58683870649351E-0001	
 1.17650000000000E+0003	 1.54901278383838E-0001	
 1.17850000000000E+0003	 1.51512186118326E-0001	
 1.18050000000000E+0003	 1.48651593852814E-0001	
 1.18250000000000E+0003	 1.46442501587302E-0001	
 1.18450000000000E+0003	 1.44969909321789E-0001	
 1.18650000000000E+0003	 1.44244317056277E-0001	
 1.18850000000000E+0003	 1.44265224790765E-0001	
 1.19050000000000E+0003	 1.44998132525253E-0001	
 1.19250000000000E+0003	 1.46410040259740E-0001	
 1.19450000000000E+0003	 1.48399947994228E-0001	
 1.19650000000000E+0003	 1.50861855728716E-0001	
 1.19850000000000E+0003	 1.53626263463203E-0001	
 1.20050000000000E+0003	 1.56541171197691E-0001	
 1.20250000000000E+0003	 1.59440578932179E-0001	
 1.20450000000000E+0003	 1.62249486666667E-0001	
 1.20650000000000E+0003	 1.64878894401154E-0001	
 1.20850000000000E+0003	 1.67333302135642E-0001	
 1.21050000000000E+0003	 1.69660709870130E-0001	
 1.21250000000000E+0003	 1.72001117604618E-0001	
 1.21450000000000E+0003	 1.74385525339105E-0001	
 1.21650000000000E+0003	 1.76889433073593E-0001	
 1.21850000000000E+0003	 1.79598340808081E-0001	
 1.22050000000000E+0003	 1.82221748542569E-0001	
 1.22250000000000E+0003	 1.84213156277056E-0001	
 1.22450000000000E+0003	 1.85643064011544E-0001	
 1.22650000000000E+0003	 1.86921471746032E-0001	
 1.22850000000000E+0003	 1.88219879480519E-0001	
 1.23050000000000E+0003	 1.89484287215007E-0001	
 1.23250000000000E+0003	 1.90583694949495E-0001	
 1.23450000000000E+0003	 1.91433102683983E-0001	
 1.23650000000000E+0003	 1.91976510418470E-0001	
 1.23850000000000E+0003	 1.92189918152958E-0001	
 1.24050000000000E+0003	 1.92048825887446E-0001	
 1.24250000000000E+0003	 1.91567233621934E-0001	
 1.24450000000000E+0003	 1.90745141356421E-0001	
 1.24650000000000E+0003	 1.89618549090909E-0001	
 1.24850000000000E+0003	 1.88206956825397E-0001	
 1.25050000000000E+0003	 1.86557864559885E-0001	
 1.25250000000000E+0003	 1.84705772294372E-0001	
 1.25450000000000E+0003	 1.82717180028860E-0001	
 1.25650000000000E+0003	 1.80661587763348E-0001	
 1.25850000000000E+0003	 1.78590495497835E-0001	
 1.26050000000000E+0003	 1.76542403232323E-0001	
 1.26250000000000E+0003	 1.74544810966811E-0001	
 1.26450000000000E+0003	 1.72660218701299E-0001	
 1.26650000000000E+0003	 1.70893126435786E-0001	
 1.26850000000000E+0003	 1.69269034170274E-0001	
 1.27050000000000E+0003	 1.67769441904762E-0001	
 1.27250000000000E+0003	 1.66428349639250E-0001	
 1.27450000000000E+0003	 1.65227257373737E-0001	
 1.27650000000000E+0003	 1.64182165108225E-0001	
 1.27850000000000E+0003	 1.63264572842713E-0001	
 1.28050000000000E+0003	 1.62491980577201E-0001	
 1.28250000000000E+0003	 1.61750388311688E-0001	
 1.28450000000000E+0003	 1.61003296046176E-0001	
 1.28650000000000E+0003	 1.60284203780664E-0001	
 1.28850000000000E+0003	 1.59701111515152E-0001	
 1.29050000000000E+0003	 1.59308019249639E-0001	
 1.29250000000000E+0003	 1.59109926984127E-0001	
 1.29450000000000E+0003	 1.59063834718615E-0001	
 1.29650000000000E+0003	 1.59202742453102E-0001	
 1.29850000000000E+0003	 1.59569150187590E-0001	
 1.30050000000000E+0003	 1.60102057922078E-0001	
 1.30250000000000E+0003	 1.60692965656566E-0001	
 1.30450000000000E+0003	 1.61248873391053E-0001	
 1.30650000000000E+0003	 1.61754281125541E-0001	
 1.30850000000000E+0003	 1.62220188860029E-0001	
 1.31050000000000E+0003	 1.62613096594517E-0001	
 1.31250000000000E+0003	 1.62851004329004E-0001	
 1.31450000000000E+0003	 1.62911412063492E-0001	
 1.31650000000000E+0003	 1.62746319797980E-0001	
 1.31850000000000E+0003	 1.62373727532468E-0001	
 1.32050000000000E+0003	 1.61859635266955E-0001	
 1.32250000000000E+0003	 1.61340043001443E-0001	
 1.32450000000000E+0003	 1.60913950735931E-0001	
 1.32650000000000E+0003	 1.60658358470418E-0001	
 1.32850000000000E+0003	 1.60627266204906E-0001	
 1.33050000000000E+0003	 1.60832673939394E-0001	
 1.33250000000000E+0003	 1.61225081673882E-0001	
 1.33450000000000E+0003	 1.61625989408369E-0001	
 1.33650000000000E+0003	 1.61874897142857E-0001	
 1.33850000000000E+0003	 1.61941804877345E-0001	
 1.34050000000000E+0003	 1.61950712611833E-0001	
 1.34250000000000E+0003	 1.61900620346320E-0001	
 1.34450000000000E+0003	 1.61731028080808E-0001	
 1.34650000000000E+0003	 1.61448935815296E-0001	
 1.34850000000000E+0003	 1.61307843549784E-0001	
 1.35050000000000E+0003	 1.61426251284271E-0001	
 1.35250000000000E+0003	 1.61857659018759E-0001	
 1.35450000000000E+0003	 1.62556566753247E-0001	
 1.35650000000000E+0003	 1.63422474487734E-0001	
 1.35850000000000E+0003	 1.64270382222222E-0001	
 1.36050000000000E+0003	 1.65016289956710E-0001	
 1.36250000000000E+0003	 1.65966697691198E-0001	
 1.36450000000000E+0003	 1.67409605425685E-0001	
 1.36650000000000E+0003	 1.69268013160173E-0001	
 1.36850000000000E+0003	 1.71057920894661E-0001	
 1.37050000000000E+0003	 1.72252328629149E-0001	
 1.37250000000000E+0003	 1.73104736363636E-0001	
 1.37450000000000E+0003	 1.73936144098124E-0001	
 1.37650000000000E+0003	 1.74699051832612E-0001	
 1.37850000000000E+0003	 1.75348459567100E-0001	
 1.38050000000000E+0003	 1.75907367301587E-0001	
 1.38250000000000E+0003	 1.76521275036075E-0001	
 1.38450000000000E+0003	 1.76965682770563E-0001	
 1.38650000000000E+0003	 1.76923590505051E-0001	
 1.38850000000000E+0003	 1.77059498239538E-0001	
 1.39050000000000E+0003	 1.77897905974026E-0001	
 1.39250000000000E+0003	 1.78788813708514E-0001	
 1.39450000000000E+0003	 1.79604721443001E-0001	
 1.39650000000000E+0003	 1.80724129177489E-0001	
 1.39850000000000E+0003	 1.82034036911977E-0001	
 1.40050000000000E+0003	 1.83193444646465E-0001	
 1.40250000000000E+0003	 1.83955852380952E-0001	
 1.40450000000000E+0003	 1.84329260115440E-0001	
 1.40650000000000E+0003	 1.84260167849928E-0001	
 1.40850000000000E+0003	 1.84061575584416E-0001	
 1.41050000000000E+0003	 1.83722483318903E-0001	
 1.41250000000000E+0003	 1.83240391053391E-0001	
 1.41450000000000E+0003	 1.82656298787879E-0001	
 1.41650000000000E+0003	 1.81611706522367E-0001	
 1.41850000000000E+0003	 1.79901614256854E-0001	
 1.42050000000000E+0003	 1.78376021991342E-0001	
 1.42250000000000E+0003	 1.77943929725830E-0001	
 1.42450000000000E+0003	 1.77168337460317E-0001	
 1.42650000000000E+0003	 1.75646245194805E-0001	
 1.42850000000000E+0003	 1.74332652929293E-0001	
 1.43050000000000E+0003	 1.73350560663781E-0001	
 1.43250000000000E+0003	 1.72802468398268E-0001	
 1.43450000000000E+0003	 1.72430376132756E-0001	
 1.43650000000000E+0003	 1.72203783867244E-0001	
 1.43850000000000E+0003	 1.73122691601732E-0001	
 1.44050000000000E+0003	 1.74967099336219E-0001	
 1.44250000000000E+0003	 1.76367507070707E-0001	
 1.44450000000000E+0003	 1.77189414805195E-0001	
 1.44650000000000E+0003	 1.77923822539683E-0001	
 1.44850000000000E+0003	 1.78649230274170E-0001	
 1.45050000000000E+0003	 1.79403638008658E-0001	
 1.45250000000000E+0003	 1.80017545743146E-0001	
 1.45450000000000E+0003	 1.79265453477633E-0001	
 1.45650000000000E+0003	 1.76861361212121E-0001	
 1.45850000000000E+0003	 1.75005768946609E-0001	
 1.46050000000000E+0003	 1.74407676681097E-0001	
 1.46250000000000E+0003	 1.73119084415584E-0001	
 1.46450000000000E+0003	 1.70641492150072E-0001	
 1.46650000000000E+0003	 1.68038399884560E-0001	
 1.46850000000000E+0003	 1.65709807619048E-0001	
 1.47050000000000E+0003	 1.62306715353535E-0001	
 1.47250000000000E+0003	 1.57401123088023E-0001	
 1.47450000000000E+0003	 1.52989530822511E-0001	
 1.47650000000000E+0003	 1.50542938556999E-0001	
 1.47850000000000E+0003	 1.48729846291486E-0001	
 1.48050000000000E+0003	 1.47367754025974E-0001	
 1.48250000000000E+0003	 1.46418661760462E-0001	
 1.48450000000000E+0003	 1.45836569494949E-0001	
 1.48650000000000E+0003	 1.45745477229437E-0001	
 1.48850000000000E+0003	 1.46007884963925E-0001	
 1.49050000000000E+0003	 1.47057792698413E-0001	
 1.49250000000000E+0003	 1.48763200432900E-0001	
 1.49450000000000E+0003	 1.50606108167388E-0001	
 1.49650000000000E+0003	 1.52542015901876E-0001	
 1.49850000000000E+0003	 1.55412423636364E-0001	
 1.50050000000000E+0003	 1.58807831370851E-0001	
 1.50250000000000E+0003	 1.61971739105339E-0001	
 1.50450000000000E+0003	 1.63972646839827E-0001	
 1.50650000000000E+0003	 1.67275554574315E-0001	
 1.50850000000000E+0003	 1.72895462308802E-0001	
 1.51050000000000E+0003	 1.79517370043290E-0001	
 1.51250000000000E+0003	 1.86112777777778E-0001	
 1.51450000000000E+0003	 1.91959685512266E-0001	
 1.51650000000000E+0003	 1.97237593246753E-0001	
 1.51850000000000E+0003	 2.00951000981241E-0001	
 1.52050000000000E+0003	 2.03487908715729E-0001	
 1.52250000000000E+0003	 2.07630316450216E-0001	
 1.52450000000000E+0003	 2.12726224184704E-0001	
 1.52650000000000E+0003	 2.18336631919192E-0001	
 1.52850000000000E+0003	 2.23814539653680E-0001	
 1.53050000000000E+0003	 2.28655947388167E-0001	
 1.53250000000000E+0003	 2.33198355122655E-0001	
 1.53450000000000E+0003	 2.38072762857143E-0001	
 1.53650000000000E+0003	 2.41715170591631E-0001	
 1.53850000000000E+0003	 2.44273578326118E-0001	
 1.54050000000000E+0003	 2.47751486060606E-0001	
 1.54250000000000E+0003	 2.51592893795094E-0001	
 1.54450000000000E+0003	 2.55342801529582E-0001	
 1.54650000000000E+0003	 2.57657709264069E-0001	
 1.54850000000000E+0003	 2.58213116998557E-0001	
 1.55050000000000E+0003	 2.56866524733045E-0001	
 1.55250000000000E+0003	 2.53514432467532E-0001	
 1.55450000000000E+0003	 2.48712340202020E-0001	
 1.55650000000000E+0003	 2.42926747936508E-0001	
 1.55850000000000E+0003	 2.36082155670996E-0001	
 1.56050000000000E+0003	 2.28808563405483E-0001	
 1.56250000000000E+0003	 2.25856971139971E-0001	
 1.56450000000000E+0003	 2.24039878874459E-0001	
 1.56650000000000E+0003	 2.20002286608947E-0001	
 1.56850000000000E+0003	 2.15792194343434E-0001	
 1.57050000000000E+0003	 2.11625602077922E-0001	
 1.57250000000000E+0003	 2.08015009812410E-0001	
 1.57450000000000E+0003	 2.04340417546898E-0001	
 1.57650000000000E+0003	 1.99835325281385E-0001	
 1.57850000000000E+0003	 1.96873733015873E-0001	
 1.58050000000000E+0003	 1.95575640750361E-0001	
 1.58250000000000E+0003	 1.93576548484848E-0001	
 1.58450000000000E+0003	 1.91700456219336E-0001	
 1.58650000000000E+0003	 1.90439863953824E-0001	
 1.58850000000000E+0003	 1.90007771688312E-0001	
 1.59050000000000E+0003	 1.90292179422799E-0001	
 1.59250000000000E+0003	 1.91391087157287E-0001	
 1.59450000000000E+0003	 1.93103494891775E-0001	
 1.59650000000000E+0003	 1.95380902626263E-0001	
 1.59850000000000E+0003	 1.98010310360750E-0001	
 1.60050000000000E+0003	 2.01203218095238E-0001	
 1.60250000000000E+0003	 2.04855125829726E-0001	
 1.60450000000000E+0003	 2.09051533564214E-0001	
 1.60650000000000E+0003	 2.13714941298701E-0001	
 1.60850000000000E+0003	 2.19200849033189E-0001	
 1.61050000000000E+0003	 2.25387756767677E-0001	
 1.61250000000000E+0003	 2.32192664502165E-0001	
 1.61450000000000E+0003	 2.38642072236652E-0001	
 1.61650000000000E+0003	 2.46207479971140E-0001	
 1.61850000000000E+0003	 2.55707387705628E-0001	
 1.62050000000000E+0003	 2.65591295440115E-0001	
 1.62250000000000E+0003	 2.75968203174603E-0001	
 1.62450000000000E+0003	 2.87049610909091E-0001	
 1.62650000000000E+0003	 2.97900518643579E-0001	
 1.62850000000000E+0003	 3.09350426378066E-0001	
 1.63050000000000E+0003	 3.20250334112554E-0001	
 1.63250000000000E+0003	 3.29599741847042E-0001	
 1.63450000000000E+0003	 3.37851149581530E-0001	
 1.63650000000000E+0003	 3.46520057316017E-0001	
 1.63850000000000E+0003	 3.53717465050505E-0001	
 1.64050000000000E+0003	 3.59539372784993E-0001	
 1.64250000000000E+0003	 3.63765280519481E-0001	
 1.64450000000000E+0003	 3.66397688253968E-0001	
 1.64650000000000E+0003	 3.69607595988456E-0001	
 1.64850000000000E+0003	 3.73541003722944E-0001	
 1.65050000000000E+0003	 3.75606411457431E-0001	
 1.65250000000000E+0003	 3.76189819191919E-0001	
 1.65450000000000E+0003	 3.78124226926407E-0001	
 1.65650000000000E+0003	 3.80215634660895E-0001	
 1.65850000000000E+0003	 3.80647542395382E-0001	
 1.66050000000000E+0003	 3.77381950129870E-0001	
 1.66250000000000E+0003	 3.72084357864358E-0001	
 1.66450000000000E+0003	 3.65639265598846E-0001	
 1.66650000000000E+0003	 3.59533673333333E-0001	
 1.66850000000000E+0003	 3.52914081067821E-0001	
 1.67050000000000E+0003	 3.45596988802309E-0001	
 1.67250000000000E+0003	 3.38958896536797E-0001	
 1.67450000000000E+0003	 3.32678804271284E-0001	
 1.67650000000000E+0003	 3.25813212005772E-0001	
 1.67850000000000E+0003	 3.20194119740260E-0001	
 1.68050000000000E+0003	 3.14851527474747E-0001	
 1.68250000000000E+0003	 3.08218435209235E-0001	
 1.68450000000000E+0003	 3.00028842943723E-0001	
 1.68650000000000E+0003	 2.92718250678211E-0001	
 1.68850000000000E+0003	 2.88649158412698E-0001	
 1.69050000000000E+0003	 2.83139566147186E-0001	
 1.69250000000000E+0003	 2.76299473881674E-0001	
 1.69450000000000E+0003	 2.68529381616162E-0001	
 1.69650000000000E+0003	 2.59883789350649E-0001	
 1.69850000000000E+0003	 2.53188697085137E-0001	
 1.70050000000000E+0003	 2.47144604819625E-0001	
 1.70250000000000E+0003	 2.41734512554113E-0001	
 1.70450000000000E+0003	 2.39131920288600E-0001	
 1.70650000000000E+0003	 2.35438328023088E-0001	
 1.70850000000000E+0003	 2.31009235757576E-0001	
 1.71050000000000E+0003	 2.26952143492063E-0001	
 1.71250000000000E+0003	 2.22342051226551E-0001	
 1.71450000000000E+0003	 2.16801458961039E-0001	
 1.71650000000000E+0003	 2.09788366695527E-0001	
 1.71850000000000E+0003	 2.02638774430014E-0001	
 1.72050000000000E+0003	 1.97106682164502E-0001	
 1.72250000000000E+0003	 1.92451089898990E-0001	
 1.72450000000000E+0003	 1.86979497633478E-0001	
 1.72650000000000E+0003	 1.81679905367965E-0001	
 1.72850000000000E+0003	 1.77052813102453E-0001	
 1.73050000000000E+0003	 1.72743720836941E-0001	
 1.73250000000000E+0003	 1.67922128571429E-0001	
 1.73450000000000E+0003	 1.63488536305916E-0001	
 1.73650000000000E+0003	 1.61075444040404E-0001	
 1.73850000000000E+0003	 1.60555851774892E-0001	
 1.74050000000000E+0003	 1.59072259509380E-0001	
 1.74250000000000E+0003	 1.57189667243867E-0001	
 1.74450000000000E+0003	 1.55575074978355E-0001	
 1.74650000000000E+0003	 1.53640482712843E-0001	
 1.74850000000000E+0003	 1.51264890447330E-0001	
 1.75050000000000E+0003	 1.48063298181818E-0001	
 1.75250000000000E+0003	 1.45002205916306E-0001	
 1.75450000000000E+0003	 1.43024113650794E-0001	
 1.75650000000000E+0003	 1.40958021385281E-0001	
 1.75850000000000E+0003	 1.38270429119769E-0001	
 1.76050000000000E+0003	 1.35743836854257E-0001	
 1.76250000000000E+0003	 1.33430744588745E-0001	
 1.76450000000000E+0003	 1.31318152323232E-0001	
 1.76650000000000E+0003	 1.29575060057720E-0001	
 1.76850000000000E+0003	 1.27530467792208E-0001	
 1.77050000000000E+0003	 1.25612375526696E-0001	
 1.77250000000000E+0003	 1.23873283261183E-0001	
 1.77450000000000E+0003	 1.22373690995671E-0001	
 1.77650000000000E+0003	 1.21929098730159E-0001	
 1.77850000000000E+0003	 1.21263506464646E-0001	
 1.78050000000000E+0003	 1.20248414199134E-0001	
 1.78250000000000E+0003	 1.19061321933622E-0001	
 1.78450000000000E+0003	 1.17903229668110E-0001	
 1.78650000000000E+0003	 1.16972637402597E-0001	
 1.78850000000000E+0003	 1.16119545137085E-0001	
 1.79050000000000E+0003	 1.15090452871573E-0001	
 1.79250000000000E+0003	 1.13869360606061E-0001	
 1.79450000000000E+0003	 1.12906268340548E-0001	
 1.79650000000000E+0003	 1.12585676075036E-0001	
 1.79850000000000E+0003	 1.12138583809524E-0001	
 1.80050000000000E+0003	 1.11313991544012E-0001	
 1.80250000000000E+0003	 1.10433399278499E-0001	
 1.80450000000000E+0003	 1.09831807012987E-0001	
 1.80650000000000E+0003	 1.09358214747475E-0001	
 1.80850000000000E+0003	 1.08745122481962E-0001	
 1.81050000000000E+0003	 1.08139030216450E-0001	
 1.81250000000000E+0003	 1.07492437950938E-0001	
 1.81450000000000E+0003	 1.06898345685426E-0001	
 1.81650000000000E+0003	 1.06398753419913E-0001	
 1.81850000000000E+0003	 1.05856161154401E-0001	
 1.82050000000000E+0003	 1.05335568888889E-0001	
 1.82250000000000E+0003	 1.04758476623377E-0001	
 1.82450000000000E+0003	 1.04171884357864E-0001	
 1.82650000000000E+0003	 1.03525292092352E-0001	
 1.82850000000000E+0003	 1.03016699826840E-0001	
 1.83050000000000E+0003	 1.02715607561328E-0001	
 1.83250000000000E+0003	 1.02101015295815E-0001	
 1.83450000000000E+0003	 1.01891423030303E-0001	
 1.83650000000000E+0003	 1.01671830764791E-0001	
 1.83850000000000E+0003	 1.01287738499278E-0001	
 1.84050000000000E+0003	 1.00763146233766E-0001	
 1.84250000000000E+0003	 9.99890539682540E-0002	
 1.84450000000000E+0003	 9.92544617027417E-0002	
 1.84650000000000E+0003	 9.88528694372294E-0002	
 1.84850000000000E+0003	 9.90617771717172E-0002	
 1.85050000000000E+0003	 9.90791849062049E-0002	
 1.85250000000000E+0003	 9.88440926406926E-0002	
 1.85450000000000E+0003	 9.85735003751804E-0002	
 1.85650000000000E+0003	 9.82699081096681E-0002	
 1.85850000000000E+0003	 9.79728158441558E-0002	
 1.86050000000000E+0003	 9.76722235786436E-0002	
 1.86250000000000E+0003	 9.73921313131313E-0002	
 1.86450000000000E+0003	 9.71075390476190E-0002	
 1.86650000000000E+0003	 9.67669467821068E-0002	
 1.86850000000000E+0003	 9.64133545165945E-0002	
 1.87050000000000E+0003	 9.59817622510823E-0002	
 1.87250000000000E+0003	 9.58321699855700E-0002	
 1.87450000000000E+0003	 9.59225777200577E-0002	
 1.87650000000000E+0003	 9.57924854545455E-0002	
 1.87850000000000E+0003	 9.55803931890332E-0002	
 1.88050000000000E+0003	 9.53768009235209E-0002	
 1.88250000000000E+0003	 9.51767086580087E-0002	
 1.88450000000000E+0003	 9.50036163924964E-0002	
 1.88650000000000E+0003	 9.47545241269841E-0002	
 1.88850000000000E+0003	 9.45404318614719E-0002	
 1.89050000000000E+0003	 9.43528395959596E-0002	
 1.89250000000000E+0003	 9.40982473304473E-0002	
 1.89450000000000E+0003	 9.40446550649351E-0002	
 1.89650000000000E+0003	 9.39315627994228E-0002	
 1.89850000000000E+0003	 9.37524705339105E-0002	
 1.90050000000000E+0003	 9.36368782683983E-0002	
 1.90250000000000E+0003	 9.34982860028860E-0002	
 1.90450000000000E+0003	 9.33536937373737E-0002	
 1.90650000000000E+0003	 9.31936014718615E-0002	
 1.90850000000000E+0003	 9.30545092063492E-0002	
 1.91050000000000E+0003	 9.29324169408369E-0002	
 1.91250000000000E+0003	 9.27948246753247E-0002	
 1.91450000000000E+0003	 9.26587324098124E-0002	
 1.91650000000000E+0003	 9.24221401443001E-0002	
 1.91850000000000E+0003	 9.22280478787879E-0002	
 1.92050000000000E+0003	 9.20409556132756E-0002	
 1.92250000000000E+0003	 9.21468633477633E-0002	
 1.92450000000000E+0003	 9.21507710822511E-0002	
 1.92650000000000E+0003	 9.20646788167388E-0002	
 1.92850000000000E+0003	 9.20600865512266E-0002	
 1.93050000000000E+0003	 9.20004942857143E-0002	
 1.93250000000000E+0003	 9.19199020202020E-0002	
 1.93450000000000E+0003	 9.18443097546898E-0002	
 1.93650000000000E+0003	 9.17657174891775E-0002	
 1.93850000000000E+0003	 9.16831252236652E-0002	
 1.94050000000000E+0003	 9.15480329581530E-0002	
 1.94250000000000E+0003	 9.14909406926407E-0002	
 1.94450000000000E+0003	 9.13853484271284E-0002	
 1.94650000000000E+0003	 9.13697561616162E-0002	
 1.94850000000000E+0003	 9.14011638961039E-0002	
 1.95050000000000E+0003	 9.13635716305916E-0002	
 1.95250000000000E+0003	 9.13294793650794E-0002	
 1.95450000000000E+0003	 9.12898870995671E-0002	
 1.95650000000000E+0003	 9.12602948340548E-0002	
 1.95850000000000E+0003	 9.12197025685426E-0002	
 1.96050000000000E+0003	 9.11901103030303E-0002	
 1.96250000000000E+0003	 9.11570180375180E-0002	
 1.96450000000000E+0003	 9.10934257720058E-0002	
 1.96650000000000E+0003	 9.10538335064935E-0002	
 1.96850000000000E+0003	 9.10162412409812E-0002	
 1.97050000000000E+0003	 9.09801489754690E-0002	
 1.97250000000000E+0003	 9.10100567099567E-0002	
 1.97450000000000E+0003	 9.10024644444444E-0002	
 1.97650000000000E+0003	 9.09803721789322E-0002	
 1.97850000000000E+0003	 9.09537799134199E-0002	
 1.98050000000000E+0003	 9.09291876479076E-0002	
 1.98250000000000E+0003	 9.09055953823954E-0002	
 1.98450000000000E+0003	 9.08835031168831E-0002	
 1.98650000000000E+0003	 9.08564108513709E-0002	
 1.98850000000000E+0003	 9.08168185858586E-0002	
 1.99050000000000E+0003	 9.07557263203463E-0002	
 1.99250000000000E+0003	 9.07496340548341E-0002	
 1.99450000000000E+0003	 9.07295417893218E-0002	
 1.99650000000000E+0003	 9.07824495238095E-0002	
 1.99850000000000E+0003	 9.08408572582973E-0002	
 2.00050000000000E+0003	 9.08432649927850E-0002	
 2.00250000000000E+0003	 9.08506727272727E-0002	
 2.00450000000000E+0003	 9.08635804617605E-0002	
 2.00650000000000E+0003	 9.08809881962482E-0002	
 2.00850000000000E+0003	 9.09013959307359E-0002	
 2.01050000000000E+0003	 9.09278036652237E-0002	
 2.01250000000000E+0003	 9.09552113997114E-0002	
 2.01450000000000E+0003	 9.09686191341991E-0002	
 2.01650000000000E+0003	 9.09910268686869E-0002	
 2.01850000000000E+0003	 9.10189346031746E-0002	
 2.02050000000000E+0003	 9.10613423376623E-0002	
 2.02250000000000E+0003	 9.11467500721501E-0002	
 2.02450000000000E+0003	 9.12086578066378E-0002	
 2.02650000000000E+0003	 9.12625655411255E-0002	
 2.02850000000000E+0003	 9.13119732756133E-0002	
 2.03050000000000E+0003	 9.13603810101010E-0002	
 2.03250000000000E+0003	 9.14067887445887E-0002	
 2.03450000000000E+0003	 9.14546964790765E-0002	
 2.03650000000000E+0003	 9.14971042135642E-0002	
 2.03850000000000E+0003	 9.15300119480519E-0002	
 2.04050000000000E+0003	 9.15614196825397E-0002	
 2.04250000000000E+0003	 9.15998274170274E-0002	
 2.04450000000000E+0003	 9.16397351515152E-0002	
 2.04650000000000E+0003	 9.16896428860029E-0002	
 2.04850000000000E+0003	 9.17270506204906E-0002	
 2.05050000000000E+0003	 9.17584583549784E-0002	
 2.05250000000000E+0003	 9.17833660894661E-0002	
 2.05450000000000E+0003	 9.18062738239538E-0002	
 2.05650000000000E+0003	 9.18276815584416E-0002	
 2.05850000000000E+0003	 9.18485892929293E-0002	
 2.06050000000000E+0003	 9.18684970274170E-0002	
 2.06250000000000E+0003	 9.18699047619048E-0002	
 2.06450000000000E+0003	 9.18773124963925E-0002	
 2.06650000000000E+0003	 9.18887202308802E-0002	
 2.06850000000000E+0003	 9.19081279653680E-0002	
 2.07050000000000E+0003	 9.19395356998557E-0002	
 2.07250000000000E+0003	 9.19574434343434E-0002	
 2.07450000000000E+0003	 9.19678511688312E-0002	
 2.07650000000000E+0003	 9.19777589033189E-0002	
 2.07850000000000E+0003	 9.19841666378066E-0002	
 2.08050000000000E+0003	 9.19965743722944E-0002	
 2.08250000000000E+0003	 9.20004821067821E-0002	
 2.08450000000000E+0003	 9.20048898412698E-0002	
 2.08650000000000E+0003	 9.20052975757576E-0002	
 2.08850000000000E+0003	 9.20072053102453E-0002	
 2.09050000000000E+0003	 9.20096130447330E-0002	
 2.09250000000000E+0003	 9.20130207792208E-0002	
 2.09450000000000E+0003	 9.20179285137085E-0002	
 2.09650000000000E+0003	 9.20198362481962E-0002	
 2.09850000000000E+0003	 9.20147439826840E-0002	
 2.10050000000000E+0003	 9.20086517171717E-0002	
 2.10250000000000E+0003	 9.20015594516595E-0002	
 2.10450000000000E+0003	 9.19879671861472E-0002	
 2.10650000000000E+0003	 9.19738749206349E-0002	
 2.10850000000000E+0003	 9.19567826551227E-0002	
 2.11050000000000E+0003	 9.19441903896104E-0002	
 2.11250000000000E+0003	 9.19185981240981E-0002	
 2.11450000000000E+0003	 9.18925058585859E-0002	
 2.11650000000000E+0003	 9.18684135930736E-0002	
 2.11850000000000E+0003	 9.18528213275613E-0002	
 2.12050000000000E+0003	 9.18312290620491E-0002	
 2.12250000000000E+0003	 9.18081367965368E-0002	
 2.12450000000000E+0003	 9.17785445310245E-0002	
 2.12650000000000E+0003	 9.17544522655123E-0002	
 2.12850000000000E+0003	 9.17298600000000E-0002	
 2.13050000000000E+0003	 9.17032677344877E-0002	
 2.13250000000000E+0003	 9.16711754689755E-0002	
 2.13450000000000E+0003	 9.16440832034632E-0002	
 2.13650000000000E+0003	 9.16144909379509E-0002	
 2.13850000000000E+0003	 9.15793986724387E-0002	
 2.14050000000000E+0003	 9.15463064069264E-0002	
 2.14250000000000E+0003	 9.15162141414141E-0002	
 2.14450000000000E+0003	 9.14811218759019E-0002	
 2.14650000000000E+0003	 9.14430296103896E-0002	
 2.14850000000000E+0003	 9.14029373448773E-0002	
 2.15050000000000E+0003	 9.13593450793651E-0002	
 2.15250000000000E+0003	 9.13112528138528E-0002	
 2.15450000000000E+0003	 9.12561605483405E-0002	
 2.15650000000000E+0003	 9.12020682828283E-0002	
 2.15850000000000E+0003	 9.11479760173160E-0002	
 2.16050000000000E+0003	 9.10888837518038E-0002	
 2.16250000000000E+0003	 9.10262914862915E-0002	
 2.16450000000000E+0003	 9.09621992207792E-0002	
 2.16650000000000E+0003	 9.08981069552670E-0002	
 2.16850000000000E+0003	 9.08360146897547E-0002	
 2.17050000000000E+0003	 9.07634224242424E-0002	
 2.17250000000000E+0003	 9.06728301587302E-0002	
 2.17450000000000E+0003	 9.05902378932179E-0002	
 2.17650000000000E+0003	 9.05156456277056E-0002	
 2.17850000000000E+0003	 9.04390533621934E-0002	
 2.18050000000000E+0003	 9.03624610966811E-0002	
 2.18250000000000E+0003	 9.02893688311688E-0002	
 2.18450000000000E+0003	 9.02132765656566E-0002	
 2.18650000000000E+0003	 9.01341843001443E-0002	
 2.18850000000000E+0003	 9.00595920346320E-0002	
 2.19050000000000E+0003	 8.99899997691198E-0002	
 2.19250000000000E+0003	 8.99214075036075E-0002	
 2.19450000000000E+0003	 8.98488152380952E-0002	
 2.19650000000000E+0003	 8.97787229725830E-0002	
 2.19850000000000E+0003	 8.97046307070707E-0002	
 2.20050000000000E+0003	 8.96340384415584E-0002	
 2.20250000000000E+0003	 8.95639461760462E-0002	
 2.20450000000000E+0003	 8.94968539105339E-0002	
 2.20650000000000E+0003	 8.94242616450216E-0002	
 2.20850000000000E+0003	 8.93541693795094E-0002	
 2.21050000000000E+0003	 8.92845771139971E-0002	
 2.21250000000000E+0003	 8.92169848484848E-0002	
 2.21450000000000E+0003	 8.91478925829726E-0002	
 2.21650000000000E+0003	 8.90848003174603E-0002	
 2.21850000000000E+0003	 8.90202080519481E-0002	
 2.22050000000000E+0003	 8.89556157864358E-0002	
 2.22250000000000E+0003	 8.88880235209235E-0002	
 2.22450000000000E+0003	 8.88209312554113E-0002	
 2.22650000000000E+0003	 8.87578389898990E-0002	
 2.22850000000000E+0003	 8.86977467243867E-0002	
 2.23050000000000E+0003	 8.86431544588745E-0002	
 2.23250000000000E+0003	 8.85895621933622E-0002	
 2.23450000000000E+0003	 8.85374699278499E-0002	
 2.23650000000000E+0003	 8.84833776623377E-0002	
 2.23850000000000E+0003	 8.84317853968254E-0002	
 2.24050000000000E+0003	 8.83801931313131E-0002	
 2.24250000000000E+0003	 8.83281008658009E-0002	
 2.24450000000000E+0003	 8.82730086002886E-0002	
 2.24650000000000E+0003	 8.82254163347763E-0002	
 2.24850000000000E+0003	 8.81778240692641E-0002	
 2.25050000000000E+0003	 8.81332318037518E-0002	
 2.25250000000000E+0003	 8.80871395382395E-0002	
 2.25450000000000E+0003	 8.80415472727273E-0002	
 2.25650000000000E+0003	 8.79934550072150E-0002	
 2.25850000000000E+0003	 8.79498627417027E-0002	
 2.26050000000000E+0003	 8.79077704761905E-0002	
 2.26250000000000E+0003	 8.78641782106782E-0002	
 2.26450000000000E+0003	 8.78245859451659E-0002	
 2.26650000000000E+0003	 8.77909936796537E-0002	
 2.26850000000000E+0003	 8.77589014141414E-0002	
 2.27050000000000E+0003	 8.77223091486291E-0002	
 2.27250000000000E+0003	 8.76862168831169E-0002	
 2.27450000000000E+0003	 8.76511246176046E-0002	
 2.27650000000000E+0003	 8.76195323520924E-0002	
 2.27850000000000E+0003	 8.75849400865801E-0002	
 2.28050000000000E+0003	 8.75568478210678E-0002	
 2.28250000000000E+0003	 8.75327555555556E-0002	
 2.28450000000000E+0003	 8.75111632900433E-0002	
 2.28650000000000E+0003	 8.74730710245310E-0002	
 2.28850000000000E+0003	 8.74374787590188E-0002	
 2.29050000000000E+0003	 8.74068864935065E-0002	
 2.29250000000000E+0003	 8.73772942279942E-0002	
 2.29450000000000E+0003	 8.73427019624820E-0002	
 2.29650000000000E+0003	 8.73086096969697E-0002	
 2.29850000000000E+0003	 8.72795174314574E-0002	
 2.30050000000000E+0003	 8.72579251659452E-0002	
 2.30250000000000E+0003	 8.72493329004329E-0002	
 2.30450000000000E+0003	 8.72477406349206E-0002	
 2.30650000000000E+0003	 8.72326483694084E-0002	
 2.30850000000000E+0003	 8.72235561038961E-0002	
 2.31050000000000E+0003	 8.72364638383838E-0002	
 2.31250000000000E+0003	 8.72618715728716E-0002	
 2.31450000000000E+0003	 8.73147793073593E-0002	
 2.31650000000000E+0003	 8.73811870418470E-0002	
 2.31850000000000E+0003	 8.73920947763348E-0002	
 2.32050000000000E+0003	 8.73470025108225E-0002	
 2.32250000000000E+0003	 8.73229102453102E-0002	
 2.32450000000000E+0003	 8.73523179797980E-0002	
 2.32650000000000E+0003	 8.74482257142857E-0002	
 2.32850000000000E+0003	 8.74951334487734E-0002	
 2.33050000000000E+0003	 8.74535411832612E-0002	
 2.33250000000000E+0003	 8.75114489177489E-0002	
 2.33450000000000E+0003	 8.77048566522367E-0002	
 2.33650000000000E+0003	 8.78497643867244E-0002	
 2.33850000000000E+0003	 8.79021721212121E-0002	
 2.34050000000000E+0003	 8.78555798556999E-0002	
 2.34250000000000E+0003	 8.77224875901876E-0002	
 2.34450000000000E+0003	 8.74843953246753E-0002	
 2.34650000000000E+0003	 8.73793030591631E-0002	
 2.34850000000000E+0003	 8.79822107936508E-0002	
 2.35050000000000E+0003	 8.85136185281385E-0002	
 2.35250000000000E+0003	 8.82075262626263E-0002	
 2.35450000000000E+0003	 8.78849339971140E-0002	
 2.35650000000000E+0003	 8.78243417316017E-0002	
 2.35850000000000E+0003	 8.78257494660895E-0002	
 2.36050000000000E+0003	 8.78316572005772E-0002	
 2.36250000000000E+0003	 8.78340649350649E-0002	
 2.36450000000000E+0003	 8.77899726695527E-0002	
 2.36650000000000E+0003	 8.77533804040404E-0002	
 2.36850000000000E+0003	 8.77252881385281E-0002	
 2.37050000000000E+0003	 8.77151958730159E-0002	
 2.37250000000000E+0003	 8.77336036075036E-0002	
 2.37450000000000E+0003	 8.77840113419913E-0002	
 2.37650000000000E+0003	 8.78259190764791E-0002	
 2.37850000000000E+0003	 8.78553268109668E-0002	
 2.38050000000000E+0003	 8.78892345454545E-0002	
 2.38250000000000E+0003	 8.79531422799423E-0002	
 2.38450000000000E+0003	 8.80380500144300E-0002	
 2.38650000000000E+0003	 8.81259577489177E-0002	
 2.38850000000000E+0003	 8.82038654834055E-0002	
 2.39050000000000E+0003	 8.82712732178932E-0002	
 2.39250000000000E+0003	 8.83316809523810E-0002	
 2.39450000000000E+0003	 8.83940886868687E-0002	
 2.39650000000000E+0003	 8.84584964213564E-0002	
 2.39850000000000E+0003	 8.85259041558442E-0002	
 2.40050000000000E+0003	 8.86018118903319E-0002	
 2.40250000000000E+0003	 8.86827196248196E-0002	
 2.40450000000000E+0003	 8.87666273593074E-0002	
 2.40650000000000E+0003	 8.88495350937951E-0002	
 2.40850000000000E+0003	 8.89394428282828E-0002	
 2.41050000000000E+0003	 8.90323505627706E-0002	
 2.41250000000000E+0003	 8.91317582972583E-0002	
 2.41450000000000E+0003	 8.92296660317460E-0002	
 2.41650000000000E+0003	 8.93315737662338E-0002	
 2.41850000000000E+0003	 8.94384815007215E-0002	
 2.42050000000000E+0003	 8.95548892352092E-0002	
 2.42250000000000E+0003	 8.96682969696970E-0002	
 2.42450000000000E+0003	 8.97852047041847E-0002	
 2.42650000000000E+0003	 8.99056124386724E-0002	
 2.42850000000000E+0003	 9.00315201731602E-0002	
 2.43050000000000E+0003	 9.01584279076479E-0002	
 2.43250000000000E+0003	 9.02883356421356E-0002	
 2.43450000000000E+0003	 9.04202433766234E-0002	
 2.43650000000000E+0003	 9.05536511111111E-0002	
 2.43850000000000E+0003	 9.06860588455988E-0002	
 2.44050000000000E+0003	 9.08174665800866E-0002	
 2.44250000000000E+0003	 9.09513743145743E-0002	
 2.44450000000000E+0003	 9.10842820490620E-0002	
 2.44650000000000E+0003	 9.12201897835498E-0002	
 2.44850000000000E+0003	 9.13565975180375E-0002	
 2.45050000000000E+0003	 9.14940052525253E-0002	
 2.45250000000000E+0003	 9.16299129870130E-0002	
 2.45450000000000E+0003	 9.17718207215007E-0002	
 2.45650000000000E+0003	 9.19162284559885E-0002	
 2.45850000000000E+0003	 9.20656361904762E-0002	
 2.46050000000000E+0003	 9.22135439249639E-0002	
 2.46250000000000E+0003	 9.23699516594517E-0002	
 2.46450000000000E+0003	 9.25293593939394E-0002	
 2.46650000000000E+0003	 9.26877671284271E-0002	
 2.46850000000000E+0003	 9.28436748629149E-0002	
 2.47050000000000E+0003	 9.30040825974026E-0002	
 2.47250000000000E+0003	 9.31684903318903E-0002	
 2.47450000000000E+0003	 9.33333980663781E-0002	
 2.47650000000000E+0003	 9.34983058008658E-0002	
 2.47850000000000E+0003	 9.36632135353535E-0002	
 2.48050000000000E+0003	 9.38286212698413E-0002	
 2.48250000000000E+0003	 9.39895290043290E-0002	
 2.48450000000000E+0003	 9.41484367388167E-0002	
 2.48650000000000E+0003	 9.43073444733045E-0002	
 2.48850000000000E+0003	 9.44682522077922E-0002	
 2.49050000000000E+0003	 9.46261599422799E-0002	
 2.49250000000000E+0003	 9.47825676767677E-0002	
 2.49450000000000E+0003	 9.49379754112554E-0002	
 2.49650000000000E+0003	 9.50948831457431E-0002	
 2.49850000000000E+0003	 9.52507908802309E-0002	
 2.50050000000000E+0003	 9.54066986147186E-0002	
 2.50250000000000E+0003	 9.55561063492063E-0002	
 2.50450000000000E+0003	 9.57050140836941E-0002	
 2.50650000000000E+0003	 9.58589218181818E-0002	
 2.50850000000000E+0003	 9.60128295526696E-0002	
 2.51050000000000E+0003	 9.61617372871573E-0002	
 2.51250000000000E+0003	 9.63066450216450E-0002	
 2.51450000000000E+0003	 9.64485527561328E-0002	
 2.51650000000000E+0003	 9.65869604906205E-0002	
 2.51850000000000E+0003	 9.67248682251082E-0002	
 2.52050000000000E+0003	 9.68602759595960E-0002	
 2.52250000000000E+0003	 9.69976836940837E-0002	
 2.52450000000000E+0003	 9.71360914285714E-0002	
 2.52650000000000E+0003	 9.72759991630592E-0002	
 2.52850000000000E+0003	 9.74144068975469E-0002	
 2.53050000000000E+0003	 9.75553146320346E-0002	
 2.53250000000000E+0003	 9.76972223665224E-0002	
 2.53450000000000E+0003	 9.78376301010101E-0002	
 2.53650000000000E+0003	 9.79780378354978E-0002	
 2.53850000000000E+0003	 9.81204455699856E-0002	
 2.54050000000000E+0003	 9.82658533044733E-0002	
 2.54250000000000E+0003	 9.84107610389610E-0002	
 2.54450000000000E+0003	 9.85536687734488E-0002	
 2.54650000000000E+0003	 9.86955765079365E-0002	
 2.54850000000000E+0003	 9.88409842424242E-0002	
 2.55050000000000E+0003	 9.89863919769120E-0002	
 2.55250000000000E+0003	 9.91367997113997E-0002	
 2.55450000000000E+0003	 9.92877074458874E-0002	
 2.55650000000000E+0003	 9.94396151803752E-0002	
 2.55850000000000E+0003	 9.95915229148629E-0002	
 2.56050000000000E+0003	 9.97439306493506E-0002	
 2.56250000000000E+0003	 9.98953383838384E-0002	
 2.56450000000000E+0003	 1.00045246118326E-0001	
 2.56650000000000E+0003	 1.00195653852814E-0001	
 2.56850000000000E+0003	 1.00348061587302E-0001	
 2.57050000000000E+0003	 1.00504969321789E-0001	
 2.57250000000000E+0003	 1.00669877056277E-0001	
 2.57450000000000E+0003	 1.00843784790765E-0001	
 2.57650000000000E+0003	 1.01020192525253E-0001	
 2.57850000000000E+0003	 1.01201100259740E-0001	
 2.58050000000000E+0003	 1.01391507994228E-0001	
 2.58250000000000E+0003	 1.01586915728716E-0001	
 2.58450000000000E+0003	 1.01782323463203E-0001	
 2.58650000000000E+0003	 1.01985231197691E-0001	
 2.58850000000000E+0003	 1.02195638932179E-0001	
 2.59050000000000E+0003	 1.02411046666667E-0001	
 2.59250000000000E+0003	 1.02625954401154E-0001	
 2.59450000000000E+0003	 1.02845862135642E-0001	
 2.59650000000000E+0003	 1.03071769870130E-0001	
 2.59850000000000E+0003	 1.03300677604618E-0001	
 2.60050000000000E+0003	 1.03533585339105E-0001	
 2.60250000000000E+0003	 1.03772493073593E-0001	
 2.60450000000000E+0003	 1.04016900808081E-0001	
 2.60650000000000E+0003	 1.04263308542569E-0001	
 2.60850000000000E+0003	 1.04511216277056E-0001	
 2.61050000000000E+0003	 1.04760124011544E-0001	
 2.61250000000000E+0003	 1.05013031746032E-0001	
 2.61450000000000E+0003	 1.05269439480519E-0001	
 2.61650000000000E+0003	 1.05531847215007E-0001	
 2.61850000000000E+0003	 1.05793754949495E-0001	
 2.62050000000000E+0003	 1.06058662683983E-0001	
 2.62250000000000E+0003	 1.06326070418470E-0001	
 2.62450000000000E+0003	 1.06600978152958E-0001	
 2.62650000000000E+0003	 1.06874385887446E-0001	
 2.62850000000000E+0003	 1.07147793621934E-0001	
 2.63050000000000E+0003	 1.07423201356421E-0001	
 2.63250000000000E+0003	 1.07701609090909E-0001	
 2.63450000000000E+0003	 1.07982016825397E-0001	
 2.63650000000000E+0003	 1.08264924559885E-0001	
 2.63850000000000E+0003	 1.08551832294372E-0001	
 2.64050000000000E+0003	 1.08835240028860E-0001	
 2.64250000000000E+0003	 1.09120647763348E-0001	
 2.64450000000000E+0003	 1.09406555497835E-0001	
 2.64650000000000E+0003	 1.09693963232323E-0001	
 2.64850000000000E+0003	 1.09981370966811E-0001	
 2.65050000000000E+0003	 1.10272278701299E-0001	
 2.65250000000000E+0003	 1.10563686435786E-0001	
 2.65450000000000E+0003	 1.10858594170274E-0001	
 2.65650000000000E+0003	 1.11154001904762E-0001	
 2.65850000000000E+0003	 1.11451409639250E-0001	
 2.66050000000000E+0003	 1.11744317373737E-0001	
 2.66250000000000E+0003	 1.12039725108225E-0001	
 2.66450000000000E+0003	 1.12335632842713E-0001	
 2.66650000000000E+0003	 1.12635040577201E-0001	
 2.66850000000000E+0003	 1.12930448311688E-0001	
 2.67050000000000E+0003	 1.13228356046176E-0001	
 2.67250000000000E+0003	 1.13527263780664E-0001	
 2.67450000000000E+0003	 1.13825171515152E-0001	
 2.67650000000000E+0003	 1.14121079249639E-0001	
 2.67850000000000E+0003	 1.14420986984127E-0001	
 2.68050000000000E+0003	 1.14715394718615E-0001	
 2.68250000000000E+0003	 1.14997802453102E-0001	
 2.68450000000000E+0003	 1.15273710187590E-0001	
 2.68650000000000E+0003	 1.15555617922078E-0001	
 2.68850000000000E+0003	 1.15839525656566E-0001	
 2.69050000000000E+0003	 1.16120933391053E-0001	
 2.69250000000000E+0003	 1.16405341125541E-0001	
 2.69450000000000E+0003	 1.16692748860029E-0001	
 2.69650000000000E+0003	 1.16983656594517E-0001	
 2.69850000000000E+0003	 1.17276564329004E-0001	
 2.70050000000000E+0003	 1.17573472063492E-0001	
 2.70250000000000E+0003	 1.17878379797980E-0001	
 2.70450000000000E+0003	 1.18196287532468E-0001	
 2.70650000000000E+0003	 1.18522695266955E-0001	
 2.70850000000000E+0003	 1.18856103001443E-0001	
 2.71050000000000E+0003	 1.19198010735931E-0001	
 2.71250000000000E+0003	 1.19551918470418E-0001	
 2.71450000000000E+0003	 1.19918326204906E-0001	
 2.71650000000000E+0003	 1.20294233939394E-0001	
 2.71850000000000E+0003	 1.20671641673882E-0001	
 2.72050000000000E+0003	 1.21056549408369E-0001	
 2.72250000000000E+0003	 1.21449957142857E-0001	
 2.72450000000000E+0003	 1.21845864877345E-0001	
 2.72650000000000E+0003	 1.22242772611833E-0001	
 2.72850000000000E+0003	 1.22619680346320E-0001	
 2.73050000000000E+0003	 1.22986588080808E-0001	
 2.73250000000000E+0003	 1.23361495815296E-0001	
 2.73450000000000E+0003	 1.23738903549784E-0001	
 2.73650000000000E+0003	 1.24109811284271E-0001	
 2.73850000000000E+0003	 1.24470219018759E-0001	
 2.74050000000000E+0003	 1.24818626753247E-0001	
 2.74250000000000E+0003	 1.25164034487734E-0001	
 2.74450000000000E+0003	 1.25507942222222E-0001	
 2.74650000000000E+0003	 1.25860349956710E-0001	
 2.74850000000000E+0003	 1.26218257691198E-0001	
 2.75050000000000E+0003	 1.26559665425685E-0001	
 2.75250000000000E+0003	 1.26894573160173E-0001	
 2.75450000000000E+0003	 1.27243480894661E-0001	
 2.75650000000000E+0003	 1.27608388629149E-0001	
 2.75850000000000E+0003	 1.27977296363636E-0001	
 2.76050000000000E+0003	 1.28353704098124E-0001	
 2.76250000000000E+0003	 1.28742111832612E-0001	
 2.76450000000000E+0003	 1.29137019567100E-0001	
 2.76650000000000E+0003	 1.29536427301587E-0001	
 2.76850000000000E+0003	 1.29935335036075E-0001	
 2.77050000000000E+0003	 1.30339742770563E-0001	
 2.77250000000000E+0003	 1.30760150505051E-0001	
 2.77450000000000E+0003	 1.31200558239538E-0001	
 2.77650000000000E+0003	 1.31634465974026E-0001	
 2.77850000000000E+0003	 1.32062373708514E-0001	
 2.78050000000000E+0003	 1.32510281443001E-0001	
 2.78250000000000E+0003	 1.32981189177489E-0001	
 2.78450000000000E+0003	 1.33461596911977E-0001	
 2.78650000000000E+0003	 1.33956504646465E-0001	
 2.78850000000000E+0003	 1.34475412380952E-0001	
 2.79050000000000E+0003	 1.34996820115440E-0001	
 2.79250000000000E+0003	 1.35507227849928E-0001	
 2.79450000000000E+0003	 1.36034635584416E-0001	
 2.79650000000000E+0003	 1.36590043318903E-0001	
 2.79850000000000E+0003	 1.37157951053391E-0001	
 2.80050000000000E+0003	 1.37712358787879E-0001	
 2.80250000000000E+0003	 1.38271766522367E-0001	
 2.80450000000000E+0003	 1.38855674256854E-0001	
 2.80650000000000E+0003	 1.39453581991342E-0001	
 2.80850000000000E+0003	 1.40069989725830E-0001	
 2.81050000000000E+0003	 1.40703397460317E-0001	
 2.81250000000000E+0003	 1.41333805194805E-0001	
 2.81450000000000E+0003	 1.41971212929293E-0001	
 2.81650000000000E+0003	 1.42632620663781E-0001	
 2.81850000000000E+0003	 1.43315028398268E-0001	
 2.82050000000000E+0003	 1.44016936132756E-0001	
 2.82250000000000E+0003	 1.44739843867244E-0001	
 2.82450000000000E+0003	 1.45490251601732E-0001	
 2.82650000000000E+0003	 1.46270159336219E-0001	
 2.82850000000000E+0003	 1.47089567070707E-0001	
 2.83050000000000E+0003	 1.47961974805195E-0001	
 2.83250000000000E+0003	 1.48899382539683E-0001	
 2.83450000000000E+0003	 1.49918790274170E-0001	
 2.83650000000000E+0003	 1.51061198008658E-0001	
 2.83850000000000E+0003	 1.52383605743146E-0001	
 2.84050000000000E+0003	 1.53901013477633E-0001	
 2.84250000000000E+0003	 1.55722421212121E-0001	
 2.84450000000000E+0003	 1.58001328946609E-0001	
 2.84650000000000E+0003	 1.60768736681097E-0001	
 2.84850000000000E+0003	 1.63866644415584E-0001	
 2.85050000000000E+0003	 1.66925552150072E-0001	
 2.85250000000000E+0003	 1.69476959884560E-0001	
 2.85450000000000E+0003	 1.71185367619048E-0001	
 2.85650000000000E+0003	 1.72076775353535E-0001	
 2.85850000000000E+0003	 1.72505183088023E-0001	
 2.86050000000000E+0003	 1.72853090822511E-0001	
 2.86250000000000E+0003	 1.73386998556999E-0001	
 2.86450000000000E+0003	 1.74278406291486E-0001	
 2.86650000000000E+0003	 1.75538814025974E-0001	
 2.86850000000000E+0003	 1.77051221760462E-0001	
 2.87050000000000E+0003	 1.78657129494949E-0001	
 2.87250000000000E+0003	 1.80146537229437E-0001	
 2.87450000000000E+0003	 1.81239944963925E-0001	
 2.87650000000000E+0003	 1.81856852698413E-0001	
 2.87850000000000E+0003	 1.82186260432900E-0001	
 2.88050000000000E+0003	 1.82388668167388E-0001	
 2.88250000000000E+0003	 1.82580075901876E-0001	
 2.88450000000000E+0003	 1.82870983636364E-0001	
 2.88650000000000E+0003	 1.83318891370851E-0001	
 2.88850000000000E+0003	 1.83938799105339E-0001	
 2.89050000000000E+0003	 1.84716206839827E-0001	
 2.89250000000000E+0003	 1.85637114574315E-0001	
 2.89450000000000E+0003	 1.86698022308802E-0001	
 2.89650000000000E+0003	 1.87855930043290E-0001	
 2.89850000000000E+0003	 1.89069837777778E-0001	
 2.90050000000000E+0003	 1.90391745512266E-0001	
 2.90250000000000E+0003	 1.91867153246753E-0001	
 2.90450000000000E+0003	 1.93517560981241E-0001	
 2.90650000000000E+0003	 1.95371968715729E-0001	
 2.90850000000000E+0003	 1.97500376450216E-0001	
 2.91050000000000E+0003	 1.99967284184704E-0001	
 2.91250000000000E+0003	 2.02796191919192E-0001	
 2.91450000000000E+0003	 2.05898099653680E-0001	
 2.91650000000000E+0003	 2.09140007388167E-0001	
 2.91850000000000E+0003	 2.12394915122655E-0001	
 2.92050000000000E+0003	 2.15415822857143E-0001	
 2.92250000000000E+0003	 2.17961230591631E-0001	
 2.92450000000000E+0003	 2.19871138326118E-0001	
 2.92650000000000E+0003	 2.21122046060606E-0001	
 2.92850000000000E+0003	 2.21816953795094E-0001	
 2.93050000000000E+0003	 2.21993861529582E-0001	
 2.93250000000000E+0003	 2.21657769264069E-0001	
 2.93450000000000E+0003	 2.20902676998557E-0001	
 2.93650000000000E+0003	 2.19738584733045E-0001	
 2.93850000000000E+0003	 2.18168992467532E-0001	
 2.94050000000000E+0003	 2.16304900202020E-0001	
 2.94250000000000E+0003	 2.14352307936508E-0001	
 2.94450000000000E+0003	 2.12468215670996E-0001	
 2.94650000000000E+0003	 2.10781623405483E-0001	
 2.94850000000000E+0003	 2.09453531139971E-0001	
 2.95050000000000E+0003	 2.08663938874459E-0001	
 2.95250000000000E+0003	 2.08434346608947E-0001	
 2.95450000000000E+0003	 2.08521254343434E-0001	
 2.95650000000000E+0003	 2.08729162077922E-0001	
 2.95850000000000E+0003	 2.08876069812410E-0001	
 2.96050000000000E+0003	 2.08749477546898E-0001	
 2.96250000000000E+0003	 2.08210885281385E-0001	
 2.96450000000000E+0003	 2.07196793015873E-0001	
 2.96650000000000E+0003	 2.05742700750361E-0001	
 2.96850000000000E+0003	 2.03940608484848E-0001	
 2.97050000000000E+0003	 2.01997016219336E-0001	
 2.97250000000000E+0003	 2.00135423953824E-0001	
 2.97450000000000E+0003	 1.98359331688312E-0001	
 2.97650000000000E+0003	 1.96605239422799E-0001	
 2.97850000000000E+0003	 1.94936147157287E-0001	
 2.98050000000000E+0003	 1.93361554891775E-0001	
 2.98250000000000E+0003	 1.91829462626263E-0001	
 2.98450000000000E+0003	 1.90382370360750E-0001	
 2.98650000000000E+0003	 1.89088778095238E-0001	
 2.98850000000000E+0003	 1.87953185829726E-0001	
 2.99050000000000E+0003	 1.86997593564214E-0001	
 2.99250000000000E+0003	 1.86204001298701E-0001	
 2.99450000000000E+0003	 1.85512909033189E-0001	
 2.99650000000000E+0003	 1.85005316767677E-0001	
 2.99850000000000E+0003	 1.84708224502165E-0001	
 3.00050000000000E+0003	 1.84569132236652E-0001	
 3.00250000000000E+0003	 1.84619539971140E-0001	
 3.00450000000000E+0003	 1.84841947705628E-0001	
 3.00650000000000E+0003	 1.85192855440115E-0001	
 3.00850000000000E+0003	 1.85695763174603E-0001	
 3.01050000000000E+0003	 1.86372170909091E-0001	
 3.01250000000000E+0003	 1.87139578643579E-0001	
 3.01450000000000E+0003	 1.87907486378066E-0001	
 3.01650000000000E+0003	 1.88690394112554E-0001	
 3.01850000000000E+0003	 1.89570801847042E-0001	
 3.02050000000000E+0003	 1.90565709581530E-0001	
 3.02250000000000E+0003	 1.91662617316017E-0001	
 3.02450000000000E+0003	 1.92858525050505E-0001	
 3.02650000000000E+0003	 1.94075932784993E-0001	
 3.02850000000000E+0003	 1.95304840519481E-0001	
 3.03050000000000E+0003	 1.96570248253968E-0001	
 3.03250000000000E+0003	 1.97866655988456E-0001	
 3.03450000000000E+0003	 1.99175563722944E-0001	
 3.03650000000000E+0003	 2.00449471457431E-0001	
 3.03850000000000E+0003	 2.01746879191919E-0001	
 3.04050000000000E+0003	 2.03150786926407E-0001	
 3.04250000000000E+0003	 2.04589194660895E-0001	
 3.04450000000000E+0003	 2.05978102395382E-0001	
 3.04650000000000E+0003	 2.07338510129870E-0001	
 3.04850000000000E+0003	 2.08737417864358E-0001	
 3.05050000000000E+0003	 2.10205325598846E-0001	
 3.05250000000000E+0003	 2.11667233333333E-0001	
 3.05450000000000E+0003	 2.13109641067821E-0001	
 3.05650000000000E+0003	 2.14548048802309E-0001	
 3.05850000000000E+0003	 2.15936956536797E-0001	
 3.06050000000000E+0003	 2.17268364271284E-0001	
 3.06250000000000E+0003	 2.18561772005772E-0001	
 3.06450000000000E+0003	 2.19814679740260E-0001	
 3.06650000000000E+0003	 2.21026087474747E-0001	
 3.06850000000000E+0003	 2.22156995209235E-0001	
 3.07050000000000E+0003	 2.23201902943723E-0001	
 3.07250000000000E+0003	 2.24229810678211E-0001	
 3.07450000000000E+0003	 2.25265218412698E-0001	
 3.07650000000000E+0003	 2.26322126147186E-0001	
 3.07850000000000E+0003	 2.27383033881674E-0001	
 3.08050000000000E+0003	 2.28370441616162E-0001	
 3.08250000000000E+0003	 2.29303349350649E-0001	
 3.08450000000000E+0003	 2.30228257085137E-0001	
 3.08650000000000E+0003	 2.31112164819625E-0001	
 3.08850000000000E+0003	 2.31979572554113E-0001	
 3.09050000000000E+0003	 2.32851480288600E-0001	
 3.09250000000000E+0003	 2.33674888023088E-0001	
 3.09450000000000E+0003	 2.34477795757576E-0001	
 3.09650000000000E+0003	 2.35310703492063E-0001	
 3.09850000000000E+0003	 2.36174611226551E-0001	
 3.10050000000000E+0003	 2.37054518961039E-0001	
 3.10250000000000E+0003	 2.37924926695527E-0001	
 3.10450000000000E+0003	 2.38807334430014E-0001	
 3.10650000000000E+0003	 2.39756742164502E-0001	
 3.10850000000000E+0003	 2.40779149898990E-0001	
 3.11050000000000E+0003	 2.41796057633478E-0001	
 3.11250000000000E+0003	 2.42837465367965E-0001	
 3.11450000000000E+0003	 2.44004373102453E-0001	
 3.11650000000000E+0003	 2.45251280836941E-0001	
 3.11850000000000E+0003	 2.46496688571429E-0001	
 3.12050000000000E+0003	 2.47730096305916E-0001	
 3.12250000000000E+0003	 2.48943504040404E-0001	
 3.12450000000000E+0003	 2.50213411774892E-0001	
 3.12650000000000E+0003	 2.51591819509380E-0001	
 3.12850000000000E+0003	 2.53053727243867E-0001	
 3.13050000000000E+0003	 2.54541134978355E-0001	
 3.13250000000000E+0003	 2.56035042712843E-0001	
 3.13450000000000E+0003	 2.57582950447330E-0001	
 3.13650000000000E+0003	 2.59215358181818E-0001	
 3.13850000000000E+0003	 2.60917265916306E-0001	
 3.14050000000000E+0003	 2.62585673650794E-0001	
 3.14250000000000E+0003	 2.64207081385281E-0001	
 3.14450000000000E+0003	 2.65890989119769E-0001	
 3.14650000000000E+0003	 2.67653396854257E-0001	
 3.14850000000000E+0003	 2.69483304588745E-0001	
 3.15050000000000E+0003	 2.71425712323232E-0001	
 3.15250000000000E+0003	 2.73393620057720E-0001	
 3.15450000000000E+0003	 2.75232527792208E-0001	
 3.15650000000000E+0003	 2.77052435526696E-0001	
 3.15850000000000E+0003	 2.78970843261183E-0001	
 3.16050000000000E+0003	 2.80955250995671E-0001	
 3.16250000000000E+0003	 2.82968658730159E-0001	
 3.16450000000000E+0003	 2.85003066464646E-0001	
 3.16650000000000E+0003	 2.87054974199134E-0001	
 3.16850000000000E+0003	 2.89114381933622E-0001	
 3.17050000000000E+0003	 2.91183289668110E-0001	
 3.17250000000000E+0003	 2.93260197402597E-0001	
 3.17450000000000E+0003	 2.95338105137085E-0001	
 3.17650000000000E+0003	 2.97413012871573E-0001	
 3.17850000000000E+0003	 2.99492920606061E-0001	
 3.18050000000000E+0003	 3.01565828340548E-0001	
 3.18250000000000E+0003	 3.03618736075036E-0001	
 3.18450000000000E+0003	 3.05664143809524E-0001	
 3.18650000000000E+0003	 3.07702051544012E-0001	
 3.18850000000000E+0003	 3.09721459278499E-0001	
 3.19050000000000E+0003	 3.11710867012987E-0001	
 3.19250000000000E+0003	 3.13671274747475E-0001	
 3.19450000000000E+0003	 3.15603682481962E-0001	
 3.19650000000000E+0003	 3.17513590216450E-0001	
 3.19850000000000E+0003	 3.19408997950938E-0001	
 3.20050000000000E+0003	 3.21288905685426E-0001	
 3.20250000000000E+0003	 3.23144313419913E-0001	
 3.20450000000000E+0003	 3.24977721154401E-0001	
 3.20650000000000E+0003	 3.26792128888889E-0001	
 3.20850000000000E+0003	 3.28585536623377E-0001	
 3.21050000000000E+0003	 3.30372444357864E-0001	
 3.21250000000000E+0003	 3.32165852092352E-0001	
 3.21450000000000E+0003	 3.33956759826840E-0001	
 3.21650000000000E+0003	 3.35736167561328E-0001	
 3.21850000000000E+0003	 3.37518075295815E-0001	
 3.22050000000000E+0003	 3.39298483030303E-0001	
 3.22250000000000E+0003	 3.41067890764791E-0001	
 3.22450000000000E+0003	 3.42851298499278E-0001	
 3.22650000000000E+0003	 3.44656206233766E-0001	
 3.22850000000000E+0003	 3.46495113968254E-0001	
 3.23050000000000E+0003	 3.48410521702742E-0001	
 3.23250000000000E+0003	 3.50406429437229E-0001	
 3.23450000000000E+0003	 3.52315837171717E-0001	
 3.23650000000000E+0003	 3.54124744906205E-0001	
 3.23850000000000E+0003	 3.56009152640693E-0001	
 3.24050000000000E+0003	 3.57990060375180E-0001	
 3.24250000000000E+0003	 3.60027968109668E-0001	
 3.24450000000000E+0003	 3.62147875844156E-0001	
 3.24650000000000E+0003	 3.64323283578644E-0001	
 3.24850000000000E+0003	 3.66447691313131E-0001	
 3.25050000000000E+0003	 3.68547599047619E-0001	
 3.25250000000000E+0003	 3.70725506782107E-0001	
 3.25450000000000E+0003	 3.72990414516595E-0001	
 3.25650000000000E+0003	 3.75260322251082E-0001	
 3.25850000000000E+0003	 3.77487729985570E-0001	
 3.26050000000000E+0003	 3.79724637720058E-0001	
 3.26250000000000E+0003	 3.81973545454545E-0001	
 3.26450000000000E+0003	 3.84208953189033E-0001	
 3.26650000000000E+0003	 3.86419360923521E-0001	
 3.26850000000000E+0003	 3.88637768658009E-0001	
 3.27050000000000E+0003	 3.90825676392496E-0001	
 3.27250000000000E+0003	 3.92851084126984E-0001	
 3.27450000000000E+0003	 3.94739491861472E-0001	
 3.27650000000000E+0003	 3.96577399595960E-0001	
 3.27850000000000E+0003	 3.98344807330447E-0001	
 3.28050000000000E+0003	 4.00040215064935E-0001	
 3.28250000000000E+0003	 4.01658622799423E-0001	
 3.28450000000000E+0003	 4.03190530533911E-0001	
 3.28650000000000E+0003	 4.04626438268398E-0001	
 3.28850000000000E+0003	 4.05985846002886E-0001	
 3.29050000000000E+0003	 4.07297753737374E-0001	
 3.29250000000000E+0003	 4.08531161471861E-0001	
 3.29450000000000E+0003	 4.09632069206349E-0001	
 3.29650000000000E+0003	 4.10626976940837E-0001	
 3.29850000000000E+0003	 4.11536384675325E-0001	
 3.30050000000000E+0003	 4.12401792409812E-0001	
 3.30250000000000E+0003	 4.13280700144300E-0001	
 3.30450000000000E+0003	 4.14191107878788E-0001	
 3.30650000000000E+0003	 4.15008515613276E-0001	
 3.30850000000000E+0003	 4.15667423347763E-0001	
 3.31050000000000E+0003	 4.16244831082251E-0001	
 3.31250000000000E+0003	 4.16830738816739E-0001	
 3.31450000000000E+0003	 4.17454646551227E-0001	
 3.31650000000000E+0003	 4.18087054285714E-0001	
 3.31850000000000E+0003	 4.18715462020202E-0001	
 3.32050000000000E+0003	 4.19362369754690E-0001	
 3.32250000000000E+0003	 4.20029777489177E-0001	
 3.32450000000000E+0003	 4.20733185223665E-0001	
 3.32650000000000E+0003	 4.21420592958153E-0001	
 3.32850000000000E+0003	 4.22061500692641E-0001	
 3.33050000000000E+0003	 4.22720908427128E-0001	
 3.33250000000000E+0003	 4.23435316161616E-0001	
 3.33450000000000E+0003	 4.24189223896104E-0001	
 3.33650000000000E+0003	 4.25007131630592E-0001	
 3.33850000000000E+0003	 4.25834039365079E-0001	
 3.34050000000000E+0003	 4.26589947099567E-0001	
 3.34250000000000E+0003	 4.27331854834055E-0001	
 3.34450000000000E+0003	 4.28090762568543E-0001	
 3.34650000000000E+0003	 4.28861170303030E-0001	
 3.34850000000000E+0003	 4.29726578037518E-0001	
 3.35050000000000E+0003	 4.30616985772006E-0001	
 3.35250000000000E+0003	 4.31384893506494E-0001	
 3.35450000000000E+0003	 4.32101301240981E-0001	
 3.35650000000000E+0003	 4.32888708975469E-0001	
 3.35850000000000E+0003	 4.33730616709957E-0001	
 3.36050000000000E+0003	 4.34575524444444E-0001	
 3.36250000000000E+0003	 4.35380932178932E-0001	
 3.36450000000000E+0003	 4.36234839913420E-0001	
 3.36650000000000E+0003	 4.37192747647908E-0001	
 3.36850000000000E+0003	 4.38121155382395E-0001	
 3.37050000000000E+0003	 4.38841563116883E-0001	
 3.37250000000000E+0003	 4.39435470851371E-0001	
 3.37450000000000E+0003	 4.40114878585859E-0001	
 3.37650000000000E+0003	 4.40874786320346E-0001	
 3.37850000000000E+0003	 4.41622194054834E-0001	
 3.38050000000000E+0003	 4.42345601789322E-0001	
 3.38250000000000E+0003	 4.43033009523810E-0001	
 3.38450000000000E+0003	 4.43712917258297E-0001	
 3.38650000000000E+0003	 4.44414824992785E-0001	
 3.38850000000000E+0003	 4.45213232727273E-0001	
 3.39050000000000E+0003	 4.46103140461760E-0001	
 3.39250000000000E+0003	 4.46810048196248E-0001	
 3.39450000000000E+0003	 4.47265955930736E-0001	
 3.39650000000000E+0003	 4.47809863665224E-0001	
 3.39850000000000E+0003	 4.48612271399711E-0001	
 3.40050000000000E+0003	 4.49385679134199E-0001	
 3.40250000000000E+0003	 4.49761086868687E-0001	
 3.40450000000000E+0003	 4.49964994603175E-0001	
 3.40650000000000E+0003	 4.50352402337662E-0001	
 3.40850000000000E+0003	 4.50860810072150E-0001	
 3.41050000000000E+0003	 4.51304717806638E-0001	
 3.41250000000000E+0003	 4.51666625541126E-0001	
 3.41450000000000E+0003	 4.51902533275613E-0001	
 3.41650000000000E+0003	 4.52075941010101E-0001	
 3.41850000000000E+0003	 4.52283348744589E-0001	
 3.42050000000000E+0003	 4.52486256479076E-0001	
 3.42250000000000E+0003	 4.52608664213564E-0001	
 3.42450000000000E+0003	 4.52694571948052E-0001	
 3.42650000000000E+0003	 4.52805979682540E-0001	
 3.42850000000000E+0003	 4.52931387417027E-0001	
 3.43050000000000E+0003	 4.52944295151515E-0001	
 3.43250000000000E+0003	 4.52901702886003E-0001	
 3.43450000000000E+0003	 4.52897610620491E-0001	
 3.43650000000000E+0003	 4.52709018354978E-0001	
 3.43850000000000E+0003	 4.52226426089466E-0001	
 3.44050000000000E+0003	 4.51693333823954E-0001	
 3.44250000000000E+0003	 4.51257741558442E-0001	
 3.44450000000000E+0003	 4.50858649292929E-0001	
 3.44650000000000E+0003	 4.50438057027417E-0001	
 3.44850000000000E+0003	 4.49936464761905E-0001	
 3.45050000000000E+0003	 4.49358872496392E-0001	
 3.45250000000000E+0003	 4.48766780230880E-0001	
 3.45450000000000E+0003	 4.48134187965368E-0001	
 3.45650000000000E+0003	 4.47497595699856E-0001	
 3.45850000000000E+0003	 4.46887003434343E-0001	
 3.46050000000000E+0003	 4.46180911168831E-0001	
 3.46250000000000E+0003	 4.45338818903319E-0001	
 3.46450000000000E+0003	 4.44613226637807E-0001	
 3.46650000000000E+0003	 4.44062134372294E-0001	
 3.46850000000000E+0003	 4.43309542106782E-0001	
 3.47050000000000E+0003	 4.42087949841270E-0001	
 3.47250000000000E+0003	 4.40722857575758E-0001	
 3.47450000000000E+0003	 4.39547265310245E-0001	
 3.47650000000000E+0003	 4.38548673044733E-0001	
 3.47850000000000E+0003	 4.37618080779221E-0001	
 3.48050000000000E+0003	 4.36493488513709E-0001	
 3.48250000000000E+0003	 4.35147396248196E-0001	
 3.48450000000000E+0003	 4.33904303982684E-0001	
 3.48650000000000E+0003	 4.32738211717172E-0001	
 3.48850000000000E+0003	 4.31453619451659E-0001	
 3.49050000000000E+0003	 4.30111027186147E-0001	
 3.49250000000000E+0003	 4.28829434920635E-0001	
 3.49450000000000E+0003	 4.27578842655123E-0001	
 3.49650000000000E+0003	 4.26297250389610E-0001	
 3.49850000000000E+0003	 4.24933658124098E-0001	
 3.50050000000000E+0003	 4.23605065858586E-0001	
 3.50250000000000E+0003	 4.22248473593074E-0001	
 3.50450000000000E+0003	 4.20625881327561E-0001	
 3.50650000000000E+0003	 4.18931289062049E-0001	
 3.50850000000000E+0003	 4.17379696796537E-0001	
 3.51050000000000E+0003	 4.15925604531025E-0001	
 3.51250000000000E+0003	 4.14529012265512E-0001	
 3.51450000000000E+0003	 4.13014420000000E-0001	
 3.51650000000000E+0003	 4.11338327734488E-0001	
 3.51850000000000E+0003	 4.09677235468975E-0001	
 3.52050000000000E+0003	 4.08135143203463E-0001	
 3.52250000000000E+0003	 4.06687550937951E-0001	
 3.52450000000000E+0003	 4.05039958672439E-0001	
 3.52650000000000E+0003	 4.03144866406926E-0001	
 3.52850000000000E+0003	 4.01302774141414E-0001	
 3.53050000000000E+0003	 3.99548181875902E-0001	
 3.53250000000000E+0003	 3.97840589610390E-0001	
 3.53450000000000E+0003	 3.96204997344877E-0001	
 3.53650000000000E+0003	 3.94469905079365E-0001	
 3.53850000000000E+0003	 3.92511812813853E-0001	
 3.54050000000000E+0003	 3.90639720548341E-0001	
 3.54250000000000E+0003	 3.88952628282828E-0001	
 3.54450000000000E+0003	 3.87156036017316E-0001	
 3.54650000000000E+0003	 3.84977943751804E-0001	
 3.54850000000000E+0003	 3.82640351486291E-0001	
 3.55050000000000E+0003	 3.80471759220779E-0001	
 3.55250000000000E+0003	 3.78337666955267E-0001	
 3.55450000000000E+0003	 3.76123074689755E-0001	
 3.55650000000000E+0003	 3.73939482424242E-0001	
 3.55850000000000E+0003	 3.71789390158730E-0001	
 3.56050000000000E+0003	 3.69609297893218E-0001	
 3.56250000000000E+0003	 3.67316205627706E-0001	
 3.56450000000000E+0003	 3.64925613362193E-0001	
 3.56650000000000E+0003	 3.62506521096681E-0001	
 3.56850000000000E+0003	 3.60108428831169E-0001	
 3.57050000000000E+0003	 3.57691336565657E-0001	
 3.57250000000000E+0003	 3.55205744300144E-0001	
 3.57450000000000E+0003	 3.52678152034632E-0001	
 3.57650000000000E+0003	 3.50160059769120E-0001	
 3.57850000000000E+0003	 3.47664467503608E-0001	
 3.58050000000000E+0003	 3.45208875238095E-0001	
 3.58250000000000E+0003	 3.42796282972583E-0001	
 3.58450000000000E+0003	 3.40347190707071E-0001	
 3.58650000000000E+0003	 3.37594598441558E-0001	
 3.58850000000000E+0003	 3.34574006176046E-0001	
 3.59050000000000E+0003	 3.31730913910534E-0001	
 3.59250000000000E+0003	 3.29071821645022E-0001	
 3.59450000000000E+0003	 3.26316229379509E-0001	
 3.59650000000000E+0003	 3.23541637113997E-0001	
 3.59850000000000E+0003	 3.20841044848485E-0001	
 3.60050000000000E+0003	 3.18074952582973E-0001	
 3.60250000000000E+0003	 3.15260360317460E-0001	
 3.60450000000000E+0003	 3.12482768051948E-0001	
 3.60650000000000E+0003	 3.09633675786436E-0001	
 3.60850000000000E+0003	 3.06686583520924E-0001	
 3.61050000000000E+0003	 3.03760991255411E-0001	
 3.61250000000000E+0003	 3.00948898989899E-0001	
 3.61450000000000E+0003	 2.98162806724387E-0001	
 3.61650000000000E+0003	 2.95337714458874E-0001	
 3.61850000000000E+0003	 2.92507122193362E-0001	
 3.62050000000000E+0003	 2.89624529927850E-0001	
 3.62250000000000E+0003	 2.86721937662338E-0001	
 3.62450000000000E+0003	 2.83946345396825E-0001	
 3.62650000000000E+0003	 2.81161253131313E-0001	
 3.62850000000000E+0003	 2.78171660865801E-0001	
 3.63050000000000E+0003	 2.75101568600289E-0001	
 3.63250000000000E+0003	 2.72316476334776E-0001	
 3.63450000000000E+0003	 2.69676384069264E-0001	
 3.63650000000000E+0003	 2.66919291803752E-0001	
 3.63850000000000E+0003	 2.64183699538240E-0001	
 3.64050000000000E+0003	 2.61467107272727E-0001	
 3.64250000000000E+0003	 2.58812515007215E-0001	
 3.64450000000000E+0003	 2.56224422741703E-0001	
 3.64650000000000E+0003	 2.53663330476190E-0001	
 3.64850000000000E+0003	 2.51010238210678E-0001	
 3.65050000000000E+0003	 2.48357645945166E-0001	
 3.65250000000000E+0003	 2.45779553679654E-0001	
 3.65450000000000E+0003	 2.43308961414141E-0001	
 3.65650000000000E+0003	 2.40942369148629E-0001	
 3.65850000000000E+0003	 2.38615276883117E-0001	
 3.66050000000000E+0003	 2.36345184617605E-0001	
 3.66250000000000E+0003	 2.34000092352092E-0001	
 3.66450000000000E+0003	 2.31725000086580E-0001	
 3.66650000000000E+0003	 2.29633407821068E-0001	
 3.66850000000000E+0003	 2.27548815555556E-0001	
 3.67050000000000E+0003	 2.25509223290043E-0001	
 3.67250000000000E+0003	 2.23565631024531E-0001	
 3.67450000000000E+0003	 2.21737538759019E-0001	
 3.67650000000000E+0003	 2.19881946493506E-0001	
 3.67850000000000E+0003	 2.18077354227994E-0001	
 3.68050000000000E+0003	 2.16504261962482E-0001	
 3.68250000000000E+0003	 2.14957169696970E-0001	
 3.68450000000000E+0003	 2.13543077431457E-0001	
 3.68650000000000E+0003	 2.12237485165945E-0001	
 3.68850000000000E+0003	 2.10916392900433E-0001	
 3.69050000000000E+0003	 2.09406800634921E-0001	
 3.69250000000000E+0003	 2.07972708369408E-0001	
 3.69450000000000E+0003	 2.06731616103896E-0001	
 3.69650000000000E+0003	 2.05592523838384E-0001	
 3.69850000000000E+0003	 2.04454431572872E-0001	
 3.70050000000000E+0003	 2.03357839307359E-0001	
 3.70250000000000E+0003	 2.02344247041847E-0001	
 3.70450000000000E+0003	 2.01362154776335E-0001	
 3.70650000000000E+0003	 2.00435562510823E-0001	
 3.70850000000000E+0003	 1.99535470245310E-0001	
 3.71050000000000E+0003	 1.98632377979798E-0001	
 3.71250000000000E+0003	 1.97840285714286E-0001	
 3.71450000000000E+0003	 1.97121193448773E-0001	
 3.71650000000000E+0003	 1.96404601183261E-0001	
 3.71850000000000E+0003	 1.95660008917749E-0001	
 3.72050000000000E+0003	 1.94898416652237E-0001	
 3.72250000000000E+0003	 1.94214324386724E-0001	
 3.72450000000000E+0003	 1.93525732121212E-0001	
 3.72650000000000E+0003	 1.92863639855700E-0001	
 3.72850000000000E+0003	 1.92212547590188E-0001	
 3.73050000000000E+0003	 1.91602955324675E-0001	
 3.73250000000000E+0003	 1.91110363059163E-0001	
 3.73450000000000E+0003	 1.90585270793651E-0001	
 3.73650000000000E+0003	 1.90082678528139E-0001	
 3.73850000000000E+0003	 1.89529086262626E-0001	
 3.74050000000000E+0003	 1.89043493997114E-0001	
 3.74250000000000E+0003	 1.88449401731602E-0001	
 3.74450000000000E+0003	 1.87942309466089E-0001	
 3.74650000000000E+0003	 1.87403217200577E-0001	
 3.74850000000000E+0003	 1.86873624935065E-0001	
 3.75050000000000E+0003	 1.86393032669553E-0001	
 3.75250000000000E+0003	 1.85966440404040E-0001	
 3.75450000000000E+0003	 1.85553348138528E-0001	
 3.75650000000000E+0003	 1.85134755873016E-0001	
 3.75850000000000E+0003	 1.84722663607504E-0001	
 3.76050000000000E+0003	 1.84346071341991E-0001	
 3.76250000000000E+0003	 1.83935979076479E-0001	
 3.76450000000000E+0003	 1.83550886810967E-0001	
 3.76650000000000E+0003	 1.83195794545455E-0001	
 3.76850000000000E+0003	 1.82792202279942E-0001	
 3.77050000000000E+0003	 1.82456610014430E-0001	
 3.77250000000000E+0003	 1.82084017748918E-0001	
 3.77450000000000E+0003	 1.81745425483405E-0001	
 3.77650000000000E+0003	 1.81423833217893E-0001	
 3.77850000000000E+0003	 1.81123740952381E-0001	
 3.78050000000000E+0003	 1.80818648686869E-0001	
 3.78250000000000E+0003	 1.80419556421356E-0001	
 3.78450000000000E+0003	 1.80077964155844E-0001	
 3.78650000000000E+0003	 1.79784871890332E-0001	
 3.78850000000000E+0003	 1.79506779624820E-0001	
 3.79050000000000E+0003	 1.79231187359307E-0001	
 3.79250000000000E+0003	 1.78941595093795E-0001	
 3.79450000000000E+0003	 1.78604502828283E-0001	
 3.79650000000000E+0003	 1.78355910562771E-0001	
 3.79850000000000E+0003	 1.78070318297258E-0001	
 3.80050000000000E+0003	 1.77742726031746E-0001	
 3.80250000000000E+0003	 1.77553633766234E-0001	
 3.80450000000000E+0003	 1.77242041500722E-0001	
 3.80650000000000E+0003	 1.77014949235209E-0001	
 3.80850000000000E+0003	 1.76792356969697E-0001	
 3.81050000000000E+0003	 1.76549264704185E-0001	
 3.81250000000000E+0003	 1.76362172438672E-0001	
 3.81450000000000E+0003	 1.76097580173160E-0001	
 3.81650000000000E+0003	 1.75934487907648E-0001	
 3.81850000000000E+0003	 1.75654395642136E-0001	
 3.82050000000000E+0003	 1.75442803376623E-0001	
 3.82250000000000E+0003	 1.75287211111111E-0001	
 3.82450000000000E+0003	 1.74992118845599E-0001	
 3.82650000000000E+0003	 1.74815026580087E-0001	
 3.82850000000000E+0003	 1.74628934314574E-0001	
 3.83050000000000E+0003	 1.74432342049062E-0001	
 3.83250000000000E+0003	 1.74307749783550E-0001	
 3.83450000000000E+0003	 1.74206157518038E-0001	
 3.83650000000000E+0003	 1.74047565252525E-0001	
 3.83850000000000E+0003	 1.73805472987013E-0001	
 3.84050000000000E+0003	 1.73563880721501E-0001	
 3.84250000000000E+0003	 1.73397788455988E-0001	
 3.84450000000000E+0003	 1.73283196190476E-0001	
 3.84650000000000E+0003	 1.73125603924964E-0001	
 3.84850000000000E+0003	 1.72997511659452E-0001	
 3.85050000000000E+0003	 1.72860919393939E-0001	
 3.85250000000000E+0003	 1.72659827128427E-0001	
 3.85450000000000E+0003	 1.72533734862915E-0001	
 3.85650000000000E+0003	 1.72334642597403E-0001	
 3.85850000000000E+0003	 1.72191050331890E-0001	
 3.86050000000000E+0003	 1.72075458066378E-0001	
 3.86250000000000E+0003	 1.71929365800866E-0001	
 3.86450000000000E+0003	 1.71839773535354E-0001	
 3.86650000000000E+0003	 1.71746181269841E-0001	
 3.86850000000000E+0003	 1.71569589004329E-0001	
 3.87050000000000E+0003	 1.71492996738817E-0001	
 3.87250000000000E+0003	 1.71303404473304E-0001	
 3.87450000000000E+0003	 1.71229312207792E-0001	
 3.87650000000000E+0003	 1.71136219942280E-0001	
 3.87850000000000E+0003	 1.70994127676768E-0001	
 3.88050000000000E+0003	 1.70962535411255E-0001	
 3.88250000000000E+0003	 1.70894943145743E-0001	
 3.88450000000000E+0003	 1.70795850880231E-0001	
 3.88650000000000E+0003	 1.70736258614719E-0001	
 3.88850000000000E+0003	 1.70539666349206E-0001	
 3.89050000000000E+0003	 1.70439074083694E-0001	
 3.89250000000000E+0003	 1.70368481818182E-0001	
 3.89450000000000E+0003	 1.70255889552670E-0001	
 3.89650000000000E+0003	 1.70181297287157E-0001	
 3.89850000000000E+0003	 1.70152205021645E-0001	
 3.90050000000000E+0003	 1.70100112756133E-0001	
 3.90250000000000E+0003	 1.69972020490620E-0001	
 3.90450000000000E+0003	 1.69902428225108E-0001	
 3.90650000000000E+0003	 1.69821835959596E-0001	
 3.90850000000000E+0003	 1.69726743694084E-0001	
 3.91050000000000E+0003	 1.69661151428571E-0001	
 3.91250000000000E+0003	 1.69618559163059E-0001	
 3.91450000000000E+0003	 1.69574966897547E-0001	
 3.91650000000000E+0003	 1.69543874632035E-0001	
 3.91850000000000E+0003	 1.69486282366522E-0001	
 3.92050000000000E+0003	 1.69427190101010E-0001	
 3.92250000000000E+0003	 1.69358597835498E-0001	
 3.92450000000000E+0003	 1.69316005569986E-0001	
 3.92650000000000E+0003	 1.69268413304473E-0001	
 3.92850000000000E+0003	 1.69213321038961E-0001	
 3.93050000000000E+0003	 1.69183228773449E-0001	
 3.93250000000000E+0003	 1.69157136507937E-0001	
 3.93450000000000E+0003	 1.69105544242424E-0001	
 3.93650000000000E+0003	 1.69033951976912E-0001	
 3.93850000000000E+0003	 1.68984859711400E-0001	
 3.94050000000000E+0003	 1.68929767445887E-0001	
 3.94250000000000E+0003	 1.68901675180375E-0001	
 3.94450000000000E+0003	 1.68856082914863E-0001	
 3.94650000000000E+0003	 1.68789490649351E-0001	
 3.94850000000000E+0003	 1.68741898383838E-0001	
 3.95050000000000E+0003	 1.68690806118326E-0001	
 3.95250000000000E+0003	 1.68639713852814E-0001	
 3.95450000000000E+0003	 1.68595121587302E-0001	
 3.95650000000000E+0003	 1.68554029321789E-0001	
 3.95850000000000E+0003	 1.68515937056277E-0001	
 3.96050000000000E+0003	 1.68471844790765E-0001	
 3.96250000000000E+0003	 1.68426252525253E-0001	
 3.96450000000000E+0003	 1.68378660259740E-0001	
 3.96650000000000E+0003	 1.68336067994228E-0001	
 3.96850000000000E+0003	 1.68294475728716E-0001	
 3.97050000000000E+0003	 1.68255883463203E-0001	
 3.97250000000000E+0003	 1.68223791197691E-0001	
 3.97450000000000E+0003	 1.68198698932179E-0001	
 3.97650000000000E+0003	 1.68167606666667E-0001	
 3.97850000000000E+0003	 1.68124014401154E-0001	
 3.98050000000000E+0003	 1.68086422135642E-0001	
 3.98250000000000E+0003	 1.68076329870130E-0001	
 3.98450000000000E+0003	 1.68062737604618E-0001	
 3.98650000000000E+0003	 1.68017145339105E-0001	
 3.98850000000000E+0003	 1.67962553073593E-0001	
 3.99050000000000E+0003	 1.67924460808081E-0001	
 3.99250000000000E+0003	 1.67886368542569E-0001	
 3.99450000000000E+0003	 1.67855276277056E-0001	
 3.99650000000000E+0003	 1.67826684011544E-0001	
 3.99850000000000E+0003	 1.67784591746032E-0001	

>1	DATALINE
