*CPCWIN*

>1	DATALINE
DATALINE
1
Operator:

Description:

Remarks:





15.9.2008
11:4


_x	_y
	
	
UNIT	UNIT
 4.50500000000000E+0002	 1.43737579250983E-0001	
 4.52500000000000E+0002	 1.43808396254914E-0001	
 4.54500000000000E+0002	 1.44442713258845E-0001	
 4.56500000000000E+0002	 1.44496030262777E-0001	
 4.58500000000000E+0002	 1.44750347266708E-0001	
 4.60500000000000E+0002	 1.45311164270639E-0001	
 4.62500000000000E+0002	 1.46167481274571E-0001	
 4.64500000000000E+0002	 1.46752798278502E-0001	
 4.66500000000000E+0002	 1.47265115282433E-0001	
 4.68500000000000E+0002	 1.47416432286365E-0001	
 4.70500000000000E+0002	 1.47922749290296E-0001	
 4.72500000000000E+0002	 1.48203566294227E-0001	
 4.74500000000000E+0002	 1.48915883298158E-0001	
 4.76500000000000E+0002	 1.49513700302090E-0001	
 4.78500000000000E+0002	 1.50357017306021E-0001	
 4.80500000000000E+0002	 1.50951334309952E-0001	
 4.82500000000000E+0002	 1.51669151313884E-0001	
 4.84500000000000E+0002	 1.52151468317815E-0001	
 4.86500000000000E+0002	 1.52892785321746E-0001	
 4.88500000000000E+0002	 1.53665102325678E-0001	
 4.90500000000000E+0002	 1.54529919329609E-0001	
 4.92500000000000E+0002	 1.55168736333540E-0001	
 4.94500000000000E+0002	 1.56058553337472E-0001	
 4.96500000000000E+0002	 1.56702870341403E-0001	
 4.98500000000000E+0002	 1.57465687345334E-0001	
 5.00500000000000E+0002	 1.57953004349265E-0001	
 5.02500000000000E+0002	 1.58633821353197E-0001	
 5.04500000000000E+0002	 1.59510138357128E-0001	
 5.06500000000000E+0002	 1.60453955361059E-0001	
 5.08500000000000E+0002	 1.61012772364991E-0001	
 5.10500000000000E+0002	 1.61731089368922E-0001	
 5.12500000000000E+0002	 1.62393906372853E-0001	
 5.14500000000000E+0002	 1.63168723376785E-0001	
 5.16500000000000E+0002	 1.63780040380716E-0001	
 5.18500000000000E+0002	 1.64728357384647E-0001	
 5.20500000000000E+0002	 1.65786174388579E-0001	
 5.22500000000000E+0002	 1.66956991392510E-0001	
 5.24500000000000E+0002	 1.67588308396441E-0001	
 5.26500000000000E+0002	 1.68242125400372E-0001	
 5.28500000000000E+0002	 1.69181442404304E-0001	
 5.30500000000000E+0002	 1.70245259408235E-0001	
 5.32500000000000E+0002	 1.70780576412166E-0001	
 5.34500000000000E+0002	 1.71062393416098E-0001	
 5.36500000000000E+0002	 1.70982210420029E-0001	
 5.38500000000000E+0002	 1.70882527423960E-0001	
 5.40500000000000E+0002	 1.70648844427892E-0001	
 5.42500000000000E+0002	 1.70574161431823E-0001	
 5.44500000000000E+0002	 1.70393478435754E-0001	
 5.46500000000000E+0002	 1.70356295439685E-0001	
 5.48500000000000E+0002	 1.70271612443617E-0001	
 5.50500000000000E+0002	 1.70313929447548E-0001	
 5.52500000000000E+0002	 1.70242246451479E-0001	
 5.54500000000000E+0002	 1.70136563455411E-0001	
 5.56500000000000E+0002	 1.69812880459342E-0001	
 5.58500000000000E+0002	 1.69533697463273E-0001	
 5.60500000000000E+0002	 1.69065514467205E-0001	
 5.62500000000000E+0002	 1.68600331471136E-0001	
 5.64500000000000E+0002	 1.68035648475067E-0001	
 5.66500000000000E+0002	 1.67620965478999E-0001	
 5.68500000000000E+0002	 1.67145282482930E-0001	
 5.70500000000000E+0002	 1.66832599486861E-0001	
 5.72500000000000E+0002	 1.66499916490792E-0001	
 5.74500000000000E+0002	 1.66284733494724E-0001	
 5.76500000000000E+0002	 1.66023050498655E-0001	
 5.78500000000000E+0002	 1.66004367502586E-0001	
 5.80500000000000E+0002	 1.65844184506518E-0001	
 5.82500000000000E+0002	 1.65746001510449E-0001	
 5.84500000000000E+0002	 1.65560318514380E-0001	
 5.86500000000000E+0002	 1.65485635518312E-0001	
 5.88500000000000E+0002	 1.65387952522243E-0001	
 5.90500000000000E+0002	 1.65343769526174E-0001	
 5.92500000000000E+0002	 1.65301086530106E-0001	
 5.94500000000000E+0002	 1.65542903534037E-0001	
 5.96500000000000E+0002	 1.65759220537968E-0001	
 5.98500000000000E+0002	 1.66048537541899E-0001	
 6.00500000000000E+0002	 1.66241854545831E-0001	
 6.02500000000000E+0002	 1.66534171549762E-0001	
 6.04500000000000E+0002	 1.66605488553693E-0001	
 6.06500000000000E+0002	 1.66537305557625E-0001	
 6.08500000000000E+0002	 1.66202622561556E-0001	
 6.10500000000000E+0002	 1.65886939565487E-0001	
 6.12500000000000E+0002	 1.65525756569419E-0001	
 6.14500000000000E+0002	 1.65244073573350E-0001	
 6.16500000000000E+0002	 1.64890890577281E-0001	
 6.18500000000000E+0002	 1.64648207581212E-0001	
 6.20500000000000E+0002	 1.64344024585144E-0001	
 6.22500000000000E+0002	 1.64083341589075E-0001	
 6.24500000000000E+0002	 1.63700158593006E-0001	
 6.26500000000000E+0002	 1.63426475596938E-0001	
 6.28500000000000E+0002	 1.63151292600869E-0001	
 6.30500000000000E+0002	 1.62865109604800E-0001	
 6.32500000000000E+0002	 1.62424926608732E-0001	
 6.34500000000000E+0002	 1.61975243612663E-0001	
 6.36500000000000E+0002	 1.61486560616594E-0001	
 6.38500000000000E+0002	 1.61085377620526E-0001	
 6.40500000000000E+0002	 1.60602694624457E-0001	
 6.42500000000000E+0002	 1.60212511628388E-0001	
 6.44500000000000E+0002	 1.59768828632319E-0001	
 6.46500000000000E+0002	 1.59417645636251E-0001	
 6.48500000000000E+0002	 1.59034462640182E-0001	
 6.50500000000000E+0002	 1.58651779644113E-0001	
 6.52500000000000E+0002	 1.58182596648045E-0001	
 6.54500000000000E+0002	 1.57820913651976E-0001	
 6.56500000000000E+0002	 1.57429730655907E-0001	
 6.58500000000000E+0002	 1.57066047659839E-0001	
 6.60500000000000E+0002	 1.56623864663770E-0001	
 6.62500000000000E+0002	 1.56295681667701E-0001	
 6.64500000000000E+0002	 1.55884998671633E-0001	
 6.66500000000000E+0002	 1.55804315675564E-0001	
 6.68500000000000E+0002	 1.55920132679495E-0001	
 6.70500000000000E+0002	 1.54654449683426E-0001	
 6.72500000000000E+0002	 1.54140766687358E-0001	
 6.74500000000000E+0002	 1.53676583691289E-0001	
 6.76500000000000E+0002	 1.53160900695220E-0001	
 6.78500000000000E+0002	 1.52692717699152E-0001	
 6.80500000000000E+0002	 1.52164034703083E-0001	
 6.82500000000000E+0002	 1.51689351707014E-0001	
 6.84500000000000E+0002	 1.51203168710946E-0001	
 6.86500000000000E+0002	 1.50771985714877E-0001	
 6.88500000000000E+0002	 1.50288302718808E-0001	
 6.90500000000000E+0002	 1.49910619722739E-0001	
 6.92500000000000E+0002	 1.49568936726671E-0001	
 6.94500000000000E+0002	 1.49275253730602E-0001	
 6.96500000000000E+0002	 1.48986570734533E-0001	
 6.98500000000000E+0002	 1.48753387738465E-0001	
 7.00500000000000E+0002	 1.48440704742396E-0001	
 7.02500000000000E+0002	 1.48037521746327E-0001	
 7.04500000000000E+0002	 1.47502338750259E-0001	
 7.06500000000000E+0002	 1.46980155754190E-0001	
 7.08500000000000E+0002	 1.46483472758121E-0001	
 7.10500000000000E+0002	 1.46095789762053E-0001	
 7.12500000000000E+0002	 1.45621106765984E-0001	
 7.14500000000000E+0002	 1.44932423769915E-0001	
 7.16500000000000E+0002	 1.44084240773846E-0001	
 7.18500000000000E+0002	 1.43251557777778E-0001	
 7.20500000000000E+0002	 1.42393374781709E-0001	
 7.22500000000000E+0002	 1.41551691785640E-0001	
 7.24500000000000E+0002	 1.40521508789572E-0001	
 7.26500000000000E+0002	 1.39311325793503E-0001	
 7.28500000000000E+0002	 1.37966142797434E-0001	
 7.30500000000000E+0002	 1.36633959801366E-0001	
 7.32500000000000E+0002	 1.35365776805297E-0001	
 7.34500000000000E+0002	 1.34285093809228E-0001	
 7.36500000000000E+0002	 1.33330910813160E-0001	
 7.38500000000000E+0002	 1.32507227817091E-0001	
 7.40500000000000E+0002	 1.31737544821022E-0001	
 7.42500000000000E+0002	 1.31061861824953E-0001	
 7.44500000000000E+0002	 1.30408678828885E-0001	
 7.46500000000000E+0002	 1.29816495832816E-0001	
 7.48500000000000E+0002	 1.29233312836747E-0001	
 7.50500000000000E+0002	 1.28723629840679E-0001	
 7.52500000000000E+0002	 1.28316946844610E-0001	
 7.54500000000000E+0002	 1.28100263848541E-0001	
 7.56500000000000E+0002	 1.28029580852473E-0001	
 7.58500000000000E+0002	 1.28164897856404E-0001	
 7.60500000000000E+0002	 1.28462714860335E-0001	
 7.62500000000000E+0002	 1.28859031864267E-0001	
 7.64500000000000E+0002	 1.29020348868198E-0001	
 7.66500000000000E+0002	 1.28641665872129E-0001	
 7.68500000000000E+0002	 1.27591982876060E-0001	
 7.70500000000000E+0002	 1.26217799879992E-0001	
 7.72500000000000E+0002	 1.24933116883923E-0001	
 7.74500000000000E+0002	 1.24151433887854E-0001	
 7.76500000000000E+0002	 1.24052750891786E-0001	
 7.78500000000000E+0002	 1.24404067895717E-0001	
 7.80500000000000E+0002	 1.24367384899648E-0001	
 7.82500000000000E+0002	 1.23632701903580E-0001	
 7.84500000000000E+0002	 1.22566518907511E-0001	
 7.86500000000000E+0002	 1.21525335911442E-0001	
 7.88500000000000E+0002	 1.20448652915373E-0001	
 7.90500000000000E+0002	 1.19436469919305E-0001	
 7.92500000000000E+0002	 1.18683286923236E-0001	
 7.94500000000000E+0002	 1.18272103927167E-0001	
 7.96500000000000E+0002	 1.17830420931099E-0001	
 7.98500000000000E+0002	 1.17140237935030E-0001	
 8.00500000000000E+0002	 1.16313554938961E-0001	
 8.02500000000000E+0002	 1.15580871942893E-0001	
 8.04500000000000E+0002	 1.15011688946824E-0001	
 8.06500000000000E+0002	 1.14642505950755E-0001	
 8.08500000000000E+0002	 1.14320322954687E-0001	
 8.10500000000000E+0002	 1.13946139958618E-0001	
 8.12500000000000E+0002	 1.13407956962549E-0001	
 8.14500000000000E+0002	 1.12757773966480E-0001	
 8.16500000000000E+0002	 1.12005090970412E-0001	
 8.18500000000000E+0002	 1.11271407974343E-0001	
 8.20500000000000E+0002	 1.10636724978274E-0001	
 8.22500000000000E+0002	 1.10202541982206E-0001	
 8.24500000000000E+0002	 1.09915858986137E-0001	
 8.26500000000000E+0002	 1.09753675990068E-0001	
 8.28500000000000E+0002	 1.09623992994000E-0001	
 8.30500000000000E+0002	 1.09565309997931E-0001	
 8.32500000000000E+0002	 1.09574127001862E-0001	
 8.34500000000000E+0002	 1.09678944005794E-0001	
 8.36500000000000E+0002	 1.09766761009725E-0001	
 8.38500000000000E+0002	 1.09830078013656E-0001	
 8.40500000000000E+0002	 1.09824395017587E-0001	
 8.42500000000000E+0002	 1.09769212021519E-0001	
 8.44500000000000E+0002	 1.09639529025450E-0001	
 8.46500000000000E+0002	 1.09537846029381E-0001	
 8.48500000000000E+0002	 1.09461663033313E-0001	
 8.50500000000000E+0002	 1.09475480037244E-0001	
 8.52500000000000E+0002	 1.09581297041175E-0001	
 8.54500000000000E+0002	 1.09782614045107E-0001	
 8.56500000000000E+0002	 1.09976431049038E-0001	
 8.58500000000000E+0002	 1.10078248052969E-0001	
 8.60500000000000E+0002	 1.09954565056900E-0001	
 8.62500000000000E+0002	 1.09576882060832E-0001	
 8.64500000000000E+0002	 1.08899199064763E-0001	
 8.66500000000000E+0002	 1.08069516068694E-0001	
 8.68500000000000E+0002	 1.07362333072626E-0001	
 8.70500000000000E+0002	 1.07337150076557E-0001	
 8.72500000000000E+0002	 1.07506967080488E-0001	
 8.74500000000000E+0002	 1.06781784084420E-0001	
 8.76500000000000E+0002	 1.05522601088351E-0001	
 8.78500000000000E+0002	 1.04578418092282E-0001	
 8.80500000000000E+0002	 1.03974235096214E-0001	
 8.82500000000000E+0002	 1.03605552100145E-0001	
 8.84500000000000E+0002	 1.03275869104076E-0001	
 8.86500000000000E+0002	 1.02945686108007E-0001	
 8.88500000000000E+0002	 1.02581503111939E-0001	
 8.90500000000000E+0002	 1.02211820115870E-0001	
 8.92500000000000E+0002	 1.01791637119801E-0001	
 8.94500000000000E+0002	 1.01367454123733E-0001	
 8.96500000000000E+0002	 1.00953771127664E-0001	
 8.98500000000000E+0002	 1.00646088131595E-0001	
 9.00500000000000E+0002	 1.00509905135527E-0001	
 9.02500000000000E+0002	 1.00700222139458E-0001	
 9.04500000000000E+0002	 1.01285539143389E-0001	
 9.06500000000000E+0002	 1.02302856147321E-0001	
 9.08500000000000E+0002	 1.03660673151252E-0001	
 9.10500000000000E+0002	 1.05197490155183E-0001	
 9.12500000000000E+0002	 1.06610807159114E-0001	
 9.14500000000000E+0002	 1.07663624163046E-0001	
 9.16500000000000E+0002	 1.08194441166977E-0001	
 9.18500000000000E+0002	 1.08179758170908E-0001	
 9.20500000000000E+0002	 1.07642575174840E-0001	
 9.22500000000000E+0002	 1.06720392178771E-0001	
 9.24500000000000E+0002	 1.05568209182702E-0001	
 9.26500000000000E+0002	 1.04347026186634E-0001	
 9.28500000000000E+0002	 1.03165843190565E-0001	
 9.30500000000000E+0002	 1.02108160194496E-0001	
 9.32500000000000E+0002	 1.01233477198427E-0001	
 9.34500000000000E+0002	 1.00556794202359E-0001	
 9.36500000000000E+0002	 1.00031111206290E-0001	
 9.38500000000000E+0002	 9.96639282102214E-0002	
 9.40500000000000E+0002	 9.94297452141527E-0002	
 9.42500000000000E+0002	 9.93165622180840E-0002	
 9.44500000000000E+0002	 9.93793792220153E-0002	
 9.46500000000000E+0002	 9.96626962259466E-0002	
 9.48500000000000E+0002	 1.00153513229878E-0001	
 9.50500000000000E+0002	 1.00841830233809E-0001	
 9.52500000000000E+0002	 1.01741647237741E-0001	
 9.54500000000000E+0002	 1.02869964241672E-0001	
 9.56500000000000E+0002	 1.04212781245603E-0001	
 9.58500000000000E+0002	 1.05747598249534E-0001	
 9.60500000000000E+0002	 1.07395415253466E-0001	
 9.62500000000000E+0002	 1.09085232257397E-0001	
 9.64500000000000E+0002	 1.10755049261328E-0001	
 9.66500000000000E+0002	 1.12363866265260E-0001	
 9.68500000000000E+0002	 1.13903683269191E-0001	
 9.70500000000000E+0002	 1.15446000273122E-0001	
 9.72500000000000E+0002	 1.17086817277054E-0001	
 9.74500000000000E+0002	 1.19013634280985E-0001	
 9.76500000000000E+0002	 1.21453951284916E-0001	
 9.78500000000000E+0002	 1.24679768288848E-0001	
 9.80500000000000E+0002	 1.28824585292779E-0001	
 9.82500000000000E+0002	 1.33824902296710E-0001	
 9.84500000000000E+0002	 1.39327719300641E-0001	
 9.86500000000000E+0002	 1.44799536304573E-0001	
 9.88500000000000E+0002	 1.49690853308504E-0001	
 9.90500000000000E+0002	 1.53729170312435E-0001	
 9.92500000000000E+0002	 1.56941487316367E-0001	
 9.94500000000000E+0002	 1.59726304320298E-0001	
 9.96500000000000E+0002	 1.62610121324229E-0001	
 9.98500000000000E+0002	 1.66059438328161E-0001	
 1.00050000000000E+0003	 1.70262755332092E-0001	
 1.00250000000000E+0003	 1.75180072336023E-0001	
 1.00450000000000E+0003	 1.80483889339954E-0001	
 1.00650000000000E+0003	 1.85871706343886E-0001	
 1.00850000000000E+0003	 1.91082523347817E-0001	
 1.01050000000000E+0003	 1.96017840351748E-0001	
 1.01250000000000E+0003	 2.00629157355680E-0001	
 1.01450000000000E+0003	 2.04924974359611E-0001	
 1.01650000000000E+0003	 2.08733791363542E-0001	
 1.01850000000000E+0003	 2.11873608367474E-0001	
 1.02050000000000E+0003	 2.14187425371405E-0001	
 1.02250000000000E+0003	 2.15794742375336E-0001	
 1.02450000000000E+0003	 2.16933059379268E-0001	
 1.02650000000000E+0003	 2.17985376383199E-0001	
 1.02850000000000E+0003	 2.19155693387130E-0001	
 1.03050000000000E+0003	 2.20483510391061E-0001	
 1.03250000000000E+0003	 2.21823827394993E-0001	
 1.03450000000000E+0003	 2.23213144398924E-0001	
 1.03650000000000E+0003	 2.24431461402855E-0001	
 1.03850000000000E+0003	 2.25275778406787E-0001	
 1.04050000000000E+0003	 2.25807595410718E-0001	
 1.04250000000000E+0003	 2.26299412414649E-0001	
 1.04450000000000E+0003	 2.26956229418581E-0001	
 1.04650000000000E+0003	 2.27987046422512E-0001	
 1.04850000000000E+0003	 2.29449363426443E-0001	
 1.05050000000000E+0003	 2.31178680430375E-0001	
 1.05250000000000E+0003	 2.32666997434306E-0001	
 1.05450000000000E+0003	 2.33548814438237E-0001	
 1.05650000000000E+0003	 2.33617131442168E-0001	
 1.05850000000000E+0003	 2.32954448446100E-0001	
 1.06050000000000E+0003	 2.31777765450031E-0001	
 1.06250000000000E+0003	 2.30582082453962E-0001	
 1.06450000000000E+0003	 2.29902399457894E-0001	
 1.06650000000000E+0003	 2.30266716461825E-0001	
 1.06850000000000E+0003	 2.31842533465756E-0001	
 1.07050000000000E+0003	 2.34509350469688E-0001	
 1.07250000000000E+0003	 2.37777167473619E-0001	
 1.07450000000000E+0003	 2.41116484477550E-0001	
 1.07650000000000E+0003	 2.43957801481481E-0001	
 1.07850000000000E+0003	 2.45995618485413E-0001	
 1.08050000000000E+0003	 2.46956935489344E-0001	
 1.08250000000000E+0003	 2.46694752493275E-0001	
 1.08450000000000E+0003	 2.44983069497207E-0001	
 1.08650000000000E+0003	 2.41760886501138E-0001	
 1.08850000000000E+0003	 2.37075703505069E-0001	
 1.09050000000000E+0003	 2.31516520509001E-0001	
 1.09250000000000E+0003	 2.26009337512932E-0001	
 1.09450000000000E+0003	 2.21448654516863E-0001	
 1.09650000000000E+0003	 2.18019971520795E-0001	
 1.09850000000000E+0003	 2.15425788524726E-0001	
 1.10050000000000E+0003	 2.13105605528657E-0001	
 1.10250000000000E+0003	 2.10763922532588E-0001	
 1.10450000000000E+0003	 2.08215239536520E-0001	
 1.10650000000000E+0003	 2.05549556540451E-0001	
 1.10850000000000E+0003	 2.02913873544382E-0001	
 1.11050000000000E+0003	 2.00543190548314E-0001	
 1.11250000000000E+0003	 1.98470007552245E-0001	
 1.11450000000000E+0003	 1.96654324556176E-0001	
 1.11650000000000E+0003	 1.94884641560108E-0001	
 1.11850000000000E+0003	 1.93046958564039E-0001	
 1.12050000000000E+0003	 1.91004775567970E-0001	
 1.12250000000000E+0003	 1.88729092571902E-0001	
 1.12450000000000E+0003	 1.86209409575833E-0001	
 1.12650000000000E+0003	 1.83591726579764E-0001	
 1.12850000000000E+0003	 1.80915043583695E-0001	
 1.13050000000000E+0003	 1.78133860587627E-0001	
 1.13250000000000E+0003	 1.75354677591558E-0001	
 1.13450000000000E+0003	 1.72840494595489E-0001	
 1.13650000000000E+0003	 1.70665811599421E-0001	
 1.13850000000000E+0003	 1.68921628603352E-0001	
 1.14050000000000E+0003	 1.67638445607283E-0001	
 1.14250000000000E+0003	 1.66850762611215E-0001	
 1.14450000000000E+0003	 1.66448079615146E-0001	
 1.14650000000000E+0003	 1.66212896619077E-0001	
 1.14850000000000E+0003	 1.65791213623008E-0001	
 1.15050000000000E+0003	 1.64874530626940E-0001	
 1.15250000000000E+0003	 1.63271347630871E-0001	
 1.15450000000000E+0003	 1.61015164634802E-0001	
 1.15650000000000E+0003	 1.58317981638734E-0001	
 1.15850000000000E+0003	 1.55448298642665E-0001	
 1.16050000000000E+0003	 1.52501115646596E-0001	
 1.16250000000000E+0003	 1.49457932650528E-0001	
 1.16450000000000E+0003	 1.46277749654459E-0001	
 1.16650000000000E+0003	 1.43005566658390E-0001	
 1.16850000000000E+0003	 1.39752383662322E-0001	
 1.17050000000000E+0003	 1.36646700666253E-0001	
 1.17250000000000E+0003	 1.33744517670184E-0001	
 1.17450000000000E+0003	 1.31049834674115E-0001	
 1.17650000000000E+0003	 1.28573651678047E-0001	
 1.17850000000000E+0003	 1.26395468681978E-0001	
 1.18050000000000E+0003	 1.24595785685909E-0001	
 1.18250000000000E+0003	 1.23247602689841E-0001	
 1.18450000000000E+0003	 1.22395419693772E-0001	
 1.18650000000000E+0003	 1.22053236697703E-0001	
 1.18850000000000E+0003	 1.22199053701635E-0001	
 1.19050000000000E+0003	 1.22810870705566E-0001	
 1.19250000000000E+0003	 1.23837187709497E-0001	
 1.19450000000000E+0003	 1.25217004713429E-0001	
 1.19650000000000E+0003	 1.26857821717360E-0001	
 1.19850000000000E+0003	 1.28663638721291E-0001	
 1.20050000000000E+0003	 1.30540455725222E-0001	
 1.20250000000000E+0003	 1.32415272729154E-0001	
 1.20450000000000E+0003	 1.34238589733085E-0001	
 1.20650000000000E+0003	 1.36016906737016E-0001	
 1.20850000000000E+0003	 1.37734223740948E-0001	
 1.21050000000000E+0003	 1.39382540744879E-0001	
 1.21250000000000E+0003	 1.40902857748810E-0001	
 1.21450000000000E+0003	 1.42210674752742E-0001	
 1.21650000000000E+0003	 1.43532991756673E-0001	
 1.21850000000000E+0003	 1.45490308760604E-0001	
 1.22050000000000E+0003	 1.47797625764535E-0001	
 1.22250000000000E+0003	 1.49403942768467E-0001	
 1.22450000000000E+0003	 1.50263759772398E-0001	
 1.22650000000000E+0003	 1.50962576776329E-0001	
 1.22850000000000E+0003	 1.51731893780261E-0001	
 1.23050000000000E+0003	 1.52574210784192E-0001	
 1.23250000000000E+0003	 1.53416527788123E-0001	
 1.23450000000000E+0003	 1.54194844792055E-0001	
 1.23650000000000E+0003	 1.54835661795986E-0001	
 1.23850000000000E+0003	 1.55261478799917E-0001	
 1.24050000000000E+0003	 1.55417795803849E-0001	
 1.24250000000000E+0003	 1.55296112807780E-0001	
 1.24450000000000E+0003	 1.54910429811711E-0001	
 1.24650000000000E+0003	 1.54297246815642E-0001	
 1.24850000000000E+0003	 1.53493063819574E-0001	
 1.25050000000000E+0003	 1.52530380823505E-0001	
 1.25250000000000E+0003	 1.51440697827436E-0001	
 1.25450000000000E+0003	 1.50258514831368E-0001	
 1.25650000000000E+0003	 1.49011831835299E-0001	
 1.25850000000000E+0003	 1.47728648839230E-0001	
 1.26050000000000E+0003	 1.46439965843162E-0001	
 1.26250000000000E+0003	 1.45182782847093E-0001	
 1.26450000000000E+0003	 1.43953599851024E-0001	
 1.26650000000000E+0003	 1.42749416854956E-0001	
 1.26850000000000E+0003	 1.41619233858887E-0001	
 1.27050000000000E+0003	 1.40578050862818E-0001	
 1.27250000000000E+0003	 1.39649867866749E-0001	
 1.27450000000000E+0003	 1.38833684870681E-0001	
 1.27650000000000E+0003	 1.38099001874612E-0001	
 1.27850000000000E+0003	 1.37426818878543E-0001	
 1.28050000000000E+0003	 1.36819635882475E-0001	
 1.28250000000000E+0003	 1.36260452886406E-0001	
 1.28450000000000E+0003	 1.35719769890337E-0001	
 1.28650000000000E+0003	 1.35185586894269E-0001	
 1.28850000000000E+0003	 1.34720403898200E-0001	
 1.29050000000000E+0003	 1.34429720902131E-0001	
 1.29250000000000E+0003	 1.34294037906062E-0001	
 1.29450000000000E+0003	 1.34255854909994E-0001	
 1.29650000000000E+0003	 1.34321171913925E-0001	
 1.29850000000000E+0003	 1.34562488917856E-0001	
 1.30050000000000E+0003	 1.34953805921788E-0001	
 1.30250000000000E+0003	 1.35400622925719E-0001	
 1.30450000000000E+0003	 1.35842939929650E-0001	
 1.30650000000000E+0003	 1.36256756933582E-0001	
 1.30850000000000E+0003	 1.36639073937513E-0001	
 1.31050000000000E+0003	 1.36969390941444E-0001	
 1.31250000000000E+0003	 1.37150207945376E-0001	
 1.31450000000000E+0003	 1.37202024949307E-0001	
 1.31650000000000E+0003	 1.37123341953238E-0001	
 1.31850000000000E+0003	 1.36890658957169E-0001	
 1.32050000000000E+0003	 1.36602975961101E-0001	
 1.32250000000000E+0003	 1.36336292965032E-0001	
 1.32450000000000E+0003	 1.36109609968963E-0001	
 1.32650000000000E+0003	 1.35977926972895E-0001	
 1.32850000000000E+0003	 1.35986243976826E-0001	
 1.33050000000000E+0003	 1.36139060980757E-0001	
 1.33250000000000E+0003	 1.36406877984689E-0001	
 1.33450000000000E+0003	 1.36659194988620E-0001	
 1.33650000000000E+0003	 1.36702011992551E-0001	
 1.33850000000000E+0003	 1.36532828996483E-0001	
 1.34050000000000E+0003	 1.36479146000414E-0001	
 1.34250000000000E+0003	 1.36680463004345E-0001	
 1.34450000000000E+0003	 1.36709280008276E-0001	
 1.34650000000000E+0003	 1.36460597012208E-0001	
 1.34850000000000E+0003	 1.36201914016139E-0001	
 1.35050000000000E+0003	 1.36067731020070E-0001	
 1.35250000000000E+0003	 1.36093048024002E-0001	
 1.35450000000000E+0003	 1.36296365027933E-0001	
 1.35650000000000E+0003	 1.36665682031864E-0001	
 1.35850000000000E+0003	 1.37042499035796E-0001	
 1.36050000000000E+0003	 1.37180816039727E-0001	
 1.36250000000000E+0003	 1.37332133043658E-0001	
 1.36450000000000E+0003	 1.38016450047589E-0001	
 1.36650000000000E+0003	 1.39381767051521E-0001	
 1.36850000000000E+0003	 1.40791084055452E-0001	
 1.37050000000000E+0003	 1.41751901059383E-0001	
 1.37250000000000E+0003	 1.42504718063315E-0001	
 1.37450000000000E+0003	 1.43288535067246E-0001	
 1.37650000000000E+0003	 1.44188852071177E-0001	
 1.37850000000000E+0003	 1.45030169075109E-0001	
 1.38050000000000E+0003	 1.45923486079040E-0001	
 1.38250000000000E+0003	 1.47026803082971E-0001	
 1.38450000000000E+0003	 1.47993120086903E-0001	
 1.38650000000000E+0003	 1.48378437090834E-0001	
 1.38850000000000E+0003	 1.48788254094765E-0001	
 1.39050000000000E+0003	 1.49816571098696E-0001	
 1.39250000000000E+0003	 1.50950888102628E-0001	
 1.39450000000000E+0003	 1.51850205106559E-0001	
 1.39650000000000E+0003	 1.52871522110490E-0001	
 1.39850000000000E+0003	 1.54123839114422E-0001	
 1.40050000000000E+0003	 1.55376656118353E-0001	
 1.40250000000000E+0003	 1.56247973122284E-0001	
 1.40450000000000E+0003	 1.56738790126216E-0001	
 1.40650000000000E+0003	 1.56944107130147E-0001	
 1.40850000000000E+0003	 1.57065924134078E-0001	
 1.41050000000000E+0003	 1.56994241138010E-0001	
 1.41250000000000E+0003	 1.56762058141941E-0001	
 1.41450000000000E+0003	 1.56375375145872E-0001	
 1.41650000000000E+0003	 1.55547692149803E-0001	
 1.41850000000000E+0003	 1.54216009153735E-0001	
 1.42050000000000E+0003	 1.52924326157666E-0001	
 1.42250000000000E+0003	 1.52261643161597E-0001	
 1.42450000000000E+0003	 1.51521960165529E-0001	
 1.42650000000000E+0003	 1.50307777169460E-0001	
 1.42850000000000E+0003	 1.49207094173391E-0001	
 1.43050000000000E+0003	 1.48295411177323E-0001	
 1.43250000000000E+0003	 1.47664228181254E-0001	
 1.43450000000000E+0003	 1.47295045185185E-0001	
 1.43650000000000E+0003	 1.47048862189116E-0001	
 1.43850000000000E+0003	 1.47484179193048E-0001	
 1.44050000000000E+0003	 1.48736996196979E-0001	
 1.44250000000000E+0003	 1.49883313200910E-0001	
 1.44450000000000E+0003	 1.50579130204842E-0001	
 1.44650000000000E+0003	 1.51167447208773E-0001	
 1.44850000000000E+0003	 1.51779264212704E-0001	
 1.45050000000000E+0003	 1.52466081216636E-0001	
 1.45250000000000E+0003	 1.53018898220567E-0001	
 1.45450000000000E+0003	 1.52766715224498E-0001	
 1.45650000000000E+0003	 1.51286032228430E-0001	
 1.45850000000000E+0003	 1.49757349232361E-0001	
 1.46050000000000E+0003	 1.49105166236292E-0001	
 1.46250000000000E+0003	 1.48386983240223E-0001	
 1.46450000000000E+0003	 1.46791800244155E-0001	
 1.46650000000000E+0003	 1.44856117248086E-0001	
 1.46850000000000E+0003	 1.42995934252017E-0001	
 1.47050000000000E+0003	 1.40688751255949E-0001	
 1.47250000000000E+0003	 1.37264568259880E-0001	
 1.47450000000000E+0003	 1.33863385263811E-0001	
 1.47650000000000E+0003	 1.31799202267743E-0001	
 1.47850000000000E+0003	 1.30532519271674E-0001	
 1.48050000000000E+0003	 1.29549336275605E-0001	
 1.48250000000000E+0003	 1.28796653279537E-0001	
 1.48450000000000E+0003	 1.28274470283468E-0001	
 1.48650000000000E+0003	 1.28057787287399E-0001	
 1.48850000000000E+0003	 1.27947604291330E-0001	
 1.49050000000000E+0003	 1.28341421295262E-0001	
 1.49250000000000E+0003	 1.29453238299193E-0001	
 1.49450000000000E+0003	 1.30854055303124E-0001	
 1.49650000000000E+0003	 1.32096372307056E-0001	
 1.49850000000000E+0003	 1.33618689310987E-0001	
 1.50050000000000E+0003	 1.35461006314918E-0001	
 1.50250000000000E+0003	 1.37383823318850E-0001	
 1.50450000000000E+0003	 1.39006640322781E-0001	
 1.50650000000000E+0003	 1.41014957326712E-0001	
 1.50850000000000E+0003	 1.43666774330643E-0001	
 1.51050000000000E+0003	 1.47424591334575E-0001	
 1.51250000000000E+0003	 1.51997408338506E-0001	
 1.51450000000000E+0003	 1.56000225342437E-0001	
 1.51650000000000E+0003	 1.59569042346369E-0001	
 1.51850000000000E+0003	 1.62354859350300E-0001	
 1.52050000000000E+0003	 1.64276676354231E-0001	
 1.52250000000000E+0003	 1.67071993358163E-0001	
 1.52450000000000E+0003	 1.70331810362094E-0001	
 1.52650000000000E+0003	 1.74034127366025E-0001	
 1.52850000000000E+0003	 1.77788444369957E-0001	
 1.53050000000000E+0003	 1.81280761373888E-0001	
 1.53250000000000E+0003	 1.84620578377819E-0001	
 1.53450000000000E+0003	 1.88295895381750E-0001	
 1.53650000000000E+0003	 1.91044212385682E-0001	
 1.53850000000000E+0003	 1.93556529389613E-0001	
 1.54050000000000E+0003	 1.96658846393544E-0001	
 1.54250000000000E+0003	 1.98994663397476E-0001	
 1.54450000000000E+0003	 2.01002480401407E-0001	
 1.54650000000000E+0003	 2.02599297405338E-0001	
 1.54850000000000E+0003	 2.03064114409270E-0001	
 1.55050000000000E+0003	 2.02150931413201E-0001	
 1.55250000000000E+0003	 2.00052748417132E-0001	
 1.55450000000000E+0003	 1.96976065421064E-0001	
 1.55650000000000E+0003	 1.93423882424995E-0001	
 1.55850000000000E+0003	 1.89438699428926E-0001	
 1.56050000000000E+0003	 1.84638516432857E-0001	
 1.56250000000000E+0003	 1.81599333436789E-0001	
 1.56450000000000E+0003	 1.80566650440720E-0001	
 1.56650000000000E+0003	 1.78369467444651E-0001	
 1.56850000000000E+0003	 1.75998284448583E-0001	
 1.57050000000000E+0003	 1.73766101452514E-0001	
 1.57250000000000E+0003	 1.71621418456445E-0001	
 1.57450000000000E+0003	 1.69857735460377E-0001	
 1.57650000000000E+0003	 1.67718052464308E-0001	
 1.57850000000000E+0003	 1.65814869468239E-0001	
 1.58050000000000E+0003	 1.65202686472170E-0001	
 1.58250000000000E+0003	 1.64542503476102E-0001	
 1.58450000000000E+0003	 1.63891320480033E-0001	
 1.58650000000000E+0003	 1.63612137483964E-0001	
 1.58850000000000E+0003	 1.63838454487896E-0001	
 1.59050000000000E+0003	 1.64494771491827E-0001	
 1.59250000000000E+0003	 1.65653588495758E-0001	
 1.59450000000000E+0003	 1.67184905499690E-0001	
 1.59650000000000E+0003	 1.69058222503621E-0001	
 1.59850000000000E+0003	 1.71129539507552E-0001	
 1.60050000000000E+0003	 1.73576856511484E-0001	
 1.60250000000000E+0003	 1.76346173515415E-0001	
 1.60450000000000E+0003	 1.79503490519346E-0001	
 1.60650000000000E+0003	 1.82986807523277E-0001	
 1.60850000000000E+0003	 1.87057624527209E-0001	
 1.61050000000000E+0003	 1.91630441531140E-0001	
 1.61250000000000E+0003	 1.96601758535071E-0001	
 1.61450000000000E+0003	 2.01597575539003E-0001	
 1.61650000000000E+0003	 2.07554392542934E-0001	
 1.61850000000000E+0003	 2.14131209546865E-0001	
 1.62050000000000E+0003	 2.20640526550797E-0001	
 1.62250000000000E+0003	 2.28182343554728E-0001	
 1.62450000000000E+0003	 2.36302160558659E-0001	
 1.62650000000000E+0003	 2.43917477562591E-0001	
 1.62850000000000E+0003	 2.52129294566522E-0001	
 1.63050000000000E+0003	 2.60007111570453E-0001	
 1.63250000000000E+0003	 2.66807928574384E-0001	
 1.63450000000000E+0003	 2.73310245578316E-0001	
 1.63650000000000E+0003	 2.80016562582247E-0001	
 1.63850000000000E+0003	 2.84699879586178E-0001	
 1.64050000000000E+0003	 2.88477196590110E-0001	
 1.64250000000000E+0003	 2.91448013594041E-0001	
 1.64450000000000E+0003	 2.93440330597972E-0001	
 1.64650000000000E+0003	 2.95831647601904E-0001	
 1.64850000000000E+0003	 2.98461964605835E-0001	
 1.65050000000000E+0003	 2.99942781609766E-0001	
 1.65250000000000E+0003	 3.00931598613697E-0001	
 1.65450000000000E+0003	 3.02057415617629E-0001	
 1.65650000000000E+0003	 3.01722232621560E-0001	
 1.65850000000000E+0003	 3.01241549625491E-0001	
 1.66050000000000E+0003	 2.98319366629423E-0001	
 1.66250000000000E+0003	 2.93832183633354E-0001	
 1.66450000000000E+0003	 2.88243500637285E-0001	
 1.66650000000000E+0003	 2.82676817641217E-0001	
 1.66850000000000E+0003	 2.77031634645148E-0001	
 1.67050000000000E+0003	 2.70939451649079E-0001	
 1.67250000000000E+0003	 2.65095768653011E-0001	
 1.67450000000000E+0003	 2.59698085656942E-0001	
 1.67650000000000E+0003	 2.53825402660873E-0001	
 1.67850000000000E+0003	 2.48495719664804E-0001	
 1.68050000000000E+0003	 2.43601036668736E-0001	
 1.68250000000000E+0003	 2.38386853672667E-0001	
 1.68450000000000E+0003	 2.32170670676598E-0001	
 1.68650000000000E+0003	 2.25596487680530E-0001	
 1.68850000000000E+0003	 2.21081804684461E-0001	
 1.69050000000000E+0003	 2.16466121688392E-0001	
 1.69250000000000E+0003	 2.11053438692324E-0001	
 1.69450000000000E+0003	 2.05275255696255E-0001	
 1.69650000000000E+0003	 1.98529572700186E-0001	
 1.69850000000000E+0003	 1.93079389704118E-0001	
 1.70050000000000E+0003	 1.88354206708049E-0001	
 1.70250000000000E+0003	 1.83551023711980E-0001	
 1.70450000000000E+0003	 1.80767840715911E-0001	
 1.70650000000000E+0003	 1.78004657719843E-0001	
 1.70850000000000E+0003	 1.74515974723774E-0001	
 1.71050000000000E+0003	 1.71236791727705E-0001	
 1.71250000000000E+0003	 1.67755608731637E-0001	
 1.71450000000000E+0003	 1.63848925735568E-0001	
 1.71650000000000E+0003	 1.59129242739499E-0001	
 1.71850000000000E+0003	 1.54085559743431E-0001	
 1.72050000000000E+0003	 1.49983376747362E-0001	
 1.72250000000000E+0003	 1.46828193751293E-0001	
 1.72450000000000E+0003	 1.43334510755224E-0001	
 1.72650000000000E+0003	 1.39939827759156E-0001	
 1.72850000000000E+0003	 1.36924644763087E-0001	
 1.73050000000000E+0003	 1.34220961767018E-0001	
 1.73250000000000E+0003	 1.31347278770950E-0001	
 1.73450000000000E+0003	 1.28208095774881E-0001	
 1.73650000000000E+0003	 1.25937412778812E-0001	
 1.73850000000000E+0003	 1.25417729782744E-0001	
 1.74050000000000E+0003	 1.24678546786675E-0001	
 1.74250000000000E+0003	 1.23240363790606E-0001	
 1.74450000000000E+0003	 1.21910680794538E-0001	
 1.74650000000000E+0003	 1.20633497798469E-0001	
 1.74850000000000E+0003	 1.19128814802400E-0001	
 1.75050000000000E+0003	 1.17045131806331E-0001	
 1.75250000000000E+0003	 1.14888948810263E-0001	
 1.75450000000000E+0003	 1.13661265814194E-0001	
 1.75650000000000E+0003	 1.12579582818125E-0001	
 1.75850000000000E+0003	 1.11040399822057E-0001	
 1.76050000000000E+0003	 1.09618216825988E-0001	
 1.76250000000000E+0003	 1.08402533829919E-0001	
 1.76450000000000E+0003	 1.07264850833851E-0001	
 1.76650000000000E+0003	 1.06390167837782E-0001	
 1.76850000000000E+0003	 1.05279984841713E-0001	
 1.77050000000000E+0003	 1.04420801845645E-0001	
 1.77250000000000E+0003	 1.03842618849576E-0001	
 1.77450000000000E+0003	 1.02873435853507E-0001	
 1.77650000000000E+0003	 1.02406752857438E-0001	
 1.77850000000000E+0003	 1.02167069861370E-0001	
 1.78050000000000E+0003	 1.01634886865301E-0001	
 1.78250000000000E+0003	 1.01002203869232E-0001	
 1.78450000000000E+0003	 1.00273520873164E-0001	
 1.78650000000000E+0003	 9.97123378770950E-0002	
 1.78850000000000E+0003	 9.93126548810263E-0002	
 1.79050000000000E+0003	 9.88234718849576E-0002	
 1.79250000000000E+0003	 9.81842888888889E-0002	
 1.79450000000000E+0003	 9.75661058928202E-0002	
 1.79650000000000E+0003	 9.72654228967515E-0002	
 1.79850000000000E+0003	 9.71262399006828E-0002	
 1.80050000000000E+0003	 9.66620569046141E-0002	
 1.80250000000000E+0003	 9.59878739085454E-0002	
 1.80450000000000E+0003	 9.56291909124767E-0002	
 1.80650000000000E+0003	 9.54855079164080E-0002	
 1.80850000000000E+0003	 9.51453249203393E-0002	
 1.81050000000000E+0003	 9.47961419242706E-0002	
 1.81250000000000E+0003	 9.44124589282019E-0002	
 1.81450000000000E+0003	 9.40692759321333E-0002	
 1.81650000000000E+0003	 9.37760929360646E-0002	
 1.81850000000000E+0003	 9.34469099399959E-0002	
 1.82050000000000E+0003	 9.31627269439272E-0002	
 1.82250000000000E+0003	 9.28475439478585E-0002	
 1.82450000000000E+0003	 9.24268609517898E-0002	
 1.82650000000000E+0003	 9.20226779557211E-0002	
 1.82850000000000E+0003	 9.17784949596524E-0002	
 1.83050000000000E+0003	 9.16968119635837E-0002	
 1.83250000000000E+0003	 9.12716289675150E-0002	
 1.83450000000000E+0003	 9.10624459714463E-0002	
 1.83650000000000E+0003	 9.09717629753776E-0002	
 1.83850000000000E+0003	 9.07605799793089E-0002	
 1.84050000000000E+0003	 9.04713969832402E-0002	
 1.84250000000000E+0003	 9.00692139871715E-0002	
 1.84450000000000E+0003	 8.96110309911028E-0002	
 1.84650000000000E+0003	 8.91953479950341E-0002	
 1.84850000000000E+0003	 8.92276649989654E-0002	
 1.85050000000000E+0003	 8.93944820028968E-0002	
 1.85250000000000E+0003	 8.93562990068281E-0002	
 1.85450000000000E+0003	 8.92396160107594E-0002	
 1.85650000000000E+0003	 8.90504330146907E-0002	
 1.85850000000000E+0003	 8.88547500186220E-0002	
 1.86050000000000E+0003	 8.86505670225533E-0002	
 1.86250000000000E+0003	 8.84878840264846E-0002	
 1.86450000000000E+0003	 8.83362010304159E-0002	
 1.86650000000000E+0003	 8.81570180343472E-0002	
 1.86850000000000E+0003	 8.79383350382785E-0002	
 1.87050000000000E+0003	 8.76521520422098E-0002	
 1.87250000000000E+0003	 8.75234690461411E-0002	
 1.87450000000000E+0003	 8.76687860500724E-0002	
 1.87650000000000E+0003	 8.76561030540037E-0002	
 1.87850000000000E+0003	 8.75354200579350E-0002	
 1.88050000000000E+0003	 8.74102370618663E-0002	
 1.88250000000000E+0003	 8.73165540657976E-0002	
 1.88450000000000E+0003	 8.72188710697289E-0002	
 1.88650000000000E+0003	 8.70861880736603E-0002	
 1.88850000000000E+0003	 8.69340050775916E-0002	
 1.89050000000000E+0003	 8.68083220815229E-0002	
 1.89250000000000E+0003	 8.66681390854542E-0002	
 1.89450000000000E+0003	 8.66499560893855E-0002	
 1.89650000000000E+0003	 8.66132730933168E-0002	
 1.89850000000000E+0003	 8.65380900972481E-0002	
 1.90050000000000E+0003	 8.64974071011794E-0002	
 1.90250000000000E+0003	 8.64387241051107E-0002	
 1.90450000000000E+0003	 8.63730411090420E-0002	
 1.90650000000000E+0003	 8.62908581129733E-0002	
 1.90850000000000E+0003	 8.61891751169046E-0002	
 1.91050000000000E+0003	 8.61149921208359E-0002	
 1.91250000000000E+0003	 8.60698091247672E-0002	
 1.91450000000000E+0003	 8.60386261286985E-0002	
 1.91650000000000E+0003	 8.59374431326298E-0002	
 1.91850000000000E+0003	 8.58027601365611E-0002	
 1.92050000000000E+0003	 8.56505771404924E-0002	
 1.92250000000000E+0003	 8.56603941444238E-0002	
 1.92450000000000E+0003	 8.57132111483551E-0002	
 1.92650000000000E+0003	 8.57475281522864E-0002	
 1.92850000000000E+0003	 8.58143451562177E-0002	
 1.93050000000000E+0003	 8.58091621601490E-0002	
 1.93250000000000E+0003	 8.57719791640803E-0002	
 1.93450000000000E+0003	 8.57382961680116E-0002	
 1.93650000000000E+0003	 8.57151131719429E-0002	
 1.93850000000000E+0003	 8.56894301758742E-0002	
 1.94050000000000E+0003	 8.56042471798055E-0002	
 1.94250000000000E+0003	 8.55100641837368E-0002	
 1.94450000000000E+0003	 8.54538811876681E-0002	
 1.94650000000000E+0003	 8.55141981915994E-0002	
 1.94850000000000E+0003	 8.56050151955307E-0002	
 1.95050000000000E+0003	 8.56183321994620E-0002	
 1.95250000000000E+0003	 8.56161492033933E-0002	
 1.95450000000000E+0003	 8.56044662073246E-0002	
 1.95650000000000E+0003	 8.55977832112559E-0002	
 1.95850000000000E+0003	 8.56086002151873E-0002	
 1.96050000000000E+0003	 8.56189172191186E-0002	
 1.96250000000000E+0003	 8.56187342230499E-0002	
 1.96450000000000E+0003	 8.55915512269812E-0002	
 1.96650000000000E+0003	 8.55453682309125E-0002	
 1.96850000000000E+0003	 8.55131852348438E-0002	
 1.97050000000000E+0003	 8.55440022387751E-0002	
 1.97250000000000E+0003	 8.56128192427064E-0002	
 1.97450000000000E+0003	 8.56421362466377E-0002	
 1.97650000000000E+0003	 8.56419532505690E-0002	
 1.97850000000000E+0003	 8.56447702545003E-0002	
 1.98050000000000E+0003	 8.56475872584316E-0002	
 1.98250000000000E+0003	 8.56574042623629E-0002	
 1.98450000000000E+0003	 8.56617212662942E-0002	
 1.98650000000000E+0003	 8.56540382702255E-0002	
 1.98850000000000E+0003	 8.56208552741568E-0002	
 1.99050000000000E+0003	 8.55666722780881E-0002	
 1.99250000000000E+0003	 8.55374892820194E-0002	
 1.99450000000000E+0003	 8.55698062859508E-0002	
 1.99650000000000E+0003	 8.56741232898821E-0002	
 1.99850000000000E+0003	 8.57634402938134E-0002	
 2.00050000000000E+0003	 8.57922572977447E-0002	
 2.00250000000000E+0003	 8.58235743016760E-0002	
 2.00450000000000E+0003	 8.58543913056073E-0002	
 2.00650000000000E+0003	 8.58867083095386E-0002	
 2.00850000000000E+0003	 8.59175253134699E-0002	
 2.01050000000000E+0003	 8.59588423174012E-0002	
 2.01250000000000E+0003	 8.60021593213325E-0002	
 2.01450000000000E+0003	 8.60294763252638E-0002	
 2.01650000000000E+0003	 8.60242933291951E-0002	
 2.01850000000000E+0003	 8.60366103331264E-0002	
 2.02050000000000E+0003	 8.61109273370577E-0002	
 2.02250000000000E+0003	 8.62187443409890E-0002	
 2.02450000000000E+0003	 8.62890613449203E-0002	
 2.02650000000000E+0003	 8.63498783488516E-0002	
 2.02850000000000E+0003	 8.64101953527830E-0002	
 2.03050000000000E+0003	 8.64675123567143E-0002	
 2.03250000000000E+0003	 8.65128293606456E-0002	
 2.03450000000000E+0003	 8.65591463645769E-0002	
 2.03650000000000E+0003	 8.66034633685082E-0002	
 2.03850000000000E+0003	 8.66422803724395E-0002	
 2.04050000000000E+0003	 8.66630973763708E-0002	
 2.04250000000000E+0003	 8.66914143803021E-0002	
 2.04450000000000E+0003	 8.67442313842334E-0002	
 2.04650000000000E+0003	 8.68050483881647E-0002	
 2.04850000000000E+0003	 8.68448653920960E-0002	
 2.05050000000000E+0003	 8.68796823960273E-0002	
 2.05250000000000E+0003	 8.69089993999586E-0002	
 2.05450000000000E+0003	 8.69363164038899E-0002	
 2.05650000000000E+0003	 8.69601334078212E-0002	
 2.05850000000000E+0003	 8.69849504117525E-0002	
 2.06050000000000E+0003	 8.70027674156838E-0002	
 2.06250000000000E+0003	 8.70075844196151E-0002	
 2.06450000000000E+0003	 8.69919014235465E-0002	
 2.06650000000000E+0003	 8.69932184274778E-0002	
 2.06850000000000E+0003	 8.70330354314091E-0002	
 2.07050000000000E+0003	 8.70858524353404E-0002	
 2.07250000000000E+0003	 8.71096694392717E-0002	
 2.07450000000000E+0003	 8.71249864432030E-0002	
 2.07650000000000E+0003	 8.71343034471343E-0002	
 2.07850000000000E+0003	 8.71431204510656E-0002	
 2.08050000000000E+0003	 8.71544374549969E-0002	
 2.08250000000000E+0003	 8.71642544589282E-0002	
 2.08450000000000E+0003	 8.71690714628595E-0002	
 2.08650000000000E+0003	 8.71718884667908E-0002	
 2.08850000000000E+0003	 8.71647054707221E-0002	
 2.09050000000000E+0003	 8.71535224746534E-0002	
 2.09250000000000E+0003	 8.71598394785847E-0002	
 2.09450000000000E+0003	 8.71796564825160E-0002	
 2.09650000000000E+0003	 8.71874734864473E-0002	
 2.09850000000000E+0003	 8.71837904903786E-0002	
 2.10050000000000E+0003	 8.71766074943100E-0002	
 2.10250000000000E+0003	 8.71719244982413E-0002	
 2.10450000000000E+0003	 8.71642415021726E-0002	
 2.10650000000000E+0003	 8.71530585061039E-0002	
 2.10850000000000E+0003	 8.71358755100352E-0002	
 2.11050000000000E+0003	 8.71206925139665E-0002	
 2.11250000000000E+0003	 8.71030095178978E-0002	
 2.11450000000000E+0003	 8.70783265218291E-0002	
 2.11650000000000E+0003	 8.70556435257604E-0002	
 2.11850000000000E+0003	 8.70474605296917E-0002	
 2.12050000000000E+0003	 8.70332775336230E-0002	
 2.12250000000000E+0003	 8.70155945375543E-0002	
 2.12450000000000E+0003	 8.69954115414856E-0002	
 2.12650000000000E+0003	 8.69772285454169E-0002	
 2.12850000000000E+0003	 8.69565455493482E-0002	
 2.13050000000000E+0003	 8.69363625532795E-0002	
 2.13250000000000E+0003	 8.69136795572108E-0002	
 2.13450000000000E+0003	 8.68899965611421E-0002	
 2.13650000000000E+0003	 8.68588135650735E-0002	
 2.13850000000000E+0003	 8.68341305690048E-0002	
 2.14050000000000E+0003	 8.68169475729361E-0002	
 2.14250000000000E+0003	 8.67987645768674E-0002	
 2.14450000000000E+0003	 8.67710815807987E-0002	
 2.14650000000000E+0003	 8.67438985847300E-0002	
 2.14850000000000E+0003	 8.67127155886613E-0002	
 2.15050000000000E+0003	 8.66805325925926E-0002	
 2.15250000000000E+0003	 8.66453495965239E-0002	
 2.15450000000000E+0003	 8.66141666004552E-0002	
 2.15650000000000E+0003	 8.65799836043865E-0002	
 2.15850000000000E+0003	 8.65433006083178E-0002	
 2.16050000000000E+0003	 8.64971176122491E-0002	
 2.16250000000000E+0003	 8.64464346161804E-0002	
 2.16450000000000E+0003	 8.63977516201117E-0002	
 2.16650000000000E+0003	 8.63595686240430E-0002	
 2.16850000000000E+0003	 8.63233856279743E-0002	
 2.17050000000000E+0003	 8.62762026319056E-0002	
 2.17250000000000E+0003	 8.62110196358370E-0002	
 2.17450000000000E+0003	 8.61503366397683E-0002	
 2.17650000000000E+0003	 8.60926536436996E-0002	
 2.17850000000000E+0003	 8.60334706476309E-0002	
 2.18050000000000E+0003	 8.59752876515622E-0002	
 2.18250000000000E+0003	 8.59211046554935E-0002	
 2.18450000000000E+0003	 8.58654216594248E-0002	
 2.18650000000000E+0003	 8.58122386633561E-0002	
 2.18850000000000E+0003	 8.57605556672874E-0002	
 2.19050000000000E+0003	 8.57083726712187E-0002	
 2.19250000000000E+0003	 8.56541896751500E-0002	
 2.19450000000000E+0003	 8.55995066790813E-0002	
 2.19650000000000E+0003	 8.55428236830126E-0002	
 2.19850000000000E+0003	 8.54896406869439E-0002	
 2.20050000000000E+0003	 8.54364576908752E-0002	
 2.20250000000000E+0003	 8.53862746948065E-0002	
 2.20450000000000E+0003	 8.53320916987378E-0002	
 2.20650000000000E+0003	 8.52764087026691E-0002	
 2.20850000000000E+0003	 8.52197257066005E-0002	
 2.21050000000000E+0003	 8.51670427105318E-0002	
 2.21250000000000E+0003	 8.51143597144631E-0002	
 2.21450000000000E+0003	 8.50631767183944E-0002	
 2.21650000000000E+0003	 8.50124937223257E-0002	
 2.21850000000000E+0003	 8.49648107262570E-0002	
 2.22050000000000E+0003	 8.49121277301883E-0002	
 2.22250000000000E+0003	 8.48599447341196E-0002	
 2.22450000000000E+0003	 8.48087617380509E-0002	
 2.22650000000000E+0003	 8.47600787419822E-0002	
 2.22850000000000E+0003	 8.47108957459135E-0002	
 2.23050000000000E+0003	 8.46657127498448E-0002	
 2.23250000000000E+0003	 8.46230297537761E-0002	
 2.23450000000000E+0003	 8.45803467577074E-0002	
 2.23650000000000E+0003	 8.45336637616387E-0002	
 2.23850000000000E+0003	 8.44909807655700E-0002	
 2.24050000000000E+0003	 8.44487977695013E-0002	
 2.24250000000000E+0003	 8.44086147734327E-0002	
 2.24450000000000E+0003	 8.43664317773640E-0002	
 2.24650000000000E+0003	 8.43302487812953E-0002	
 2.24850000000000E+0003	 8.42955657852266E-0002	
 2.25050000000000E+0003	 8.42608827891579E-0002	
 2.25250000000000E+0003	 8.42196997930892E-0002	
 2.25450000000000E+0003	 8.41810167970205E-0002	
 2.25650000000000E+0003	 8.41493338009518E-0002	
 2.25850000000000E+0003	 8.41231508048831E-0002	
 2.26050000000000E+0003	 8.40969678088144E-0002	
 2.26250000000000E+0003	 8.40712848127457E-0002	
 2.26450000000000E+0003	 8.40466018166770E-0002	
 2.26650000000000E+0003	 8.40239188206083E-0002	
 2.26850000000000E+0003	 8.39987358245396E-0002	
 2.27050000000000E+0003	 8.39735528284709E-0002	
 2.27250000000000E+0003	 8.39458698324022E-0002	
 2.27450000000000E+0003	 8.39196868363335E-0002	
 2.27650000000000E+0003	 8.38880038402648E-0002	
 2.27850000000000E+0003	 8.38428208441962E-0002	
 2.28050000000000E+0003	 8.37866378481275E-0002	
 2.28250000000000E+0003	 8.37344548520588E-0002	
 2.28450000000000E+0003	 8.37042718559901E-0002	
 2.28650000000000E+0003	 8.36780888599214E-0002	
 2.28850000000000E+0003	 8.36309058638527E-0002	
 2.29050000000000E+0003	 8.35722228677840E-0002	
 2.29250000000000E+0003	 8.34980398717153E-0002	
 2.29450000000000E+0003	 8.34158568756466E-0002	
 2.29650000000000E+0003	 8.33506738795779E-0002	
 2.29850000000000E+0003	 8.33154908835092E-0002	
 2.30050000000000E+0003	 8.33173078874405E-0002	
 2.30250000000000E+0003	 8.33686248913718E-0002	
 2.30450000000000E+0003	 8.34239418953031E-0002	
 2.30650000000000E+0003	 8.34327588992344E-0002	
 2.30850000000000E+0003	 8.34300759031657E-0002	
 2.31050000000000E+0003	 8.34498929070970E-0002	
 2.31250000000000E+0003	 8.34637099110283E-0002	
 2.31450000000000E+0003	 8.33505269149597E-0002	
 2.31650000000000E+0003	 8.31433439188910E-0002	
 2.31850000000000E+0003	 8.30496609228223E-0002	
 2.32050000000000E+0003	 8.29899779267536E-0002	
 2.32250000000000E+0003	 8.28742949306849E-0002	
 2.32450000000000E+0003	 8.27796119346162E-0002	
 2.32650000000000E+0003	 8.28349289385475E-0002	
 2.32850000000000E+0003	 8.30727459424788E-0002	
 2.33050000000000E+0003	 8.32765629464101E-0002	
 2.33250000000000E+0003	 8.33498799503414E-0002	
 2.33450000000000E+0003	 8.34686969542727E-0002	
 2.33650000000000E+0003	 8.36185139582040E-0002	
 2.33850000000000E+0003	 8.36148309621353E-0002	
 2.34050000000000E+0003	 8.34571479660666E-0002	
 2.34250000000000E+0003	 8.33339649699979E-0002	
 2.34450000000000E+0003	 8.35927819739292E-0002	
 2.34650000000000E+0003	 8.36420989778605E-0002	
 2.34850000000000E+0003	 8.34164159817918E-0002	
 2.35050000000000E+0003	 8.37757329857232E-0002	
 2.35250000000000E+0003	 8.40615499896545E-0002	
 2.35450000000000E+0003	 8.38008669935858E-0002	
 2.35650000000000E+0003	 8.37041839975171E-0002	
 2.35850000000000E+0003	 8.38905010014484E-0002	
 2.36050000000000E+0003	 8.41098180053797E-0002	
 2.36250000000000E+0003	 8.41421350093110E-0002	
 2.36450000000000E+0003	 8.39629520132423E-0002	
 2.36650000000000E+0003	 8.36822690171736E-0002	
 2.36850000000000E+0003	 8.34260860211049E-0002	
 2.37050000000000E+0003	 8.33784030250362E-0002	
 2.37250000000000E+0003	 8.37457200289675E-0002	
 2.37450000000000E+0003	 8.43945370328988E-0002	
 2.37650000000000E+0003	 8.48133540368301E-0002	
 2.37850000000000E+0003	 8.46881710407614E-0002	
 2.38050000000000E+0003	 8.42744880446927E-0002	
 2.38250000000000E+0003	 8.40243050486240E-0002	
 2.38450000000000E+0003	 8.40851220525553E-0002	
 2.38650000000000E+0003	 8.43054390564867E-0002	
 2.38850000000000E+0003	 8.45137560604180E-0002	
 2.39050000000000E+0003	 8.46575730643493E-0002	
 2.39250000000000E+0003	 8.47533900682806E-0002	
 2.39450000000000E+0003	 8.48252070722119E-0002	
 2.39650000000000E+0003	 8.48875240761432E-0002	
 2.39850000000000E+0003	 8.49483410800745E-0002	
 2.40050000000000E+0003	 8.50161580840058E-0002	
 2.40250000000000E+0003	 8.50864750879371E-0002	
 2.40450000000000E+0003	 8.51587920918684E-0002	
 2.40650000000000E+0003	 8.52361090957997E-0002	
 2.40850000000000E+0003	 8.53134260997310E-0002	
 2.41050000000000E+0003	 8.53937431036623E-0002	
 2.41250000000000E+0003	 8.54790601075936E-0002	
 2.41450000000000E+0003	 8.55658771115249E-0002	
 2.41650000000000E+0003	 8.56561941154562E-0002	
 2.41850000000000E+0003	 8.57480111193875E-0002	
 2.42050000000000E+0003	 8.58413281233188E-0002	
 2.42250000000000E+0003	 8.59376451272502E-0002	
 2.42450000000000E+0003	 8.60414621311815E-0002	
 2.42650000000000E+0003	 8.61497791351128E-0002	
 2.42850000000000E+0003	 8.62560961390441E-0002	
 2.43050000000000E+0003	 8.63594131429754E-0002	
 2.43250000000000E+0003	 8.64657301469067E-0002	
 2.43450000000000E+0003	 8.65750471508380E-0002	
 2.43650000000000E+0003	 8.66898641547693E-0002	
 2.43850000000000E+0003	 8.68046811587006E-0002	
 2.44050000000000E+0003	 8.69169981626319E-0002	
 2.44250000000000E+0003	 8.70323151665632E-0002	
 2.44450000000000E+0003	 8.71511321704945E-0002	
 2.44650000000000E+0003	 8.72674491744258E-0002	
 2.44850000000000E+0003	 8.73817661783571E-0002	
 2.45050000000000E+0003	 8.74950831822884E-0002	
 2.45250000000000E+0003	 8.76134001862197E-0002	
 2.45450000000000E+0003	 8.77347171901510E-0002	
 2.45650000000000E+0003	 8.78590341940824E-0002	
 2.45850000000000E+0003	 8.79838511980137E-0002	
 2.46050000000000E+0003	 8.81096682019450E-0002	
 2.46250000000000E+0003	 8.82374852058763E-0002	
 2.46450000000000E+0003	 8.83698022098076E-0002	
 2.46650000000000E+0003	 8.85031192137389E-0002	
 2.46850000000000E+0003	 8.86384362176702E-0002	
 2.47050000000000E+0003	 8.87747532216015E-0002	
 2.47250000000000E+0003	 8.89130702255328E-0002	
 2.47450000000000E+0003	 8.90503872294641E-0002	
 2.47650000000000E+0003	 8.91857042333954E-0002	
 2.47850000000000E+0003	 8.93205212373267E-0002	
 2.48050000000000E+0003	 8.94573382412580E-0002	
 2.48250000000000E+0003	 8.95916552451893E-0002	
 2.48450000000000E+0003	 8.97244722491206E-0002	
 2.48650000000000E+0003	 8.98557892530519E-0002	
 2.48850000000000E+0003	 8.99886062569832E-0002	
 2.49050000000000E+0003	 9.01219232609145E-0002	
 2.49250000000000E+0003	 9.02542402648459E-0002	
 2.49450000000000E+0003	 9.03830572687772E-0002	
 2.49650000000000E+0003	 9.05128742727085E-0002	
 2.49850000000000E+0003	 9.06436912766398E-0002	
 2.50050000000000E+0003	 9.07755082805711E-0002	
 2.50250000000000E+0003	 9.09028252845024E-0002	
 2.50450000000000E+0003	 9.10306422884337E-0002	
 2.50650000000000E+0003	 9.11589592923650E-0002	
 2.50850000000000E+0003	 9.12867762962963E-0002	
 2.51050000000000E+0003	 9.14095933002276E-0002	
 2.51250000000000E+0003	 9.15299103041589E-0002	
 2.51450000000000E+0003	 9.16467273080902E-0002	
 2.51650000000000E+0003	 9.17625443120215E-0002	
 2.51850000000000E+0003	 9.18773613159528E-0002	
 2.52050000000000E+0003	 9.19921783198841E-0002	
 2.52250000000000E+0003	 9.21019953238154E-0002	
 2.52450000000000E+0003	 9.22113123277467E-0002	
 2.52650000000000E+0003	 9.23216293316780E-0002	
 2.52850000000000E+0003	 9.24334463356094E-0002	
 2.53050000000000E+0003	 9.25437633395407E-0002	
 2.53250000000000E+0003	 9.26525803434720E-0002	
 2.53450000000000E+0003	 9.27633973474033E-0002	
 2.53650000000000E+0003	 9.28772143513346E-0002	
 2.53850000000000E+0003	 9.29905313552659E-0002	
 2.54050000000000E+0003	 9.31023483591972E-0002	
 2.54250000000000E+0003	 9.32161653631285E-0002	
 2.54450000000000E+0003	 9.33329823670598E-0002	
 2.54650000000000E+0003	 9.34522993709911E-0002	
 2.54850000000000E+0003	 9.35751163749224E-0002	
 2.55050000000000E+0003	 9.36974333788537E-0002	
 2.55250000000000E+0003	 9.38157503827850E-0002	
 2.55450000000000E+0003	 9.39310673867163E-0002	
 2.55650000000000E+0003	 9.40508843906476E-0002	
 2.55850000000000E+0003	 9.41767013945789E-0002	
 2.56050000000000E+0003	 9.43015183985102E-0002	
 2.56250000000000E+0003	 9.44253354024415E-0002	
 2.56450000000000E+0003	 9.45506524063729E-0002	
 2.56650000000000E+0003	 9.46744694103042E-0002	
 2.56850000000000E+0003	 9.47967864142355E-0002	
 2.57050000000000E+0003	 9.49231034181668E-0002	
 2.57250000000000E+0003	 9.50539204220981E-0002	
 2.57450000000000E+0003	 9.51932374260294E-0002	
 2.57650000000000E+0003	 9.53395544299607E-0002	
 2.57850000000000E+0003	 9.54888714338920E-0002	
 2.58050000000000E+0003	 9.56406884378233E-0002	
 2.58250000000000E+0003	 9.57945054417546E-0002	
 2.58450000000000E+0003	 9.59513224456859E-0002	
 2.58650000000000E+0003	 9.61146394496172E-0002	
 2.58850000000000E+0003	 9.62849564535485E-0002	
 2.59050000000000E+0003	 9.64572734574798E-0002	
 2.59250000000000E+0003	 9.66305904614111E-0002	
 2.59450000000000E+0003	 9.68079074653424E-0002	
 2.59650000000000E+0003	 9.69912244692737E-0002	
 2.59850000000000E+0003	 9.71740414732050E-0002	
 2.60050000000000E+0003	 9.73583584771364E-0002	
 2.60250000000000E+0003	 9.75441754810677E-0002	
 2.60450000000000E+0003	 9.77329924849990E-0002	
 2.60650000000000E+0003	 9.79223094889303E-0002	
 2.60850000000000E+0003	 9.81146264928616E-0002	
 2.61050000000000E+0003	 9.83094434967929E-0002	
 2.61250000000000E+0003	 9.85087605007242E-0002	
 2.61450000000000E+0003	 9.87090775046555E-0002	
 2.61650000000000E+0003	 9.89083945085868E-0002	
 2.61850000000000E+0003	 9.91062115125181E-0002	
 2.62050000000000E+0003	 9.93080285164494E-0002	
 2.62250000000000E+0003	 9.95113455203807E-0002	
 2.62450000000000E+0003	 9.97206625243120E-0002	
 2.62650000000000E+0003	 9.99319795282433E-0002	
 2.62850000000000E+0003	 1.00140296532175E-0001	
 2.63050000000000E+0003	 1.00348613536106E-0001	
 2.63250000000000E+0003	 1.00561430540037E-0001	
 2.63450000000000E+0003	 1.00773747543969E-0001	
 2.63650000000000E+0003	 1.00989064547900E-0001	
 2.63850000000000E+0003	 1.01207881551831E-0001	
 2.64050000000000E+0003	 1.01422198555762E-0001	
 2.64250000000000E+0003	 1.01635515559694E-0001	
 2.64450000000000E+0003	 1.01851332563625E-0001	
 2.64650000000000E+0003	 1.02068649567556E-0001	
 2.64850000000000E+0003	 1.02288966571488E-0001	
 2.65050000000000E+0003	 1.02508783575419E-0001	
 2.65250000000000E+0003	 1.02730100579350E-0001	
 2.65450000000000E+0003	 1.02948917583282E-0001	
 2.65650000000000E+0003	 1.03169234587213E-0001	
 2.65850000000000E+0003	 1.03389551591144E-0001	
 2.66050000000000E+0003	 1.03608368595076E-0001	
 2.66250000000000E+0003	 1.03827185599007E-0001	
 2.66450000000000E+0003	 1.04051502602938E-0001	
 2.66650000000000E+0003	 1.04274319606869E-0001	
 2.66850000000000E+0003	 1.04494636610801E-0001	
 2.67050000000000E+0003	 1.04714453614732E-0001	
 2.67250000000000E+0003	 1.04937270618663E-0001	
 2.67450000000000E+0003	 1.05158087622595E-0001	
 2.67650000000000E+0003	 1.05383404626526E-0001	
 2.67850000000000E+0003	 1.05609221630457E-0001	
 2.68050000000000E+0003	 1.05826038634389E-0001	
 2.68250000000000E+0003	 1.06029355638320E-0001	
 2.68450000000000E+0003	 1.06232172642251E-0001	
 2.68650000000000E+0003	 1.06440989646182E-0001	
 2.68850000000000E+0003	 1.06651806650114E-0001	
 2.69050000000000E+0003	 1.06861623654045E-0001	
 2.69250000000000E+0003	 1.07071940657976E-0001	
 2.69450000000000E+0003	 1.07281757661908E-0001	
 2.69650000000000E+0003	 1.07495074665839E-0001	
 2.69850000000000E+0003	 1.07713891669770E-0001	
 2.70050000000000E+0003	 1.07935208673702E-0001	
 2.70250000000000E+0003	 1.08157025677633E-0001	
 2.70450000000000E+0003	 1.08385842681564E-0001	
 2.70650000000000E+0003	 1.08619659685496E-0001	
 2.70850000000000E+0003	 1.08864976689427E-0001	
 2.71050000000000E+0003	 1.09117793693358E-0001	
 2.71250000000000E+0003	 1.09371610697289E-0001	
 2.71450000000000E+0003	 1.09631927701221E-0001	
 2.71650000000000E+0003	 1.09901244705152E-0001	
 2.71850000000000E+0003	 1.10172061709083E-0001	
 2.72050000000000E+0003	 1.10451878713015E-0001	
 2.72250000000000E+0003	 1.10738695716946E-0001	
 2.72450000000000E+0003	 1.11027012720877E-0001	
 2.72650000000000E+0003	 1.11312329724809E-0001	
 2.72850000000000E+0003	 1.11578646728740E-0001	
 2.73050000000000E+0003	 1.11839463732671E-0001	
 2.73250000000000E+0003	 1.12106780736603E-0001	
 2.73450000000000E+0003	 1.12371097740534E-0001	
 2.73650000000000E+0003	 1.12640414744465E-0001	
 2.73850000000000E+0003	 1.12902731748396E-0001	
 2.74050000000000E+0003	 1.13150548752328E-0001	
 2.74250000000000E+0003	 1.13399865756259E-0001	
 2.74450000000000E+0003	 1.13655682760190E-0001	
 2.74650000000000E+0003	 1.13917499764122E-0001	
 2.74850000000000E+0003	 1.14177816768053E-0001	
 2.75050000000000E+0003	 1.14420633771984E-0001	
 2.75250000000000E+0003	 1.14657950775916E-0001	
 2.75450000000000E+0003	 1.14909267779847E-0001	
 2.75650000000000E+0003	 1.15177084783778E-0001	
 2.75850000000000E+0003	 1.15447901787709E-0001	
 2.76050000000000E+0003	 1.15721218791641E-0001	
 2.76250000000000E+0003	 1.16001535795572E-0001	
 2.76450000000000E+0003	 1.16291352799503E-0001	
 2.76650000000000E+0003	 1.16581169803435E-0001	
 2.76850000000000E+0003	 1.16870486807366E-0001	
 2.77050000000000E+0003	 1.17163303811297E-0001	
 2.77250000000000E+0003	 1.17474620815229E-0001	
 2.77450000000000E+0003	 1.17802937819160E-0001	
 2.77650000000000E+0003	 1.18118254823091E-0001	
 2.77850000000000E+0003	 1.18417571827023E-0001	
 2.78050000000000E+0003	 1.18741388830954E-0001	
 2.78250000000000E+0003	 1.19085205834885E-0001	
 2.78450000000000E+0003	 1.19435022838816E-0001	
 2.78650000000000E+0003	 1.19800839842748E-0001	
 2.78850000000000E+0003	 1.20195656846679E-0001	
 2.79050000000000E+0003	 1.20581973850610E-0001	
 2.79250000000000E+0003	 1.20948790854542E-0001	
 2.79450000000000E+0003	 1.21326107858473E-0001	
 2.79650000000000E+0003	 1.21730924862404E-0001	
 2.79850000000000E+0003	 1.22146241866336E-0001	
 2.80050000000000E+0003	 1.22543558870267E-0001	
 2.80250000000000E+0003	 1.22940875874198E-0001	
 2.80450000000000E+0003	 1.23362692878130E-0001	
 2.80650000000000E+0003	 1.23796009882061E-0001	
 2.80850000000000E+0003	 1.24246326885992E-0001	
 2.81050000000000E+0003	 1.24701643889923E-0001	
 2.81250000000000E+0003	 1.25146960893855E-0001	
 2.81450000000000E+0003	 1.25598777897786E-0001	
 2.81650000000000E+0003	 1.26074094901717E-0001	
 2.81850000000000E+0003	 1.26566911905649E-0001	
 2.82050000000000E+0003	 1.27073728909580E-0001	
 2.82250000000000E+0003	 1.27594545913511E-0001	
 2.82450000000000E+0003	 1.28137362917443E-0001	
 2.82650000000000E+0003	 1.28701179921374E-0001	
 2.82850000000000E+0003	 1.29292996925305E-0001	
 2.83050000000000E+0003	 1.29920813929236E-0001	
 2.83250000000000E+0003	 1.30598130933168E-0001	
 2.83450000000000E+0003	 1.31332947937099E-0001	
 2.83650000000000E+0003	 1.32155264941030E-0001	
 2.83850000000000E+0003	 1.33095081944962E-0001	
 2.84050000000000E+0003	 1.34129898948893E-0001	
 2.84250000000000E+0003	 1.35342715952824E-0001	
 2.84450000000000E+0003	 1.36890532956756E-0001	
 2.84650000000000E+0003	 1.38791849960687E-0001	
 2.84850000000000E+0003	 1.40920666964618E-0001	
 2.85050000000000E+0003	 1.43008483968550E-0001	
 2.85250000000000E+0003	 1.44764800972481E-0001	
 2.85450000000000E+0003	 1.45971617976412E-0001	
 2.85650000000000E+0003	 1.46653434980343E-0001	
 2.85850000000000E+0003	 1.47045251984275E-0001	
 2.86050000000000E+0003	 1.47399068988206E-0001	
 2.86250000000000E+0003	 1.47868885992137E-0001	
 2.86450000000000E+0003	 1.48576702996069E-0001	
 2.86650000000000E+0003	 1.49528520000000E-0001	
 2.86850000000000E+0003	 1.50645337003931E-0001	
 2.87050000000000E+0003	 1.51833654007863E-0001	
 2.87250000000000E+0003	 1.52965471011794E-0001	
 2.87450000000000E+0003	 1.53805288015725E-0001	
 2.87650000000000E+0003	 1.54290605019657E-0001	
 2.87850000000000E+0003	 1.54585922023588E-0001	
 2.88050000000000E+0003	 1.54810239027519E-0001	
 2.88250000000000E+0003	 1.55028056031450E-0001	
 2.88450000000000E+0003	 1.55298373035382E-0001	
 2.88650000000000E+0003	 1.55648690039313E-0001	
 2.88850000000000E+0003	 1.56098507043244E-0001	
 2.89050000000000E+0003	 1.56641824047176E-0001	
 2.89250000000000E+0003	 1.57269641051107E-0001	
 2.89450000000000E+0003	 1.57993458055038E-0001	
 2.89650000000000E+0003	 1.58783775058970E-0001	
 2.89850000000000E+0003	 1.59594092062901E-0001	
 2.90050000000000E+0003	 1.60479409066832E-0001	
 2.90250000000000E+0003	 1.61490226070764E-0001	
 2.90450000000000E+0003	 1.62635543074695E-0001	
 2.90650000000000E+0003	 1.63923860078626E-0001	
 2.90850000000000E+0003	 1.65412677082557E-0001	
 2.91050000000000E+0003	 1.67155494086489E-0001	
 2.91250000000000E+0003	 1.69181311090420E-0001	
 2.91450000000000E+0003	 1.71393128094351E-0001	
 2.91650000000000E+0003	 1.73682945098283E-0001	
 2.91850000000000E+0003	 1.75984262102214E-0001	
 2.92050000000000E+0003	 1.78145079106145E-0001	
 2.92250000000000E+0003	 1.80011396110077E-0001	
 2.92450000000000E+0003	 1.81473713114008E-0001	
 2.92650000000000E+0003	 1.82508030117939E-0001	
 2.92850000000000E+0003	 1.83186347121870E-0001	
 2.93050000000000E+0003	 1.83501664125802E-0001	
 2.93250000000000E+0003	 1.83432481129733E-0001	
 2.93450000000000E+0003	 1.83051798133664E-0001	
 2.93650000000000E+0003	 1.82368615137596E-0001	
 2.93850000000000E+0003	 1.81372932141527E-0001	
 2.94050000000000E+0003	 1.80147249145458E-0001	
 2.94250000000000E+0003	 1.78850566149390E-0001	
 2.94450000000000E+0003	 1.77581383153321E-0001	
 2.94650000000000E+0003	 1.76411700157252E-0001	
 2.94850000000000E+0003	 1.75465517161184E-0001	
 2.95050000000000E+0003	 1.74889834165115E-0001	
 2.95250000000000E+0003	 1.74711151169046E-0001	
 2.95450000000000E+0003	 1.74733468172977E-0001	
 2.95650000000000E+0003	 1.74829785176909E-0001	
 2.95850000000000E+0003	 1.74900102180840E-0001	
 2.96050000000000E+0003	 1.74799919184771E-0001	
 2.96250000000000E+0003	 1.74412236188703E-0001	
 2.96450000000000E+0003	 1.73682553192634E-0001	
 2.96650000000000E+0003	 1.72609870196565E-0001	
 2.96850000000000E+0003	 1.71252687200497E-0001	
 2.97050000000000E+0003	 1.69892004204428E-0001	
 2.97250000000000E+0003	 1.68814321208359E-0001	
 2.97450000000000E+0003	 1.67853138212291E-0001	
 2.97650000000000E+0003	 1.66803955216222E-0001	
 2.97850000000000E+0003	 1.65733272220153E-0001	
 2.98050000000000E+0003	 1.64679089224084E-0001	
 2.98250000000000E+0003	 1.63608406228016E-0001	
 2.98450000000000E+0003	 1.62582723231947E-0001	
 2.98650000000000E+0003	 1.61667540235878E-0001	
 2.98850000000000E+0003	 1.60867357239810E-0001	
 2.99050000000000E+0003	 1.60198174243741E-0001	
 2.99250000000000E+0003	 1.59638991247672E-0001	
 2.99450000000000E+0003	 1.59123808251604E-0001	
 2.99650000000000E+0003	 1.58741125255535E-0001	
 2.99850000000000E+0003	 1.58506942259466E-0001	
 3.00050000000000E+0003	 1.58367259263397E-0001	
 3.00250000000000E+0003	 1.58373576267329E-0001	
 3.00450000000000E+0003	 1.58517393271260E-0001	
 3.00650000000000E+0003	 1.58761710275191E-0001	
 3.00850000000000E+0003	 1.59140027279123E-0001	
 3.01050000000000E+0003	 1.59670344283054E-0001	
 3.01250000000000E+0003	 1.60263661286985E-0001	
 3.01450000000000E+0003	 1.60824478290917E-0001	
 3.01650000000000E+0003	 1.61386795294848E-0001	
 3.01850000000000E+0003	 1.62045112298779E-0001	
 3.02050000000000E+0003	 1.62778429302711E-0001	
 3.02250000000000E+0003	 1.63568746306642E-0001	
 3.02450000000000E+0003	 1.64439063310573E-0001	
 3.02650000000000E+0003	 1.65316380314504E-0001	
 3.02850000000000E+0003	 1.66213697318436E-0001	
 3.03050000000000E+0003	 1.67163014322367E-0001	
 3.03250000000000E+0003	 1.68150831326298E-0001	
 3.03450000000000E+0003	 1.69147648330230E-0001	
 3.03650000000000E+0003	 1.70097465334161E-0001	
 3.03850000000000E+0003	 1.71070282338092E-0001	
 3.04050000000000E+0003	 1.72152599342024E-0001	
 3.04250000000000E+0003	 1.73253916345955E-0001	
 3.04450000000000E+0003	 1.74287733349886E-0001	
 3.04650000000000E+0003	 1.75279550353818E-0001	
 3.04850000000000E+0003	 1.76311867357749E-0001	
 3.05050000000000E+0003	 1.77417684361680E-0001	
 3.05250000000000E+0003	 1.78509501365611E-0001	
 3.05450000000000E+0003	 1.79579318369543E-0001	
 3.05650000000000E+0003	 1.80653635373474E-0001	
 3.05850000000000E+0003	 1.81690952377405E-0001	
 3.06050000000000E+0003	 1.82695269381337E-0001	
 3.06250000000000E+0003	 1.83685586385268E-0001	
 3.06450000000000E+0003	 1.84662903389199E-0001	
 3.06650000000000E+0003	 1.85627220393131E-0001	
 3.06850000000000E+0003	 1.86521537397062E-0001	
 3.07050000000000E+0003	 1.87327854400993E-0001	
 3.07250000000000E+0003	 1.88133171404924E-0001	
 3.07450000000000E+0003	 1.88973488408856E-0001	
 3.07650000000000E+0003	 1.89869305412787E-0001	
 3.07850000000000E+0003	 1.90771122416718E-0001	
 3.08050000000000E+0003	 1.91590439420650E-0001	
 3.08250000000000E+0003	 1.92361756424581E-0001	
 3.08450000000000E+0003	 1.93142573428512E-0001	
 3.08650000000000E+0003	 1.93887890432444E-0001	
 3.08850000000000E+0003	 1.94626207436375E-0001	
 3.09050000000000E+0003	 1.95379524440306E-0001	
 3.09250000000000E+0003	 1.96086841444238E-0001	
 3.09450000000000E+0003	 1.96777658448169E-0001	
 3.09650000000000E+0003	 1.97508975452100E-0001	
 3.09850000000000E+0003	 1.98275292456031E-0001	
 3.10050000000000E+0003	 1.99047609459963E-0001	
 3.10250000000000E+0003	 1.99791426463894E-0001	
 3.10450000000000E+0003	 2.00554743467825E-0001	
 3.10650000000000E+0003	 2.01386560471757E-0001	
 3.10850000000000E+0003	 2.02263877475688E-0001	
 3.11050000000000E+0003	 2.03096694479619E-0001	
 3.11250000000000E+0003	 2.03952011483551E-0001	
 3.11450000000000E+0003	 2.04942828487482E-0001	
 3.11650000000000E+0003	 2.05993145491413E-0001	
 3.11850000000000E+0003	 2.07008462495345E-0001	
 3.12050000000000E+0003	 2.07988779499276E-0001	
 3.12250000000000E+0003	 2.08920096503207E-0001	
 3.12450000000000E+0003	 2.09896413507138E-0001	
 3.12650000000000E+0003	 2.10982730511070E-0001	
 3.12850000000000E+0003	 2.12148047515001E-0001	
 3.13050000000000E+0003	 2.13328364518932E-0001	
 3.13250000000000E+0003	 2.14502681522864E-0001	
 3.13450000000000E+0003	 2.15718998526795E-0001	
 3.13650000000000E+0003	 2.17022815530726E-0001	
 3.13850000000000E+0003	 2.18394632534658E-0001	
 3.14050000000000E+0003	 2.19709949538589E-0001	
 3.14250000000000E+0003	 2.20968766542520E-0001	
 3.14450000000000E+0003	 2.22297083546451E-0001	
 3.14650000000000E+0003	 2.23698900550383E-0001	
 3.14850000000000E+0003	 2.25161717554314E-0001	
 3.15050000000000E+0003	 2.26737534558245E-0001	
 3.15250000000000E+0003	 2.28338851562177E-0001	
 3.15450000000000E+0003	 2.29798168566108E-0001	
 3.15650000000000E+0003	 2.31234985570039E-0001	
 3.15850000000000E+0003	 2.32772302573971E-0001	
 3.16050000000000E+0003	 2.34373119577902E-0001	
 3.16250000000000E+0003	 2.35999436581833E-0001	
 3.16450000000000E+0003	 2.37648253585765E-0001	
 3.16650000000000E+0003	 2.39315570589696E-0001	
 3.16850000000000E+0003	 2.41002387593627E-0001	
 3.17050000000000E+0003	 2.42696204597558E-0001	
 3.17250000000000E+0003	 2.44393521601490E-0001	
 3.17450000000000E+0003	 2.46096338605421E-0001	
 3.17650000000000E+0003	 2.47811655609352E-0001	
 3.17850000000000E+0003	 2.49533472613284E-0001	
 3.18050000000000E+0003	 2.51249289617215E-0001	
 3.18250000000000E+0003	 2.52952106621146E-0001	
 3.18450000000000E+0003	 2.54655923625078E-0001	
 3.18650000000000E+0003	 2.56359740629009E-0001	
 3.18850000000000E+0003	 2.58056057632940E-0001	
 3.19050000000000E+0003	 2.59728374636872E-0001	
 3.19250000000000E+0003	 2.61383191640803E-0001	
 3.19450000000000E+0003	 2.63019508644734E-0001	
 3.19650000000000E+0003	 2.64642325648665E-0001	
 3.19850000000000E+0003	 2.66257142652597E-0001	
 3.20050000000000E+0003	 2.67864459656528E-0001	
 3.20250000000000E+0003	 2.69455776660459E-0001	
 3.20450000000000E+0003	 2.71035593664391E-0001	
 3.20650000000000E+0003	 2.72600910668322E-0001	
 3.20850000000000E+0003	 2.74147227672253E-0001	
 3.21050000000000E+0003	 2.75686544676185E-0001	
 3.21250000000000E+0003	 2.77236361680116E-0001	
 3.21450000000000E+0003	 2.78784178684047E-0001	
 3.21650000000000E+0003	 2.80325995687978E-0001	
 3.21850000000000E+0003	 2.81874312691910E-0001	
 3.22050000000000E+0003	 2.83414129695841E-0001	
 3.22250000000000E+0003	 2.84939946699772E-0001	
 3.22450000000000E+0003	 2.86483763703704E-0001	
 3.22650000000000E+0003	 2.88047580707635E-0001	
 3.22850000000000E+0003	 2.89635397711566E-0001	
 3.23050000000000E+0003	 2.91289214715498E-0001	
 3.23250000000000E+0003	 2.93026531719429E-0001	
 3.23450000000000E+0003	 2.94675848723360E-0001	
 3.23650000000000E+0003	 2.96213665727292E-0001	
 3.23850000000000E+0003	 2.97813482731223E-0001	
 3.24050000000000E+0003	 2.99502799735154E-0001	
 3.24250000000000E+0003	 3.01236616739085E-0001	
 3.24450000000000E+0003	 3.03042933743017E-0001	
 3.24650000000000E+0003	 3.04897750746948E-0001	
 3.24850000000000E+0003	 3.06690567750879E-0001	
 3.25050000000000E+0003	 3.08446384754811E-0001	
 3.25250000000000E+0003	 3.10276701758742E-0001	
 3.25450000000000E+0003	 3.12187018762673E-0001	
 3.25650000000000E+0003	 3.14093835766605E-0001	
 3.25850000000000E+0003	 3.15950652770536E-0001	
 3.26050000000000E+0003	 3.17820469774467E-0001	
 3.26250000000000E+0003	 3.19713286778399E-0001	
 3.26450000000000E+0003	 3.21603103782330E-0001	
 3.26650000000000E+0003	 3.23478420786261E-0001	
 3.26850000000000E+0003	 3.25385737790192E-0001	
 3.27050000000000E+0003	 3.27276054794124E-0001	
 3.27250000000000E+0003	 3.29012371798055E-0001	
 3.27450000000000E+0003	 3.30629688801986E-0001	
 3.27650000000000E+0003	 3.32218505805918E-0001	
 3.27850000000000E+0003	 3.33763322809849E-0001	
 3.28050000000000E+0003	 3.35267139813780E-0001	
 3.28250000000000E+0003	 3.36711456817712E-0001	
 3.28450000000000E+0003	 3.38091773821643E-0001	
 3.28650000000000E+0003	 3.39401590825574E-0001	
 3.28850000000000E+0003	 3.40669407829505E-0001	
 3.29050000000000E+0003	 3.41924224833437E-0001	
 3.29250000000000E+0003	 3.43112041837368E-0001	
 3.29450000000000E+0003	 3.44167358841299E-0001	
 3.29650000000000E+0003	 3.45131675845231E-0001	
 3.29850000000000E+0003	 3.46031492849162E-0001	
 3.30050000000000E+0003	 3.46909809853093E-0001	
 3.30250000000000E+0003	 3.47826126857025E-0001	
 3.30450000000000E+0003	 3.48785943860956E-0001	
 3.30650000000000E+0003	 3.49655260864887E-0001	
 3.30850000000000E+0003	 3.50365577868819E-0001	
 3.31050000000000E+0003	 3.50992894872750E-0001	
 3.31250000000000E+0003	 3.51639711876681E-0001	
 3.31450000000000E+0003	 3.52325028880612E-0001	
 3.31650000000000E+0003	 3.53024345884544E-0001	
 3.31850000000000E+0003	 3.53726662888475E-0001	
 3.32050000000000E+0003	 3.54444479892406E-0001	
 3.32250000000000E+0003	 3.55187796896338E-0001	
 3.32450000000000E+0003	 3.55972613900269E-0001	
 3.32650000000000E+0003	 3.56729430904200E-0001	
 3.32850000000000E+0003	 3.57433247908132E-0001	
 3.33050000000000E+0003	 3.58165564912063E-0001	
 3.33250000000000E+0003	 3.58953381915994E-0001	
 3.33450000000000E+0003	 3.59781698919926E-0001	
 3.33650000000000E+0003	 3.60680515923857E-0001	
 3.33850000000000E+0003	 3.61582332927788E-0001	
 3.34050000000000E+0003	 3.62401649931719E-0001	
 3.34250000000000E+0003	 3.63207966935651E-0001	
 3.34450000000000E+0003	 3.64028283939582E-0001	
 3.34650000000000E+0003	 3.64858600943513E-0001	
 3.34850000000000E+0003	 3.65801417947445E-0001	
 3.35050000000000E+0003	 3.66772734951376E-0001	
 3.35250000000000E+0003	 3.67598051955307E-0001	
 3.35450000000000E+0003	 3.68365868959239E-0001	
 3.35650000000000E+0003	 3.69215685963170E-0001	
 3.35850000000000E+0003	 3.70122002967101E-0001	
 3.36050000000000E+0003	 3.71027819971032E-0001	
 3.36250000000000E+0003	 3.71894136974964E-0001	
 3.36450000000000E+0003	 3.72817953978895E-0001	
 3.36650000000000E+0003	 3.73853770982826E-0001	
 3.36850000000000E+0003	 3.74848587986758E-0001	
 3.37050000000000E+0003	 3.75596904990689E-0001	
 3.37250000000000E+0003	 3.76199221994620E-0001	
 3.37450000000000E+0003	 3.76903538998552E-0001	
 3.37650000000000E+0003	 3.77707356002483E-0001	
 3.37850000000000E+0003	 3.78491173006414E-0001	
 3.38050000000000E+0003	 3.79233490010346E-0001	
 3.38250000000000E+0003	 3.79929307014277E-0001	
 3.38450000000000E+0003	 3.80625624018208E-0001	
 3.38650000000000E+0003	 3.81345441022139E-0001	
 3.38850000000000E+0003	 3.82156258026071E-0001	
 3.39050000000000E+0003	 3.83061575030002E-0001	
 3.39250000000000E+0003	 3.83778392033933E-0001	
 3.39450000000000E+0003	 3.84216709037865E-0001	
 3.39650000000000E+0003	 3.84739026041796E-0001	
 3.39850000000000E+0003	 3.85551343045727E-0001	
 3.40050000000000E+0003	 3.86337160049659E-0001	
 3.40250000000000E+0003	 3.86681477053590E-0001	
 3.40450000000000E+0003	 3.86841294057521E-0001	
 3.40650000000000E+0003	 3.87202611061453E-0001	
 3.40850000000000E+0003	 3.87692928065384E-0001	
 3.41050000000000E+0003	 3.88116745069315E-0001	
 3.41250000000000E+0003	 3.88463062073246E-0001	
 3.41450000000000E+0003	 3.88683379077178E-0001	
 3.41650000000000E+0003	 3.88829696081109E-0001	
 3.41850000000000E+0003	 3.89020013085040E-0001	
 3.42050000000000E+0003	 3.89222830088972E-0001	
 3.42250000000000E+0003	 3.89343147092903E-0001	
 3.42450000000000E+0003	 3.89422964096834E-0001	
 3.42650000000000E+0003	 3.89536281100766E-0001	
 3.42850000000000E+0003	 3.89671098104697E-0001	
 3.43050000000000E+0003	 3.89685915108628E-0001	
 3.43250000000000E+0003	 3.89633732112559E-0001	
 3.43450000000000E+0003	 3.89635049116491E-0001	
 3.43650000000000E+0003	 3.89466366120422E-0001	
 3.43850000000000E+0003	 3.88985683124353E-0001	
 3.44050000000000E+0003	 3.88437500128285E-0001	
 3.44250000000000E+0003	 3.87986817132216E-0001	
 3.44450000000000E+0003	 3.87590634136147E-0001	
 3.44650000000000E+0003	 3.87191951140079E-0001	
 3.44850000000000E+0003	 3.86707768144010E-0001	
 3.45050000000000E+0003	 3.86128085147941E-0001	
 3.45250000000000E+0003	 3.85533402151873E-0001	
 3.45450000000000E+0003	 3.84912219155804E-0001	
 3.45650000000000E+0003	 3.84288536159735E-0001	
 3.45850000000000E+0003	 3.83694853163666E-0001	
 3.46050000000000E+0003	 3.83012670167598E-0001	
 3.46250000000000E+0003	 3.82188487171529E-0001	
 3.46450000000000E+0003	 3.81480304175460E-0001	
 3.46650000000000E+0003	 3.80952121179392E-0001	
 3.46850000000000E+0003	 3.80225438183323E-0001	
 3.47050000000000E+0003	 3.79035255187254E-0001	
 3.47250000000000E+0003	 3.77714072191186E-0001	
 3.47450000000000E+0003	 3.76579389195117E-0001	
 3.47650000000000E+0003	 3.75608706199048E-0001	
 3.47850000000000E+0003	 3.74707023202980E-0001	
 3.48050000000000E+0003	 3.73628840206911E-0001	
 3.48250000000000E+0003	 3.72334657210842E-0001	
 3.48450000000000E+0003	 3.71134974214773E-0001	
 3.48650000000000E+0003	 3.70016291218705E-0001	
 3.48850000000000E+0003	 3.68782608222636E-0001	
 3.49050000000000E+0003	 3.67488425226567E-0001	
 3.49250000000000E+0003	 3.66254242230499E-0001	
 3.49450000000000E+0003	 3.65060059234430E-0001	
 3.49650000000000E+0003	 3.63840376238361E-0001	
 3.49850000000000E+0003	 3.62517193242293E-0001	
 3.50050000000000E+0003	 3.61221510246224E-0001	
 3.50250000000000E+0003	 3.59932827250155E-0001	
 3.50450000000000E+0003	 3.58399144254086E-0001	
 3.50650000000000E+0003	 3.56779461258018E-0001	
 3.50850000000000E+0003	 3.55300778261949E-0001	
 3.51050000000000E+0003	 3.53925095265880E-0001	
 3.51250000000000E+0003	 3.52604912269812E-0001	
 3.51450000000000E+0003	 3.51162729273743E-0001	
 3.51650000000000E+0003	 3.49567046277674E-0001	
 3.51850000000000E+0003	 3.47980863281606E-0001	
 3.52050000000000E+0003	 3.46511680285537E-0001	
 3.52250000000000E+0003	 3.45140997289468E-0001	
 3.52450000000000E+0003	 3.43583814293400E-0001	
 3.52650000000000E+0003	 3.41805631297331E-0001	
 3.52850000000000E+0003	 3.40083448301262E-0001	
 3.53050000000000E+0003	 3.38436265305193E-0001	
 3.53250000000000E+0003	 3.36821582309125E-0001	
 3.53450000000000E+0003	 3.35289399313056E-0001	
 3.53650000000000E+0003	 3.33684216316987E-0001	
 3.53850000000000E+0003	 3.31851033320919E-0001	
 3.54050000000000E+0003	 3.30072850324850E-0001	
 3.54250000000000E+0003	 3.28464667328781E-0001	
 3.54450000000000E+0003	 3.26793984332713E-0001	
 3.54650000000000E+0003	 3.24802801336644E-0001	
 3.54850000000000E+0003	 3.22647118340575E-0001	
 3.55050000000000E+0003	 3.20644935344507E-0001	
 3.55250000000000E+0003	 3.18679252348438E-0001	
 3.55450000000000E+0003	 3.16635069352369E-0001	
 3.55650000000000E+0003	 3.14619386356300E-0001	
 3.55850000000000E+0003	 3.12640203360232E-0001	
 3.56050000000000E+0003	 3.10628520364163E-0001	
 3.56250000000000E+0003	 3.08476337368094E-0001	
 3.56450000000000E+0003	 3.06247154372026E-0001	
 3.56650000000000E+0003	 3.04081971375957E-0001	
 3.56850000000000E+0003	 3.01952788379888E-0001	
 3.57050000000000E+0003	 2.99773605383820E-0001	
 3.57250000000000E+0003	 2.97515922387751E-0001	
 3.57450000000000E+0003	 2.95224239391682E-0001	
 3.57650000000000E+0003	 2.92939056395613E-0001	
 3.57850000000000E+0003	 2.90673873399545E-0001	
 3.58050000000000E+0003	 2.88453190403476E-0001	
 3.58250000000000E+0003	 2.86240507407407E-0001	
 3.58450000000000E+0003	 2.83993324411339E-0001	
 3.58650000000000E+0003	 2.81549641415270E-0001	
 3.58850000000000E+0003	 2.78881458419201E-0001	
 3.59050000000000E+0003	 2.76342775423133E-0001	
 3.59250000000000E+0003	 2.73965592427064E-0001	
 3.59450000000000E+0003	 2.71530409430995E-0001	
 3.59650000000000E+0003	 2.69091226434927E-0001	
 3.59850000000000E+0003	 2.66717043438858E-0001	
 3.60050000000000E+0003	 2.64280860442789E-0001	
 3.60250000000000E+0003	 2.61779677446720E-0001	
 3.60450000000000E+0003	 2.59279994450652E-0001	
 3.60650000000000E+0003	 2.56734811454583E-0001	
 3.60850000000000E+0003	 2.54138628458514E-0001	
 3.61050000000000E+0003	 2.51573945462446E-0001	
 3.61250000000000E+0003	 2.49104262466377E-0001	
 3.61450000000000E+0003	 2.46649079470308E-0001	
 3.61650000000000E+0003	 2.44248396474240E-0001	
 3.61850000000000E+0003	 2.41893213478171E-0001	
 3.62050000000000E+0003	 2.39401030482102E-0001	
 3.62250000000000E+0003	 2.36839847486034E-0001	
 3.62450000000000E+0003	 2.34324664489965E-0001	
 3.62650000000000E+0003	 2.31848481493896E-0001	
 3.62850000000000E+0003	 2.29312298497827E-0001	
 3.63050000000000E+0003	 2.26679115501759E-0001	
 3.63250000000000E+0003	 2.24315432505690E-0001	
 3.63450000000000E+0003	 2.22042249509621E-0001	
 3.63650000000000E+0003	 2.19685066513553E-0001	
 3.63850000000000E+0003	 2.17342883517484E-0001	
 3.64050000000000E+0003	 2.15019700521415E-0001	
 3.64250000000000E+0003	 2.12726017525347E-0001	
 3.64450000000000E+0003	 2.10485334529278E-0001	
 3.64650000000000E+0003	 2.08305151533209E-0001	
 3.64850000000000E+0003	 2.06118968537140E-0001	
 3.65050000000000E+0003	 2.03905285541072E-0001	
 3.65250000000000E+0003	 2.01702602545003E-0001	
 3.65450000000000E+0003	 1.99672919548934E-0001	
 3.65650000000000E+0003	 1.97731736552866E-0001	
 3.65850000000000E+0003	 1.95816553556797E-0001	
 3.66050000000000E+0003	 1.93947370560728E-0001	
 3.66250000000000E+0003	 1.91996687564660E-0001	
 3.66450000000000E+0003	 1.90097004568591E-0001	
 3.66650000000000E+0003	 1.88345821572522E-0001	
 3.66850000000000E+0003	 1.86662638576454E-0001	
 3.67050000000000E+0003	 1.84959955580385E-0001	
 3.67250000000000E+0003	 1.83369272584316E-0001	
 3.67450000000000E+0003	 1.81953089588247E-0001	
 3.67650000000000E+0003	 1.80440406592179E-0001	
 3.67850000000000E+0003	 1.79031723596110E-0001	
 3.68050000000000E+0003	 1.77787540600041E-0001	
 3.68250000000000E+0003	 1.76583857603973E-0001	
 3.68450000000000E+0003	 1.75468674607904E-0001	
 3.68650000000000E+0003	 1.74515491611835E-0001	
 3.68850000000000E+0003	 1.73588808615767E-0001	
 3.69050000000000E+0003	 1.72392125619698E-0001	
 3.69250000000000E+0003	 1.71233442623629E-0001	
 3.69450000000000E+0003	 1.70321759627561E-0001	
 3.69650000000000E+0003	 1.69492576631492E-0001	
 3.69850000000000E+0003	 1.68650893635423E-0001	
 3.70050000000000E+0003	 1.67850710639354E-0001	
 3.70250000000000E+0003	 1.67066527643286E-0001	
 3.70450000000000E+0003	 1.66307844647217E-0001	
 3.70650000000000E+0003	 1.65598161651148E-0001	
 3.70850000000000E+0003	 1.64888978655080E-0001	
 3.71050000000000E+0003	 1.64195795659011E-0001	
 3.71250000000000E+0003	 1.63588112662942E-0001	
 3.71450000000000E+0003	 1.63048929666874E-0001	
 3.71650000000000E+0003	 1.62575246670805E-0001	
 3.71850000000000E+0003	 1.62100063674736E-0001	
 3.72050000000000E+0003	 1.61579880678667E-0001	
 3.72250000000000E+0003	 1.61065197682599E-0001	
 3.72450000000000E+0003	 1.60551514686530E-0001	
 3.72650000000000E+0003	 1.60061831690461E-0001	
 3.72850000000000E+0003	 1.59611148694393E-0001	
 3.73050000000000E+0003	 1.59243965698324E-0001	
 3.73250000000000E+0003	 1.58881782702255E-0001	
 3.73450000000000E+0003	 1.58425599706187E-0001	
 3.73650000000000E+0003	 1.58000916710118E-0001	
 3.73850000000000E+0003	 1.57647233714049E-0001	
 3.74050000000000E+0003	 1.57247050717981E-0001	
 3.74250000000000E+0003	 1.56800367721912E-0001	
 3.74450000000000E+0003	 1.56442684725843E-0001	
 3.74650000000000E+0003	 1.56072001729774E-0001	
 3.74850000000000E+0003	 1.55737818733706E-0001	
 3.75050000000000E+0003	 1.55440635737637E-0001	
 3.75250000000000E+0003	 1.55187952741568E-0001	
 3.75450000000000E+0003	 1.54950769745500E-0001	
 3.75650000000000E+0003	 1.54689086749431E-0001	
 3.75850000000000E+0003	 1.54410903753362E-0001	
 3.76050000000000E+0003	 1.54137220757294E-0001	
 3.76250000000000E+0003	 1.53870537761225E-0001	
 3.76450000000000E+0003	 1.53627354765156E-0001	
 3.76650000000000E+0003	 1.53367171769088E-0001	
 3.76850000000000E+0003	 1.53105988773019E-0001	
 3.77050000000000E+0003	 1.52866305776950E-0001	
 3.77250000000000E+0003	 1.52620622780881E-0001	
 3.77450000000000E+0003	 1.52400939784813E-0001	
 3.77650000000000E+0003	 1.52201256788744E-0001	
 3.77850000000000E+0003	 1.52020573792675E-0001	
 3.78050000000000E+0003	 1.51792890796607E-0001	
 3.78250000000000E+0003	 1.51523207800538E-0001	
 3.78450000000000E+0003	 1.51289024804469E-0001	
 3.78650000000000E+0003	 1.51079841808401E-0001	
 3.78850000000000E+0003	 1.50902158812332E-0001	
 3.79050000000000E+0003	 1.50727975816263E-0001	
 3.79250000000000E+0003	 1.50521792820194E-0001	
 3.79450000000000E+0003	 1.50296609824126E-0001	
 3.79650000000000E+0003	 1.50095426828057E-0001	
 3.79850000000000E+0003	 1.49877243831988E-0001	
 3.80050000000000E+0003	 1.49683560835920E-0001	
 3.80250000000000E+0003	 1.49514877839851E-0001	
 3.80450000000000E+0003	 1.49343194843782E-0001	
 3.80650000000000E+0003	 1.49210511847714E-0001	
 3.80850000000000E+0003	 1.49065828851645E-0001	
 3.81050000000000E+0003	 1.48927145855576E-0001	
 3.81250000000000E+0003	 1.48774962859508E-0001	
 3.81450000000000E+0003	 1.48615279863439E-0001	
 3.81650000000000E+0003	 1.48484096867370E-0001	
 3.81850000000000E+0003	 1.48328413871301E-0001	
 3.82050000000000E+0003	 1.48201230875233E-0001	
 3.82250000000000E+0003	 1.48051047879164E-0001	
 3.82450000000000E+0003	 1.47908364883095E-0001	
 3.82650000000000E+0003	 1.47798681887027E-0001	
 3.82850000000000E+0003	 1.47671998890958E-0001	
 3.83050000000000E+0003	 1.47550315894889E-0001	
 3.83250000000000E+0003	 1.47451632898821E-0001	
 3.83450000000000E+0003	 1.47388449902752E-0001	
 3.83650000000000E+0003	 1.47308266906683E-0001	
 3.83850000000000E+0003	 1.47141583910615E-0001	
 3.84050000000000E+0003	 1.46971900914546E-0001	
 3.84250000000000E+0003	 1.46876717918477E-0001	
 3.84450000000000E+0003	 1.46827034922408E-0001	
 3.84650000000000E+0003	 1.46747351926340E-0001	
 3.84850000000000E+0003	 1.46628168930271E-0001	
 3.85050000000000E+0003	 1.46479485934202E-0001	
 3.85250000000000E+0003	 1.46366302938134E-0001	
 3.85450000000000E+0003	 1.46292119942065E-0001	
 3.85650000000000E+0003	 1.46230936945996E-0001	
 3.85850000000000E+0003	 1.46148253949928E-0001	
 3.86050000000000E+0003	 1.46075070953859E-0001	
 3.86250000000000E+0003	 1.45992887957790E-0001	
 3.86450000000000E+0003	 1.45918704961721E-0001	
 3.86650000000000E+0003	 1.45838521965653E-0001	
 3.86850000000000E+0003	 1.45763338969584E-0001	
 3.87050000000000E+0003	 1.45701155973515E-0001	
 3.87250000000000E+0003	 1.45615472977447E-0001	
 3.87450000000000E+0003	 1.45562789981378E-0001	
 3.87650000000000E+0003	 1.45499606985309E-0001	
 3.87850000000000E+0003	 1.45448923989241E-0001	
 3.88050000000000E+0003	 1.45404740993172E-0001	
 3.88250000000000E+0003	 1.45349057997103E-0001	
 3.88450000000000E+0003	 1.45340875001035E-0001	
 3.88650000000000E+0003	 1.45296692004966E-0001	
 3.88850000000000E+0003	 1.45194509008897E-0001	
 3.89050000000000E+0003	 1.45153326012828E-0001	
 3.89250000000000E+0003	 1.45099643016760E-0001	
 3.89450000000000E+0003	 1.45026960020691E-0001	
 3.89650000000000E+0003	 1.44978777024622E-0001	
 3.89850000000000E+0003	 1.44944594028554E-0001	
 3.90050000000000E+0003	 1.44886411032485E-0001	
 3.90250000000000E+0003	 1.44840728036416E-0001	
 3.90450000000000E+0003	 1.44828545040348E-0001	
 3.90650000000000E+0003	 1.44796362044279E-0001	
 3.90850000000000E+0003	 1.44764179048210E-0001	
 3.91050000000000E+0003	 1.44745996052142E-0001	
 3.91250000000000E+0003	 1.44721313056073E-0001	
 3.91450000000000E+0003	 1.44691130060004E-0001	
 3.91650000000000E+0003	 1.44669947063935E-0001	
 3.91850000000000E+0003	 1.44646764067867E-0001	
 3.92050000000000E+0003	 1.44622081071798E-0001	
 3.92250000000000E+0003	 1.44593898075729E-0001	
 3.92450000000000E+0003	 1.44571715079661E-0001	
 3.92650000000000E+0003	 1.44541532083592E-0001	
 3.92850000000000E+0003	 1.44514349087523E-0001	
 3.93050000000000E+0003	 1.44495666091455E-0001	
 3.93250000000000E+0003	 1.44483483095386E-0001	
 3.93450000000000E+0003	 1.44467800099317E-0001	
 3.93650000000000E+0003	 1.44439617103249E-0001	
 3.93850000000000E+0003	 1.44403934107180E-0001	
 3.94050000000000E+0003	 1.44376251111111E-0001	
 3.94250000000000E+0003	 1.44356068115042E-0001	
 3.94450000000000E+0003	 1.44320385118974E-0001	
 3.94650000000000E+0003	 1.44287702122905E-0001	
 3.94850000000000E+0003	 1.44265519126836E-0001	
 3.95050000000000E+0003	 1.44238836130768E-0001	
 3.95250000000000E+0003	 1.44212153134699E-0001	
 3.95450000000000E+0003	 1.44187470138630E-0001	
 3.95650000000000E+0003	 1.44163787142562E-0001	
 3.95850000000000E+0003	 1.44138104146493E-0001	
 3.96050000000000E+0003	 1.44112421150424E-0001	
 3.96250000000000E+0003	 1.44086738154355E-0001	
 3.96450000000000E+0003	 1.44060555158287E-0001	
 3.96650000000000E+0003	 1.44041372162218E-0001	
 3.96850000000000E+0003	 1.44023189166149E-0001	
 3.97050000000000E+0003	 1.43997006170081E-0001	
 3.97250000000000E+0003	 1.43971823174012E-0001	
 3.97450000000000E+0003	 1.43954640177943E-0001	
 3.97650000000000E+0003	 1.43939957181875E-0001	
 3.97850000000000E+0003	 1.43916774185806E-0001	
 3.98050000000000E+0003	 1.43899591189737E-0001	
 3.98250000000000E+0003	 1.43901408193669E-0001	
 3.98450000000000E+0003	 1.43893725197600E-0001	
 3.98650000000000E+0003	 1.43852042201531E-0001	
 3.98850000000000E+0003	 1.43807359205462E-0001	
 3.99050000000000E+0003	 1.43779676209394E-0001	
 3.99250000000000E+0003	 1.43758493213325E-0001	
 3.99450000000000E+0003	 1.43739810217256E-0001	
 3.99650000000000E+0003	 1.43713627221188E-0001	
 3.99850000000000E+0003	 1.43696944225119E-0001	

>1	DATALINE
