*CPCWIN*

>1	DATALINE
DATALINE
1
Operator:

Description:

Remarks:





15.9.2008
11:3


_x	_y
	
	
UNIT	UNIT
 4.50500000000000E+0002	 1.08340844006609E-0001	
 4.52500000000000E+0002	 1.08644220033044E-0001	
 4.54500000000000E+0002	 1.08889096059480E-0001	
 4.56500000000000E+0002	 1.09142972085915E-0001	
 4.58500000000000E+0002	 1.09431348112350E-0001	
 4.60500000000000E+0002	 1.09941224138786E-0001	
 4.62500000000000E+0002	 1.10409600165221E-0001	
 4.64500000000000E+0002	 1.10734476191656E-0001	
 4.66500000000000E+0002	 1.10832352218092E-0001	
 4.68500000000000E+0002	 1.11142728244527E-0001	
 4.70500000000000E+0002	 1.11450604270962E-0001	
 4.72500000000000E+0002	 1.11726980297398E-0001	
 4.74500000000000E+0002	 1.12181356323833E-0001	
 4.76500000000000E+0002	 1.12615232350268E-0001	
 4.78500000000000E+0002	 1.12888608376704E-0001	
 4.80500000000000E+0002	 1.13282984403139E-0001	
 4.82500000000000E+0002	 1.13656860429575E-0001	
 4.84500000000000E+0002	 1.14051736456010E-0001	
 4.86500000000000E+0002	 1.14531112482445E-0001	
 4.88500000000000E+0002	 1.15128988508881E-0001	
 4.90500000000000E+0002	 1.15591364535316E-0001	
 4.92500000000000E+0002	 1.16060740561751E-0001	
 4.94500000000000E+0002	 1.16565616588187E-0001	
 4.96500000000000E+0002	 1.16993992614622E-0001	
 4.98500000000000E+0002	 1.17400368641057E-0001	
 5.00500000000000E+0002	 1.17728744667493E-0001	
 5.02500000000000E+0002	 1.18075120693928E-0001	
 5.04500000000000E+0002	 1.18536996720363E-0001	
 5.06500000000000E+0002	 1.18911372746799E-0001	
 5.08500000000000E+0002	 1.19268248773234E-0001	
 5.10500000000000E+0002	 1.19618624799670E-0001	
 5.12500000000000E+0002	 1.20045500826105E-0001	
 5.14500000000000E+0002	 1.20447876852540E-0001	
 5.16500000000000E+0002	 1.20832252878976E-0001	
 5.18500000000000E+0002	 1.21443128905411E-0001	
 5.20500000000000E+0002	 1.22200004931846E-0001	
 5.22500000000000E+0002	 1.22866880958282E-0001	
 5.24500000000000E+0002	 1.23239256984717E-0001	
 5.26500000000000E+0002	 1.23508133011152E-0001	
 5.28500000000000E+0002	 1.24105009037588E-0001	
 5.30500000000000E+0002	 1.24908885064023E-0001	
 5.32500000000000E+0002	 1.25405261090458E-0001	
 5.34500000000000E+0002	 1.25543137116894E-0001	
 5.36500000000000E+0002	 1.25486513143329E-0001	
 5.38500000000000E+0002	 1.25373889169765E-0001	
 5.40500000000000E+0002	 1.25248765196200E-0001	
 5.42500000000000E+0002	 1.25191141222635E-0001	
 5.44500000000000E+0002	 1.25133017249071E-0001	
 5.46500000000000E+0002	 1.25066893275506E-0001	
 5.48500000000000E+0002	 1.25063269301941E-0001	
 5.50500000000000E+0002	 1.25176645328377E-0001	
 5.52500000000000E+0002	 1.25302021354812E-0001	
 5.54500000000000E+0002	 1.25300397381247E-0001	
 5.56500000000000E+0002	 1.25231773407683E-0001	
 5.58500000000000E+0002	 1.25130649434118E-0001	
 5.60500000000000E+0002	 1.24916525460553E-0001	
 5.62500000000000E+0002	 1.24604901486989E-0001	
 5.64500000000000E+0002	 1.24260277513424E-0001	
 5.66500000000000E+0002	 1.23923653539860E-0001	
 5.68500000000000E+0002	 1.23649529566295E-0001	
 5.70500000000000E+0002	 1.23416905592730E-0001	
 5.72500000000000E+0002	 1.23213781619166E-0001	
 5.74500000000000E+0002	 1.22965657645601E-0001	
 5.76500000000000E+0002	 1.22787033672036E-0001	
 5.78500000000000E+0002	 1.22734909698472E-0001	
 5.80500000000000E+0002	 1.22625285724907E-0001	
 5.82500000000000E+0002	 1.22478661751342E-0001	
 5.84500000000000E+0002	 1.22357537777778E-0001	
 5.86500000000000E+0002	 1.22285413804213E-0001	
 5.88500000000000E+0002	 1.22230289830648E-0001	
 5.90500000000000E+0002	 1.22045665857084E-0001	
 5.92500000000000E+0002	 1.21992041883519E-0001	
 5.94500000000000E+0002	 1.22062417909955E-0001	
 5.96500000000000E+0002	 1.22170793936390E-0001	
 5.98500000000000E+0002	 1.22219169962825E-0001	
 6.00500000000000E+0002	 1.22319045989261E-0001	
 6.02500000000000E+0002	 1.22434422015696E-0001	
 6.04500000000000E+0002	 1.22492798042131E-0001	
 6.06500000000000E+0002	 1.22426674068567E-0001	
 6.08500000000000E+0002	 1.22254550095002E-0001	
 6.10500000000000E+0002	 1.21928426121437E-0001	
 6.12500000000000E+0002	 1.21635802147873E-0001	
 6.14500000000000E+0002	 1.21290678174308E-0001	
 6.16500000000000E+0002	 1.21119554200743E-0001	
 6.18500000000000E+0002	 1.20981930227179E-0001	
 6.20500000000000E+0002	 1.20611306253614E-0001	
 6.22500000000000E+0002	 1.20229182280050E-0001	
 6.24500000000000E+0002	 1.19922058306485E-0001	
 6.26500000000000E+0002	 1.19620934332920E-0001	
 6.28500000000000E+0002	 1.19396810359356E-0001	
 6.30500000000000E+0002	 1.19113686385791E-0001	
 6.32500000000000E+0002	 1.18778562412226E-0001	
 6.34500000000000E+0002	 1.18351438438662E-0001	
 6.36500000000000E+0002	 1.18010314465097E-0001	
 6.38500000000000E+0002	 1.17687690491532E-0001	
 6.40500000000000E+0002	 1.17336066517968E-0001	
 6.42500000000000E+0002	 1.16951442544403E-0001	
 6.44500000000000E+0002	 1.16583818570838E-0001	
 6.46500000000000E+0002	 1.16230194597274E-0001	
 6.48500000000000E+0002	 1.15912570623709E-0001	
 6.50500000000000E+0002	 1.15435446650145E-0001	
 6.52500000000000E+0002	 1.14918322676580E-0001	
 6.54500000000000E+0002	 1.14595198703015E-0001	
 6.56500000000000E+0002	 1.14363074729451E-0001	
 6.58500000000000E+0002	 1.14089950755886E-0001	
 6.60500000000000E+0002	 1.13945326782321E-0001	
 6.62500000000000E+0002	 1.13896202808757E-0001	
 6.64500000000000E+0002	 1.09624078835192E-0001	
 6.66500000000000E+0002	 9.36339548616274E-0002	
 6.68500000000000E+0002	 8.98933308880628E-0002	
 6.70500000000000E+0002	 1.03124706914498E-0001	
 6.72500000000000E+0002	 1.11049082940933E-0001	
 6.74500000000000E+0002	 1.11335958967369E-0001	
 6.76500000000000E+0002	 1.10684334993804E-0001	
 6.78500000000000E+0002	 1.10178711020240E-0001	
 6.80500000000000E+0002	 1.09764087046675E-0001	
 6.82500000000000E+0002	 1.09445463073110E-0001	
 6.84500000000000E+0002	 1.09249339099546E-0001	
 6.86500000000000E+0002	 1.09103715125981E-0001	
 6.88500000000000E+0002	 1.08983591152416E-0001	
 6.90500000000000E+0002	 1.08846467178852E-0001	
 6.92500000000000E+0002	 1.08692843205287E-0001	
 6.94500000000000E+0002	 1.08512219231722E-0001	
 6.96500000000000E+0002	 1.08348595258158E-0001	
 6.98500000000000E+0002	 1.08145471284593E-0001	
 7.00500000000000E+0002	 1.07893347311029E-0001	
 7.02500000000000E+0002	 1.07540223337464E-0001	
 7.04500000000000E+0002	 1.07165599363899E-0001	
 7.06500000000000E+0002	 1.06775975390335E-0001	
 7.08500000000000E+0002	 1.06443351416770E-0001	
 7.10500000000000E+0002	 1.06110727443205E-0001	
 7.12500000000000E+0002	 1.05771103469641E-0001	
 7.14500000000000E+0002	 1.05241479496076E-0001	
 7.16500000000000E+0002	 1.04614355522511E-0001	
 7.18500000000000E+0002	 1.04009231548947E-0001	
 7.20500000000000E+0002	 1.03592607575382E-0001	
 7.22500000000000E+0002	 1.02864483601817E-0001	
 7.24500000000000E+0002	 1.02065859628253E-0001	
 7.26500000000000E+0002	 1.01235235654688E-0001	
 7.28500000000000E+0002	 1.00373611681124E-0001	
 7.30500000000000E+0002	 9.94719877075589E-0002	
 7.32500000000000E+0002	 9.86608637339942E-0002	
 7.34500000000000E+0002	 9.79037397604296E-0002	
 7.36500000000000E+0002	 9.72801157868649E-0002	
 7.38500000000000E+0002	 9.66574918133003E-0002	
 7.40500000000000E+0002	 9.61193678397356E-0002	
 7.42500000000000E+0002	 9.55742438661710E-0002	
 7.44500000000000E+0002	 9.50941198926064E-0002	
 7.46500000000000E+0002	 9.46064959190417E-0002	
 7.48500000000000E+0002	 9.41593719454771E-0002	
 7.50500000000000E+0002	 9.36962479719124E-0002	
 7.52500000000000E+0002	 9.33491239983478E-0002	
 7.54500000000000E+0002	 9.30625000247831E-0002	
 7.56500000000000E+0002	 9.29098760512185E-0002	
 7.58500000000000E+0002	 9.28397520776539E-0002	
 7.60500000000000E+0002	 9.29191281040892E-0002	
 7.62500000000000E+0002	 9.30160041305246E-0002	
 7.64500000000000E+0002	 9.29858801569599E-0002	
 7.66500000000000E+0002	 9.25992561833953E-0002	
 7.68500000000000E+0002	 9.18511322098306E-0002	
 7.70500000000000E+0002	 9.08930082362660E-0002	
 7.72500000000000E+0002	 8.99883842627014E-0002	
 7.74500000000000E+0002	 8.93312602891367E-0002	
 7.76500000000000E+0002	 8.90771363155721E-0002	
 7.78500000000000E+0002	 8.91200123420074E-0002	
 7.80500000000000E+0002	 8.90378883684428E-0002	
 7.82500000000000E+0002	 8.85922643948781E-0002	
 7.84500000000000E+0002	 8.79491404213135E-0002	
 7.86500000000000E+0002	 8.72790164477489E-0002	
 7.88500000000000E+0002	 8.65658924741842E-0002	
 7.90500000000000E+0002	 8.58747685006196E-0002	
 7.92500000000000E+0002	 8.52931445270549E-0002	
 7.94500000000000E+0002	 8.48885205534903E-0002	
 7.96500000000000E+0002	 8.44893965799257E-0002	
 7.98500000000000E+0002	 8.39772726063610E-0002	
 8.00500000000000E+0002	 8.33781486327964E-0002	
 8.02500000000000E+0002	 8.28185246592317E-0002	
 8.04500000000000E+0002	 8.23619006856671E-0002	
 8.06500000000000E+0002	 8.20197767121024E-0002	
 8.08500000000000E+0002	 8.17001527385378E-0002	
 8.10500000000000E+0002	 8.13585287649732E-0002	
 8.12500000000000E+0002	 8.09539047914085E-0002	
 8.14500000000000E+0002	 8.04822808178439E-0002	
 8.16500000000000E+0002	 7.99701568442792E-0002	
 8.18500000000000E+0002	 7.94585328707146E-0002	
 8.20500000000000E+0002	 7.90414088971499E-0002	
 8.22500000000000E+0002	 7.87207849235853E-0002	
 8.24500000000000E+0002	 7.84751609500207E-0002	
 8.26500000000000E+0002	 7.82685369764560E-0002	
 8.28500000000000E+0002	 7.81094130028914E-0002	
 8.30500000000000E+0002	 7.79597890293267E-0002	
 8.32500000000000E+0002	 7.78711650557621E-0002	
 8.34500000000000E+0002	 7.77970410821974E-0002	
 8.36500000000000E+0002	 7.77584171086328E-0002	
 8.38500000000000E+0002	 7.76842931350682E-0002	
 8.40500000000000E+0002	 7.75936691615035E-0002	
 8.42500000000000E+0002	 7.74055451879389E-0002	
 8.44500000000000E+0002	 7.72084212143742E-0002	
 8.46500000000000E+0002	 7.69672972408096E-0002	
 8.48500000000000E+0002	 7.67661732672449E-0002	
 8.50500000000000E+0002	 7.65720492936803E-0002	
 8.52500000000000E+0002	 7.64774253201157E-0002	
 8.54500000000000E+0002	 7.64293013465510E-0002	
 8.56500000000000E+0002	 7.64406773729864E-0002	
 8.58500000000000E+0002	 7.63915533994217E-0002	
 8.60500000000000E+0002	 7.62904294258571E-0002	
 8.62500000000000E+0002	 7.60283054522924E-0002	
 8.64500000000000E+0002	 7.56586814787278E-0002	
 8.66500000000000E+0002	 7.51855575051632E-0002	
 8.68500000000000E+0002	 7.48509335315985E-0002	
 8.70500000000000E+0002	 7.48778095580339E-0002	
 8.72500000000000E+0002	 7.49486855844692E-0002	
 8.74500000000000E+0002	 7.44550616109046E-0002	
 8.76500000000000E+0002	 7.37164376373399E-0002	
 8.78500000000000E+0002	 7.31193136637753E-0002	
 8.80500000000000E+0002	 7.27056896902107E-0002	
 8.82500000000000E+0002	 7.24150657166460E-0002	
 8.84500000000000E+0002	 7.21994417430814E-0002	
 8.86500000000000E+0002	 7.19798177695167E-0002	
 8.88500000000000E+0002	 7.17811937959521E-0002	
 8.90500000000000E+0002	 7.16070698223874E-0002	
 8.92500000000000E+0002	 7.13944458488228E-0002	
 8.94500000000000E+0002	 7.11423218752582E-0002	
 8.96500000000000E+0002	 7.08806979016935E-0002	
 8.98500000000000E+0002	 7.06485739281289E-0002	
 9.00500000000000E+0002	 7.04764499545642E-0002	
 9.02500000000000E+0002	 7.04448259809996E-0002	
 9.04500000000000E+0002	 7.06152020074349E-0002	
 9.06500000000000E+0002	 7.10250780338703E-0002	
 9.08500000000000E+0002	 7.16494540603057E-0002	
 9.10500000000000E+0002	 7.24023300867410E-0002	
 9.12500000000000E+0002	 7.31232061131764E-0002	
 9.14500000000000E+0002	 7.36815821396117E-0002	
 9.16500000000000E+0002	 7.39749581660471E-0002	
 9.18500000000000E+0002	 7.39798341924824E-0002	
 9.20500000000000E+0002	 7.37057102189178E-0002	
 9.22500000000000E+0002	 7.31800862453532E-0002	
 9.24500000000000E+0002	 7.25149622717885E-0002	
 9.26500000000000E+0002	 7.17783382982239E-0002	
 9.28500000000000E+0002	 7.10487143246592E-0002	
 9.30500000000000E+0002	 7.03700903510946E-0002	
 9.32500000000000E+0002	 6.98289663775299E-0002	
 9.34500000000000E+0002	 6.93878424039653E-0002	
 9.36500000000000E+0002	 6.90707184304007E-0002	
 9.38500000000000E+0002	 6.88095944568360E-0002	
 9.40500000000000E+0002	 6.86204704832714E-0002	
 9.42500000000000E+0002	 6.84918465097067E-0002	
 9.44500000000000E+0002	 6.84982225361421E-0002	
 9.46500000000000E+0002	 6.85985985625774E-0002	
 9.48500000000000E+0002	 6.88239745890128E-0002	
 9.50500000000000E+0002	 6.91198506154482E-0002	
 9.52500000000000E+0002	 6.95597266418835E-0002	
 9.54500000000000E+0002	 7.01051026683189E-0002	
 9.56500000000000E+0002	 7.07914786947542E-0002	
 9.58500000000000E+0002	 7.15538547211896E-0002	
 9.60500000000000E+0002	 7.24122307476249E-0002	
 9.62500000000000E+0002	 7.32901067740603E-0002	
 9.64500000000000E+0002	 7.41834828004957E-0002	
 9.66500000000000E+0002	 7.50508588269310E-0002	
 9.68500000000000E+0002	 7.59412348533664E-0002	
 9.70500000000000E+0002	 7.68241108798017E-0002	
 9.72500000000000E+0002	 7.77739869062371E-0002	
 9.74500000000000E+0002	 7.88838629326724E-0002	
 9.76500000000000E+0002	 8.03057389591078E-0002	
 9.78500000000000E+0002	 8.21671149855432E-0002	
 9.80500000000000E+0002	 8.45704910119785E-0002	
 9.82500000000000E+0002	 8.74738670384139E-0002	
 9.84500000000000E+0002	 9.06672430648492E-0002	
 9.86500000000000E+0002	 9.38556190912846E-0002	
 9.88500000000000E+0002	 9.67109951177200E-0002	
 9.90500000000000E+0002	 9.90698711441553E-0002	
 9.92500000000000E+0002	 1.00954247170591E-0001	
 9.94500000000000E+0002	 1.02618123197026E-0001	
 9.96500000000000E+0002	 1.04338999223461E-0001	
 9.98500000000000E+0002	 1.06411875249897E-0001	
 1.00050000000000E+0003	 1.08929751276332E-0001	
 1.00250000000000E+0003	 1.11878627302767E-0001	
 1.00450000000000E+0003	 1.15062003329203E-0001	
 1.00650000000000E+0003	 1.18330379355638E-0001	
 1.00850000000000E+0003	 1.21532255382074E-0001	
 1.01050000000000E+0003	 1.24655631408509E-0001	
 1.01250000000000E+0003	 1.27671507434944E-0001	
 1.01450000000000E+0003	 1.30564883461380E-0001	
 1.01650000000000E+0003	 1.33184259487815E-0001	
 1.01850000000000E+0003	 1.35366635514250E-0001	
 1.02050000000000E+0003	 1.36954511540686E-0001	
 1.02250000000000E+0003	 1.37979387567121E-0001	
 1.02450000000000E+0003	 1.38613263593556E-0001	
 1.02650000000000E+0003	 1.39101139619992E-0001	
 1.02850000000000E+0003	 1.39624015646427E-0001	
 1.03050000000000E+0003	 1.40192391672862E-0001	
 1.03250000000000E+0003	 1.40768767699298E-0001	
 1.03450000000000E+0003	 1.41415143725733E-0001	
 1.03650000000000E+0003	 1.42028019752169E-0001	
 1.03850000000000E+0003	 1.42416895778604E-0001	
 1.04050000000000E+0003	 1.42701271805039E-0001	
 1.04250000000000E+0003	 1.43013147831475E-0001	
 1.04450000000000E+0003	 1.43535023857910E-0001	
 1.04650000000000E+0003	 1.44337899884345E-0001	
 1.04850000000000E+0003	 1.45447275910781E-0001	
 1.05050000000000E+0003	 1.46593151937216E-0001	
 1.05250000000000E+0003	 1.47469027963651E-0001	
 1.05450000000000E+0003	 1.47811403990087E-0001	
 1.05650000000000E+0003	 1.47664780016522E-0001	
 1.05850000000000E+0003	 1.47134656042957E-0001	
 1.06050000000000E+0003	 1.46430032069393E-0001	
 1.06250000000000E+0003	 1.45750908095828E-0001	
 1.06450000000000E+0003	 1.45444284122264E-0001	
 1.06650000000000E+0003	 1.45790660148699E-0001	
 1.06850000000000E+0003	 1.46918036175134E-0001	
 1.07050000000000E+0003	 1.48664412201570E-0001	
 1.07250000000000E+0003	 1.50734288228005E-0001	
 1.07450000000000E+0003	 1.52749664254440E-0001	
 1.07650000000000E+0003	 1.54404040280876E-0001	
 1.07850000000000E+0003	 1.55486916307311E-0001	
 1.08050000000000E+0003	 1.55888792333746E-0001	
 1.08250000000000E+0003	 1.55552668360182E-0001	
 1.08450000000000E+0003	 1.54378544386617E-0001	
 1.08650000000000E+0003	 1.52322920413052E-0001	
 1.08850000000000E+0003	 1.49459296439488E-0001	
 1.09050000000000E+0003	 1.46163172465923E-0001	
 1.09250000000000E+0003	 1.43006548492359E-0001	
 1.09450000000000E+0003	 1.40476424518794E-0001	
 1.09650000000000E+0003	 1.38605300545229E-0001	
 1.09850000000000E+0003	 1.37165176571665E-0001	
 1.10050000000000E+0003	 1.35837552598100E-0001	
 1.10250000000000E+0003	 1.34469928624535E-0001	
 1.10450000000000E+0003	 1.32969304650971E-0001	
 1.10650000000000E+0003	 1.31391680677406E-0001	
 1.10850000000000E+0003	 1.29812556703841E-0001	
 1.11050000000000E+0003	 1.28345432730277E-0001	
 1.11250000000000E+0003	 1.26992808756712E-0001	
 1.11450000000000E+0003	 1.25719684783147E-0001	
 1.11650000000000E+0003	 1.24444560809583E-0001	
 1.11850000000000E+0003	 1.23150936836018E-0001	
 1.12050000000000E+0003	 1.21809312862454E-0001	
 1.12250000000000E+0003	 1.20388688888889E-0001	
 1.12450000000000E+0003	 1.18888564915324E-0001	
 1.12650000000000E+0003	 1.17328940941760E-0001	
 1.12850000000000E+0003	 1.15753816968195E-0001	
 1.13050000000000E+0003	 1.14159692994630E-0001	
 1.13250000000000E+0003	 1.12641569021066E-0001	
 1.13450000000000E+0003	 1.11269945047501E-0001	
 1.13650000000000E+0003	 1.10120321073936E-0001	
 1.13850000000000E+0003	 1.09240697100372E-0001	
 1.14050000000000E+0003	 1.08736073126807E-0001	
 1.14250000000000E+0003	 1.08557949153242E-0001	
 1.14450000000000E+0003	 1.08624325179678E-0001	
 1.14650000000000E+0003	 1.08720701206113E-0001	
 1.14850000000000E+0003	 1.08670077232549E-0001	
 1.15050000000000E+0003	 1.08218953258984E-0001	
 1.15250000000000E+0003	 1.07294329285419E-0001	
 1.15450000000000E+0003	 1.05909205311855E-0001	
 1.15650000000000E+0003	 1.04261081338290E-0001	
 1.15850000000000E+0003	 1.02501457364725E-0001	
 1.16050000000000E+0003	 1.00739333391161E-0001	
 1.16250000000000E+0003	 9.89062094175960E-0002	
 1.16450000000000E+0003	 9.69855854440314E-0002	
 1.16650000000000E+0003	 9.49799614704667E-0002	
 1.16850000000000E+0003	 9.29783374969021E-0002	
 1.17050000000000E+0003	 9.10392135233375E-0002	
 1.17250000000000E+0003	 8.92140895497728E-0002	
 1.17450000000000E+0003	 8.74849655762082E-0002	
 1.17650000000000E+0003	 8.58863416026435E-0002	
 1.17850000000000E+0003	 8.44667176290789E-0002	
 1.18050000000000E+0003	 8.32705936555143E-0002	
 1.18250000000000E+0003	 8.23024696819496E-0002	
 1.18450000000000E+0003	 8.15713457083850E-0002	
 1.18650000000000E+0003	 8.11157217348203E-0002	
 1.18850000000000E+0003	 8.09185977612557E-0002	
 1.19050000000000E+0003	 8.09654737876910E-0002	
 1.19250000000000E+0003	 8.12348498141264E-0002	
 1.19450000000000E+0003	 8.17162258405618E-0002	
 1.19650000000000E+0003	 8.23426018669971E-0002	
 1.19850000000000E+0003	 8.30869778934325E-0002	
 1.20050000000000E+0003	 8.38973539198678E-0002	
 1.20250000000000E+0003	 8.47507299463032E-0002	
 1.20450000000000E+0003	 8.56186059727385E-0002	
 1.20650000000000E+0003	 8.65354819991739E-0002	
 1.20850000000000E+0003	 8.74583580256093E-0002	
 1.21050000000000E+0003	 8.83132340520446E-0002	
 1.21250000000000E+0003	 8.89991100784800E-0002	
 1.21450000000000E+0003	 8.94119861049153E-0002	
 1.21650000000000E+0003	 8.98643621313507E-0002	
 1.21850000000000E+0003	 9.11567381577860E-0002	
 1.22050000000000E+0003	 9.30036141842214E-0002	
 1.22250000000000E+0003	 9.41804902106568E-0002	
 1.22450000000000E+0003	 9.46318662370921E-0002	
 1.22650000000000E+0003	 9.49777422635275E-0002	
 1.22850000000000E+0003	 9.54636182899628E-0002	
 1.23050000000000E+0003	 9.60929943163982E-0002	
 1.23250000000000E+0003	 9.68353703428335E-0002	
 1.23450000000000E+0003	 9.75812463692689E-0002	
 1.23650000000000E+0003	 9.82426223957043E-0002	
 1.23850000000000E+0003	 9.87234984221396E-0002	
 1.24050000000000E+0003	 9.90058744485750E-0002	
 1.24250000000000E+0003	 9.90682504750103E-0002	
 1.24450000000000E+0003	 9.89536265014457E-0002	
 1.24650000000000E+0003	 9.86840025278810E-0002	
 1.24850000000000E+0003	 9.83023785543164E-0002	
 1.25050000000000E+0003	 9.78067545807518E-0002	
 1.25250000000000E+0003	 9.72391306071871E-0002	
 1.25450000000000E+0003	 9.66090066336225E-0002	
 1.25650000000000E+0003	 9.59568826600578E-0002	
 1.25850000000000E+0003	 9.52757586864932E-0002	
 1.26050000000000E+0003	 9.45721347129285E-0002	
 1.26250000000000E+0003	 9.38570107393639E-0002	
 1.26450000000000E+0003	 9.31213867657993E-0002	
 1.26650000000000E+0003	 9.23807627922346E-0002	
 1.26850000000000E+0003	 9.16831388186700E-0002	
 1.27050000000000E+0003	 9.10450148451053E-0002	
 1.27250000000000E+0003	 9.04863908715407E-0002	
 1.27450000000000E+0003	 8.99967668979760E-0002	
 1.27650000000000E+0003	 8.95351429244114E-0002	
 1.27850000000000E+0003	 8.91210189508468E-0002	
 1.28050000000000E+0003	 8.87473949772821E-0002	
 1.28250000000000E+0003	 8.83882710037175E-0002	
 1.28450000000000E+0003	 8.79856470301528E-0002	
 1.28650000000000E+0003	 8.75670230565882E-0002	
 1.28850000000000E+0003	 8.71963990830235E-0002	
 1.29050000000000E+0003	 8.69612751094589E-0002	
 1.29250000000000E+0003	 8.68141511358943E-0002	
 1.29450000000000E+0003	 8.67290271623296E-0002	
 1.29650000000000E+0003	 8.67029031887650E-0002	
 1.29850000000000E+0003	 8.68022792152003E-0002	
 1.30050000000000E+0003	 8.69951552416357E-0002	
 1.30250000000000E+0003	 8.72485312680710E-0002	
 1.30450000000000E+0003	 8.75214072945064E-0002	
 1.30650000000000E+0003	 8.77867833209418E-0002	
 1.30850000000000E+0003	 8.80406593473771E-0002	
 1.31050000000000E+0003	 8.82685353738125E-0002	
 1.31250000000000E+0003	 8.84089114002478E-0002	
 1.31450000000000E+0003	 8.85002874266832E-0002	
 1.31650000000000E+0003	 8.85081634531185E-0002	
 1.31850000000000E+0003	 8.83860394795539E-0002	
 1.32050000000000E+0003	 8.82319155059893E-0002	
 1.32250000000000E+0003	 8.80702915324246E-0002	
 1.32450000000000E+0003	 8.79041675588600E-0002	
 1.32650000000000E+0003	 8.77790435852953E-0002	
 1.32850000000000E+0003	 8.77504196117307E-0002	
 1.33050000000000E+0003	 8.78092956381660E-0002	
 1.33250000000000E+0003	 8.79391716646014E-0002	
 1.33450000000000E+0003	 8.80070476910368E-0002	
 1.33650000000000E+0003	 8.79009237174721E-0002	
 1.33850000000000E+0003	 8.76462997439075E-0002	
 1.34050000000000E+0003	 8.75426757703428E-0002	
 1.34250000000000E+0003	 8.75775517967782E-0002	
 1.34450000000000E+0003	 8.73959278232135E-0002	
 1.34650000000000E+0003	 8.70193038496489E-0002	
 1.34850000000000E+0003	 8.66701798760843E-0002	
 1.35050000000000E+0003	 8.64385559025196E-0002	
 1.35250000000000E+0003	 8.63729319289550E-0002	
 1.35450000000000E+0003	 8.64588079553903E-0002	
 1.35650000000000E+0003	 8.66956839818257E-0002	
 1.35850000000000E+0003	 8.69180600082610E-0002	
 1.36050000000000E+0003	 8.69124360346964E-0002	
 1.36250000000000E+0003	 8.68598120611318E-0002	
 1.36450000000000E+0003	 8.70976880875671E-0002	
 1.36650000000000E+0003	 8.78345641140025E-0002	
 1.36850000000000E+0003	 8.86669401404378E-0002	
 1.37050000000000E+0003	 8.91983161668732E-0002	
 1.37250000000000E+0003	 8.95846921933086E-0002	
 1.37450000000000E+0003	 8.99615682197439E-0002	
 1.37650000000000E+0003	 9.04764442461793E-0002	
 1.37850000000000E+0003	 9.10053202726146E-0002	
 1.38050000000000E+0003	 9.16536962990500E-0002	
 1.38250000000000E+0003	 9.25685723254853E-0002	
 1.38450000000000E+0003	 9.33284483519207E-0002	
 1.38650000000000E+0003	 9.36238243783561E-0002	
 1.38850000000000E+0003	 9.40042004047914E-0002	
 1.39050000000000E+0003	 9.47660764312268E-0002	
 1.39250000000000E+0003	 9.55074524576621E-0002	
 1.39450000000000E+0003	 9.61903284840975E-0002	
 1.39650000000000E+0003	 9.69752045105328E-0002	
 1.39850000000000E+0003	 9.79175805369682E-0002	
 1.40050000000000E+0003	 9.87419565634036E-0002	
 1.40250000000000E+0003	 9.93108325898389E-0002	
 1.40450000000000E+0003	 9.95697086162743E-0002	
 1.40650000000000E+0003	 9.95990846427096E-0002	
 1.40850000000000E+0003	 9.95409606691450E-0002	
 1.41050000000000E+0003	 9.93148366955803E-0002	
 1.41250000000000E+0003	 9.90427127220157E-0002	
 1.41450000000000E+0003	 9.86780887484511E-0002	
 1.41650000000000E+0003	 9.80104647748864E-0002	
 1.41850000000000E+0003	 9.71883408013218E-0002	
 1.42050000000000E+0003	 9.65222168277571E-0002	
 1.42250000000000E+0003	 9.61595928541925E-0002	
 1.42450000000000E+0003	 9.54979688806278E-0002	
 1.42650000000000E+0003	 9.46938449070632E-0002	
 1.42850000000000E+0003	 9.40267209334986E-0002	
 1.43050000000000E+0003	 9.33650969599339E-0002	
 1.43250000000000E+0003	 9.28194729863693E-0002	
 1.43450000000000E+0003	 9.24893490128046E-0002	
 1.43650000000000E+0003	 9.23997250392400E-0002	
 1.43850000000000E+0003	 9.26246010656753E-0002	
 1.44050000000000E+0003	 9.32004770921107E-0002	
 1.44250000000000E+0003	 9.35768531185461E-0002	
 1.44450000000000E+0003	 9.38177291449814E-0002	
 1.44650000000000E+0003	 9.40976051714168E-0002	
 1.44850000000000E+0003	 9.43994811978521E-0002	
 1.45050000000000E+0003	 9.47323572242875E-0002	
 1.45250000000000E+0003	 9.48757332507228E-0002	
 1.45450000000000E+0003	 9.44566092771582E-0002	
 1.45650000000000E+0003	 9.37464853035936E-0002	
 1.45850000000000E+0003	 9.31378613300289E-0002	
 1.46050000000000E+0003	 9.28422373564643E-0002	
 1.46250000000000E+0003	 9.22156133828996E-0002	
 1.46450000000000E+0003	 9.12634894093350E-0002	
 1.46650000000000E+0003	 9.01158654357703E-0002	
 1.46850000000000E+0003	 8.90337414622057E-0002	
 1.47050000000000E+0003	 8.76461174886411E-0002	
 1.47250000000000E+0003	 8.56319935150764E-0002	
 1.47450000000000E+0003	 8.37863695415118E-0002	
 1.47650000000000E+0003	 8.27057455679471E-0002	
 1.47850000000000E+0003	 8.18101215943825E-0002	
 1.48050000000000E+0003	 8.11649976208178E-0002	
 1.48250000000000E+0003	 8.06298736472532E-0002	
 1.48450000000000E+0003	 8.03112496736886E-0002	
 1.48650000000000E+0003	 8.01256257001239E-0002	
 1.48850000000000E+0003	 8.00420017265593E-0002	
 1.49050000000000E+0003	 8.03768777529946E-0002	
 1.49250000000000E+0003	 8.10082537794300E-0002	
 1.49450000000000E+0003	 8.16331298058653E-0002	
 1.49650000000000E+0003	 8.23645058323007E-0002	
 1.49850000000000E+0003	 8.33153818587361E-0002	
 1.50050000000000E+0003	 8.41807578851714E-0002	
 1.50250000000000E+0003	 8.48696339116068E-0002	
 1.50450000000000E+0003	 8.55385099380421E-0002	
 1.50650000000000E+0003	 8.66113859644775E-0002	
 1.50850000000000E+0003	 8.82917619909128E-0002	
 1.51050000000000E+0003	 9.06431380173482E-0002	
 1.51250000000000E+0003	 9.30445140437836E-0002	
 1.51450000000000E+0003	 9.51498900702189E-0002	
 1.51650000000000E+0003	 9.70292660966543E-0002	
 1.51850000000000E+0003	 9.83071421230896E-0002	
 1.52050000000000E+0003	 9.93610181495250E-0002	
 1.52250000000000E+0003	 1.01046394175960E-0001	
 1.52450000000000E+0003	 1.03051270202396E-0001	
 1.52650000000000E+0003	 1.05055146228831E-0001	
 1.52850000000000E+0003	 1.07159022255266E-0001	
 1.53050000000000E+0003	 1.09073898281702E-0001	
 1.53250000000000E+0003	 1.11027774308137E-0001	
 1.53450000000000E+0003	 1.12991650334572E-0001	
 1.53650000000000E+0003	 1.14295026361008E-0001	
 1.53850000000000E+0003	 1.15583902387443E-0001	
 1.54050000000000E+0003	 1.17538778413879E-0001	
 1.54250000000000E+0003	 1.19306154440314E-0001	
 1.54450000000000E+0003	 1.20665030466749E-0001	
 1.54650000000000E+0003	 1.21611406493185E-0001	
 1.54850000000000E+0003	 1.21903782519620E-0001	
 1.55050000000000E+0003	 1.21278658546055E-0001	
 1.55250000000000E+0003	 1.20142034572491E-0001	
 1.55450000000000E+0003	 1.18417410598926E-0001	
 1.55650000000000E+0003	 1.16453786625361E-0001	
 1.55850000000000E+0003	 1.14482662651797E-0001	
 1.56050000000000E+0003	 1.11734038678232E-0001	
 1.56250000000000E+0003	 1.10626914704667E-0001	
 1.56450000000000E+0003	 1.09782290731103E-0001	
 1.56650000000000E+0003	 1.08258666757538E-0001	
 1.56850000000000E+0003	 1.06992042783974E-0001	
 1.57050000000000E+0003	 1.05627918810409E-0001	
 1.57250000000000E+0003	 1.04322794836844E-0001	
 1.57450000000000E+0003	 1.03131170863280E-0001	
 1.57650000000000E+0003	 1.02008546889715E-0001	
 1.57850000000000E+0003	 1.01482422916150E-0001	
 1.58050000000000E+0003	 1.01322298942586E-0001	
 1.58250000000000E+0003	 1.00943174969021E-0001	
 1.58450000000000E+0003	 1.00721050995456E-0001	
 1.58650000000000E+0003	 1.00734427021892E-0001	
 1.58850000000000E+0003	 1.01052303048327E-0001	
 1.59050000000000E+0003	 1.01658179074762E-0001	
 1.59250000000000E+0003	 1.02612055101198E-0001	
 1.59450000000000E+0003	 1.03834931127633E-0001	
 1.59650000000000E+0003	 1.05315307154069E-0001	
 1.59850000000000E+0003	 1.06986683180504E-0001	
 1.60050000000000E+0003	 1.08897059206939E-0001	
 1.60250000000000E+0003	 1.11073435233375E-0001	
 1.60450000000000E+0003	 1.13555811259810E-0001	
 1.60650000000000E+0003	 1.16284187286245E-0001	
 1.60850000000000E+0003	 1.19401063312681E-0001	
 1.61050000000000E+0003	 1.22869939339116E-0001	
 1.61250000000000E+0003	 1.26430315365551E-0001	
 1.61450000000000E+0003	 1.29809191391987E-0001	
 1.61650000000000E+0003	 1.34084567418422E-0001	
 1.61850000000000E+0003	 1.39051943444857E-0001	
 1.62050000000000E+0003	 1.43510319471293E-0001	
 1.62250000000000E+0003	 1.48256695497728E-0001	
 1.62450000000000E+0003	 1.53306071524164E-0001	
 1.62650000000000E+0003	 1.58061947550599E-0001	
 1.62850000000000E+0003	 1.62883323577034E-0001	
 1.63050000000000E+0003	 1.67316699603470E-0001	
 1.63250000000000E+0003	 1.70988575629905E-0001	
 1.63450000000000E+0003	 1.74570451656340E-0001	
 1.63650000000000E+0003	 1.78149827682776E-0001	
 1.63850000000000E+0003	 1.80792203709211E-0001	
 1.64050000000000E+0003	 1.82582579735646E-0001	
 1.64250000000000E+0003	 1.83695455762082E-0001	
 1.64450000000000E+0003	 1.84336331788517E-0001	
 1.64650000000000E+0003	 1.85280707814952E-0001	
 1.64850000000000E+0003	 1.86006583841388E-0001	
 1.65050000000000E+0003	 1.86004959867823E-0001	
 1.65250000000000E+0003	 1.86346835894259E-0001	
 1.65450000000000E+0003	 1.86576211920694E-0001	
 1.65650000000000E+0003	 1.86402587947129E-0001	
 1.65850000000000E+0003	 1.85348963973565E-0001	
 1.66050000000000E+0003	 1.83069840000000E-0001	
 1.66250000000000E+0003	 1.80046216026435E-0001	
 1.66450000000000E+0003	 1.76261592052871E-0001	
 1.66650000000000E+0003	 1.72815968079306E-0001	
 1.66850000000000E+0003	 1.69272344105741E-0001	
 1.67050000000000E+0003	 1.65239720132177E-0001	
 1.67250000000000E+0003	 1.61652096158612E-0001	
 1.67450000000000E+0003	 1.58537472185048E-0001	
 1.67650000000000E+0003	 1.54693848211483E-0001	
 1.67850000000000E+0003	 1.51424224237918E-0001	
 1.68050000000000E+0003	 1.48232100264354E-0001	
 1.68250000000000E+0003	 1.45023976290789E-0001	
 1.68450000000000E+0003	 1.41170852317224E-0001	
 1.68650000000000E+0003	 1.37741728343660E-0001	
 1.68850000000000E+0003	 1.35548104370095E-0001	
 1.69050000000000E+0003	 1.32663980396530E-0001	
 1.69250000000000E+0003	 1.29510856422966E-0001	
 1.69450000000000E+0003	 1.26260732449401E-0001	
 1.69650000000000E+0003	 1.22381108475836E-0001	
 1.69850000000000E+0003	 1.19855984502272E-0001	
 1.70050000000000E+0003	 1.17312360528707E-0001	
 1.70250000000000E+0003	 1.14209736555143E-0001	
 1.70450000000000E+0003	 1.12559112581578E-0001	
 1.70650000000000E+0003	 1.10306988608013E-0001	
 1.70850000000000E+0003	 1.07938864634449E-0001	
 1.71050000000000E+0003	 1.05677240660884E-0001	
 1.71250000000000E+0003	 1.03275116687319E-0001	
 1.71450000000000E+0003	 1.00497492713755E-0001	
 1.71650000000000E+0003	 9.74673687401900E-0002	
 1.71850000000000E+0003	 9.46892447666254E-0002	
 1.72050000000000E+0003	 9.24036207930607E-0002	
 1.72250000000000E+0003	 9.04449968194961E-0002	
 1.72450000000000E+0003	 8.82093728459314E-0002	
 1.72650000000000E+0003	 8.62237488723668E-0002	
 1.72850000000000E+0003	 8.44501248988021E-0002	
 1.73050000000000E+0003	 8.25965009252375E-0002	
 1.73250000000000E+0003	 8.08358769516729E-0002	
 1.73450000000000E+0003	 7.89427529781082E-0002	
 1.73650000000000E+0003	 7.75121290045436E-0002	
 1.73850000000000E+0003	 7.71890050309789E-0002	
 1.74050000000000E+0003	 7.64378810574143E-0002	
 1.74250000000000E+0003	 7.56102570838496E-0002	
 1.74450000000000E+0003	 7.48421331102850E-0002	
 1.74650000000000E+0003	 7.41825091367204E-0002	
 1.74850000000000E+0003	 7.33293851631557E-0002	
 1.75050000000000E+0003	 7.22407611895911E-0002	
 1.75250000000000E+0003	 7.12711372160264E-0002	
 1.75450000000000E+0003	 7.09400132424618E-0002	
 1.75650000000000E+0003	 7.03978892688971E-0002	
 1.75850000000000E+0003	 6.95412652953325E-0002	
 1.76050000000000E+0003	 6.90141413217679E-0002	
 1.76250000000000E+0003	 6.84405173482032E-0002	
 1.76450000000000E+0003	 6.79718933746386E-0002	
 1.76650000000000E+0003	 6.76907694010739E-0002	
 1.76850000000000E+0003	 6.70726454275093E-0002	
 1.77050000000000E+0003	 6.67115214539447E-0002	
 1.77250000000000E+0003	 6.63798974803800E-0002	
 1.77450000000000E+0003	 6.60132735068154E-0002	
 1.77650000000000E+0003	 6.59866495332507E-0002	
 1.77850000000000E+0003	 6.58150255596861E-0002	
 1.78050000000000E+0003	 6.54979015861214E-0002	
 1.78250000000000E+0003	 6.51507776125568E-0002	
 1.78450000000000E+0003	 6.48446536389922E-0002	
 1.78650000000000E+0003	 6.45045296654275E-0002	
 1.78850000000000E+0003	 6.42884056918629E-0002	
 1.79050000000000E+0003	 6.40267817182982E-0002	
 1.79250000000000E+0003	 6.36351577447336E-0002	
 1.79450000000000E+0003	 6.32910337711689E-0002	
 1.79650000000000E+0003	 6.32024097976043E-0002	
 1.79850000000000E+0003	 6.31237858240397E-0002	
 1.80050000000000E+0003	 6.28151618504750E-0002	
 1.80250000000000E+0003	 6.23970378769104E-0002	
 1.80450000000000E+0003	 6.22759139033457E-0002	
 1.80650000000000E+0003	 6.21627899297811E-0002	
 1.80850000000000E+0003	 6.19396659562164E-0002	
 1.81050000000000E+0003	 6.17215419826518E-0002	
 1.81250000000000E+0003	 6.14754180090872E-0002	
 1.81450000000000E+0003	 6.13422940355225E-0002	
 1.81650000000000E+0003	 6.11776700619579E-0002	
 1.81850000000000E+0003	 6.09605460883932E-0002	
 1.82050000000000E+0003	 6.07964221148286E-0002	
 1.82250000000000E+0003	 6.06242981412639E-0002	
 1.82450000000000E+0003	 6.03976741676993E-0002	
 1.82650000000000E+0003	 6.00715501941347E-0002	
 1.82850000000000E+0003	 6.00434262205700E-0002	
 1.83050000000000E+0003	 5.98978022470054E-0002	
 1.83250000000000E+0003	 5.96541782734407E-0002	
 1.83450000000000E+0003	 5.96145542998761E-0002	
 1.83650000000000E+0003	 5.94914303263114E-0002	
 1.83850000000000E+0003	 5.93398063527468E-0002	
 1.84050000000000E+0003	 5.91306823791822E-0002	
 1.84250000000000E+0003	 5.89590584056175E-0002	
 1.84450000000000E+0003	 5.86784344320529E-0002	
 1.84650000000000E+0003	 5.84558104584882E-0002	
 1.84850000000000E+0003	 5.85421864849236E-0002	
 1.85050000000000E+0003	 5.85670625113589E-0002	
 1.85250000000000E+0003	 5.85399385377943E-0002	
 1.85450000000000E+0003	 5.84363145642297E-0002	
 1.85650000000000E+0003	 5.83261905906650E-0002	
 1.85850000000000E+0003	 5.81920666171004E-0002	
 1.86050000000000E+0003	 5.80754426435357E-0002	
 1.86250000000000E+0003	 5.79753186699711E-0002	
 1.86450000000000E+0003	 5.78711946964064E-0002	
 1.86650000000000E+0003	 5.77445707228418E-0002	
 1.86850000000000E+0003	 5.76019467492772E-0002	
 1.87050000000000E+0003	 5.74198227757125E-0002	
 1.87250000000000E+0003	 5.74841988021479E-0002	
 1.87450000000000E+0003	 5.75540748285832E-0002	
 1.87650000000000E+0003	 5.74994508550186E-0002	
 1.87850000000000E+0003	 5.74123268814539E-0002	
 1.88050000000000E+0003	 5.73407029078893E-0002	
 1.88250000000000E+0003	 5.72825789343247E-0002	
 1.88450000000000E+0003	 5.72164549607600E-0002	
 1.88650000000000E+0003	 5.71388309871954E-0002	
 1.88850000000000E+0003	 5.70872070136307E-0002	
 1.89050000000000E+0003	 5.69465830400661E-0002	
 1.89250000000000E+0003	 5.69064590665014E-0002	
 1.89450000000000E+0003	 5.69063350929368E-0002	
 1.89650000000000E+0003	 5.68457111193722E-0002	
 1.89850000000000E+0003	 5.68395871458075E-0002	
 1.90050000000000E+0003	 5.68244631722429E-0002	
 1.90250000000000E+0003	 5.67813391986782E-0002	
 1.90450000000000E+0003	 5.67387152251136E-0002	
 1.90650000000000E+0003	 5.66780912515489E-0002	
 1.90850000000000E+0003	 5.66069672779843E-0002	
 1.91050000000000E+0003	 5.65618433044197E-0002	
 1.91250000000000E+0003	 5.65752193308550E-0002	
 1.91450000000000E+0003	 5.65695953572904E-0002	
 1.91650000000000E+0003	 5.65629713837257E-0002	
 1.91850000000000E+0003	 5.64343474101611E-0002	
 1.92050000000000E+0003	 5.63417234365964E-0002	
 1.92250000000000E+0003	 5.63570994630318E-0002	
 1.92450000000000E+0003	 5.63464754894672E-0002	
 1.92650000000000E+0003	 5.64428515159025E-0002	
 1.92850000000000E+0003	 5.64742275423379E-0002	
 1.93050000000000E+0003	 5.64566035687732E-0002	
 1.93250000000000E+0003	 5.64294795952086E-0002	
 1.93450000000000E+0003	 5.64188556216439E-0002	
 1.93650000000000E+0003	 5.64207316480793E-0002	
 1.93850000000000E+0003	 5.64001076745147E-0002	
 1.94050000000000E+0003	 5.63719837009500E-0002	
 1.94250000000000E+0003	 5.62833597273854E-0002	
 1.94450000000000E+0003	 5.62447357538207E-0002	
 1.94650000000000E+0003	 5.63416117802561E-0002	
 1.94850000000000E+0003	 5.63894878066914E-0002	
 1.95050000000000E+0003	 5.64088638331268E-0002	
 1.95250000000000E+0003	 5.64162398595622E-0002	
 1.95450000000000E+0003	 5.64111158859975E-0002	
 1.95650000000000E+0003	 5.64134919124329E-0002	
 1.95850000000000E+0003	 5.64393679388682E-0002	
 1.96050000000000E+0003	 5.64557439653036E-0002	
 1.96250000000000E+0003	 5.64496199917390E-0002	
 1.96450000000000E+0003	 5.64384960181743E-0002	
 1.96650000000000E+0003	 5.63958720446097E-0002	
 1.96850000000000E+0003	 5.63777480710450E-0002	
 1.97050000000000E+0003	 5.64521240974804E-0002	
 1.97250000000000E+0003	 5.65060001239157E-0002	
 1.97450000000000E+0003	 5.65188761503511E-0002	
 1.97650000000000E+0003	 5.65307521767865E-0002	
 1.97850000000000E+0003	 5.65461282032218E-0002	
 1.98050000000000E+0003	 5.65570042296572E-0002	
 1.98250000000000E+0003	 5.65718802560925E-0002	
 1.98450000000000E+0003	 5.65812562825279E-0002	
 1.98650000000000E+0003	 5.65861323089632E-0002	
 1.98850000000000E+0003	 5.65610083353986E-0002	
 1.99050000000000E+0003	 5.65583843618340E-0002	
 1.99250000000000E+0003	 5.65277603882693E-0002	
 1.99450000000000E+0003	 5.65836364147047E-0002	
 1.99650000000000E+0003	 5.66890124411400E-0002	
 1.99850000000000E+0003	 5.67333884675754E-0002	
 2.00050000000000E+0003	 5.67567644940107E-0002	
 2.00250000000000E+0003	 5.67881405204461E-0002	
 2.00450000000000E+0003	 5.68120165468815E-0002	
 2.00650000000000E+0003	 5.68418925733168E-0002	
 2.00850000000000E+0003	 5.68642685997522E-0002	
 2.01050000000000E+0003	 5.69061446261875E-0002	
 2.01250000000000E+0003	 5.69385206526229E-0002	
 2.01450000000000E+0003	 5.69623966790582E-0002	
 2.01650000000000E+0003	 5.69432727054936E-0002	
 2.01850000000000E+0003	 5.69526487319290E-0002	
 2.02050000000000E+0003	 5.70350247583643E-0002	
 2.02250000000000E+0003	 5.71064007847997E-0002	
 2.02450000000000E+0003	 5.71442768112350E-0002	
 2.02650000000000E+0003	 5.71881528376704E-0002	
 2.02850000000000E+0003	 5.72290288641057E-0002	
 2.03050000000000E+0003	 5.72704048905411E-0002	
 2.03250000000000E+0003	 5.73002809169765E-0002	
 2.03450000000000E+0003	 5.73266569434118E-0002	
 2.03650000000000E+0003	 5.73540329698472E-0002	
 2.03850000000000E+0003	 5.73764089962825E-0002	
 2.04050000000000E+0003	 5.73812850227179E-0002	
 2.04250000000000E+0003	 5.73906610491532E-0002	
 2.04450000000000E+0003	 5.74405370755886E-0002	
 2.04650000000000E+0003	 5.74779131020240E-0002	
 2.04850000000000E+0003	 5.75002891284593E-0002	
 2.05050000000000E+0003	 5.75146651548947E-0002	
 2.05250000000000E+0003	 5.75320411813300E-0002	
 2.05450000000000E+0003	 5.75434172077654E-0002	
 2.05650000000000E+0003	 5.75562932342007E-0002	
 2.05850000000000E+0003	 5.75606692606361E-0002	
 2.06050000000000E+0003	 5.75655452870715E-0002	
 2.06250000000000E+0003	 5.75649213135068E-0002	
 2.06450000000000E+0003	 5.75477973399422E-0002	
 2.06650000000000E+0003	 5.75436733663775E-0002	
 2.06850000000000E+0003	 5.75855493928129E-0002	
 2.07050000000000E+0003	 5.76059254192482E-0002	
 2.07250000000000E+0003	 5.76098014456836E-0002	
 2.07450000000000E+0003	 5.76001774721190E-0002	
 2.07650000000000E+0003	 5.76105534985543E-0002	
 2.07850000000000E+0003	 5.76159295249897E-0002	
 2.08050000000000E+0003	 5.75968055514250E-0002	
 2.08250000000000E+0003	 5.75946815778604E-0002	
 2.08450000000000E+0003	 5.75945576042957E-0002	
 2.08650000000000E+0003	 5.75839336307311E-0002	
 2.08850000000000E+0003	 5.75663096571665E-0002	
 2.09050000000000E+0003	 5.75501856836018E-0002	
 2.09250000000000E+0003	 5.75440617100372E-0002	
 2.09450000000000E+0003	 5.75469377364725E-0002	
 2.09650000000000E+0003	 5.75433137629079E-0002	
 2.09850000000000E+0003	 5.75416897893432E-0002	
 2.10050000000000E+0003	 5.75245658157786E-0002	
 2.10250000000000E+0003	 5.75154418422140E-0002	
 2.10450000000000E+0003	 5.75013178686493E-0002	
 2.10650000000000E+0003	 5.74896938950847E-0002	
 2.10850000000000E+0003	 5.74655699215200E-0002	
 2.11050000000000E+0003	 5.74514459479554E-0002	
 2.11250000000000E+0003	 5.74283219743907E-0002	
 2.11450000000000E+0003	 5.74006980008261E-0002	
 2.11650000000000E+0003	 5.73690740272615E-0002	
 2.11850000000000E+0003	 5.73574500536968E-0002	
 2.12050000000000E+0003	 5.73368260801322E-0002	
 2.12250000000000E+0003	 5.73147021065675E-0002	
 2.12450000000000E+0003	 5.72925781330029E-0002	
 2.12650000000000E+0003	 5.72749541594382E-0002	
 2.12850000000000E+0003	 5.72523301858736E-0002	
 2.13050000000000E+0003	 5.72277062123090E-0002	
 2.13250000000000E+0003	 5.72040822387443E-0002	
 2.13450000000000E+0003	 5.71769582651797E-0002	
 2.13650000000000E+0003	 5.71428342916150E-0002	
 2.13850000000000E+0003	 5.71122103180504E-0002	
 2.14050000000000E+0003	 5.70905863444857E-0002	
 2.14250000000000E+0003	 5.70639623709211E-0002	
 2.14450000000000E+0003	 5.70363383973565E-0002	
 2.14650000000000E+0003	 5.70062144237918E-0002	
 2.14850000000000E+0003	 5.69845904502272E-0002	
 2.15050000000000E+0003	 5.69574664766625E-0002	
 2.15250000000000E+0003	 5.69293425030979E-0002	
 2.15450000000000E+0003	 5.69002185295333E-0002	
 2.15650000000000E+0003	 5.68725945559686E-0002	
 2.15850000000000E+0003	 5.68404705824040E-0002	
 2.16050000000000E+0003	 5.68063466088393E-0002	
 2.16250000000000E+0003	 5.67692226352747E-0002	
 2.16450000000000E+0003	 5.67340986617100E-0002	
 2.16650000000000E+0003	 5.67004746881454E-0002	
 2.16850000000000E+0003	 5.66708507145808E-0002	
 2.17050000000000E+0003	 5.66332267410161E-0002	
 2.17250000000000E+0003	 5.65831027674515E-0002	
 2.17450000000000E+0003	 5.65339787938868E-0002	
 2.17650000000000E+0003	 5.64828548203222E-0002	
 2.17850000000000E+0003	 5.64367308467575E-0002	
 2.18050000000000E+0003	 5.63886068731929E-0002	
 2.18250000000000E+0003	 5.63409828996283E-0002	
 2.18450000000000E+0003	 5.62928589260636E-0002	
 2.18650000000000E+0003	 5.62522349524990E-0002	
 2.18850000000000E+0003	 5.62071109789343E-0002	
 2.19050000000000E+0003	 5.61654870053697E-0002	
 2.19250000000000E+0003	 5.61193630318050E-0002	
 2.19450000000000E+0003	 5.60767390582404E-0002	
 2.19650000000000E+0003	 5.60311150846758E-0002	
 2.19850000000000E+0003	 5.59884911111111E-0002	
 2.20050000000000E+0003	 5.59408671375465E-0002	
 2.20250000000000E+0003	 5.58987431639818E-0002	
 2.20450000000000E+0003	 5.58521191904172E-0002	
 2.20650000000000E+0003	 5.58089952168525E-0002	
 2.20850000000000E+0003	 5.57653712432879E-0002	
 2.21050000000000E+0003	 5.57302472697233E-0002	
 2.21250000000000E+0003	 5.56886232961586E-0002	
 2.21450000000000E+0003	 5.56474993225940E-0002	
 2.21650000000000E+0003	 5.56068753490293E-0002	
 2.21850000000000E+0003	 5.55697513754647E-0002	
 2.22050000000000E+0003	 5.55306274019000E-0002	
 2.22250000000000E+0003	 5.54940034283354E-0002	
 2.22450000000000E+0003	 5.54538794547708E-0002	
 2.22650000000000E+0003	 5.54132554812061E-0002	
 2.22850000000000E+0003	 5.53726315076415E-0002	
 2.23050000000000E+0003	 5.53335075340768E-0002	
 2.23250000000000E+0003	 5.52978835605122E-0002	
 2.23450000000000E+0003	 5.52612595869475E-0002	
 2.23650000000000E+0003	 5.52261356133829E-0002	
 2.23850000000000E+0003	 5.51900116398183E-0002	
 2.24050000000000E+0003	 5.51523876662536E-0002	
 2.24250000000000E+0003	 5.51122636926890E-0002	
 2.24450000000000E+0003	 5.50741397191243E-0002	
 2.24650000000000E+0003	 5.50445157455597E-0002	
 2.24850000000000E+0003	 5.50153917719950E-0002	
 2.25050000000000E+0003	 5.49822677984304E-0002	
 2.25250000000000E+0003	 5.49466438248658E-0002	
 2.25450000000000E+0003	 5.49110198513011E-0002	
 2.25650000000000E+0003	 5.48728958777365E-0002	
 2.25850000000000E+0003	 5.48382719041718E-0002	
 2.26050000000000E+0003	 5.48011479306072E-0002	
 2.26250000000000E+0003	 5.47675239570425E-0002	
 2.26450000000000E+0003	 5.47328999834779E-0002	
 2.26650000000000E+0003	 5.47012760099133E-0002	
 2.26850000000000E+0003	 5.46661520363486E-0002	
 2.27050000000000E+0003	 5.46340280627840E-0002	
 2.27250000000000E+0003	 5.46039040892193E-0002	
 2.27450000000000E+0003	 5.45777801156547E-0002	
 2.27650000000000E+0003	 5.45606561420900E-0002	
 2.27850000000000E+0003	 5.45495321685254E-0002	
 2.28050000000000E+0003	 5.45099081949608E-0002	
 2.28250000000000E+0003	 5.43702842213961E-0002	
 2.28450000000000E+0003	 5.42431602478315E-0002	
 2.28650000000000E+0003	 5.42740362742668E-0002	
 2.28850000000000E+0003	 5.42859123007022E-0002	
 2.29050000000000E+0003	 5.42427883271375E-0002	
 2.29250000000000E+0003	 5.41951643535729E-0002	
 2.29450000000000E+0003	 5.41890403800083E-0002	
 2.29650000000000E+0003	 5.42484164064436E-0002	
 2.29850000000000E+0003	 5.43767924328790E-0002	
 2.30050000000000E+0003	 5.45886684593143E-0002	
 2.30250000000000E+0003	 5.47755444857497E-0002	
 2.30450000000000E+0003	 5.47149205121850E-0002	
 2.30650000000000E+0003	 5.44572965386204E-0002	
 2.30850000000000E+0003	 5.40021725650558E-0002	
 2.31050000000000E+0003	 5.31595485914911E-0002	
 2.31250000000000E+0003	 5.18424246179265E-0002	
 2.31450000000000E+0003	 4.93558006443618E-0002	
 2.31650000000000E+0003	 4.58641766707972E-0002	
 2.31850000000000E+0003	 4.34590526972325E-0002	
 2.32050000000000E+0003	 4.24209287236679E-0002	
 2.32250000000000E+0003	 4.16258047501033E-0002	
 2.32450000000000E+0003	 4.06446807765386E-0002	
 2.32650000000000E+0003	 3.94980568029740E-0002	
 2.32850000000000E+0003	 3.96149328294093E-0002	
 2.33050000000000E+0003	 4.03748088558447E-0002	
 2.33250000000000E+0003	 4.00666848822800E-0002	
 2.33450000000000E+0003	 3.86190609087154E-0002	
 2.33650000000000E+0003	 3.76669369351508E-0002	
 2.33850000000000E+0003	 3.62888129615861E-0002	
 2.34050000000000E+0003	 3.44081889880215E-0002	
 2.34250000000000E+0003	 3.29890650144568E-0002	
 2.34450000000000E+0003	 3.47784410408922E-0002	
 2.34650000000000E+0003	 3.84138170673276E-0002	
 2.34850000000000E+0003	 3.56616930937629E-0002	
 2.35050000000000E+0003	 3.49595691201983E-0002	
 2.35250000000000E+0003	 3.68759451466336E-0002	
 2.35450000000000E+0003	 3.32238211730690E-0002	
 2.35650000000000E+0003	 3.13026971995043E-0002	
 2.35850000000000E+0003	 3.28955732259397E-0002	
 2.36050000000000E+0003	 3.50014492523751E-0002	
 2.36250000000000E+0003	 3.58353252788104E-0002	
 2.36450000000000E+0003	 3.57217013052458E-0002	
 2.36650000000000E+0003	 3.46735773316811E-0002	
 2.36850000000000E+0003	 3.34049533581165E-0002	
 2.37050000000000E+0003	 3.06113293845518E-0002	
 2.37250000000000E+0003	 3.21812054109872E-0002	
 2.37450000000000E+0003	 3.55080814374226E-0002	
 2.37650000000000E+0003	 3.86204574638579E-0002	
 2.37850000000000E+0003	 4.14993334902933E-0002	
 2.38050000000000E+0003	 4.43587095167286E-0002	
 2.38250000000000E+0003	 4.73095855431640E-0002	
 2.38450000000000E+0003	 5.24494615695993E-0002	
 2.38650000000000E+0003	 5.42158375960347E-0002	
 2.38850000000000E+0003	 5.43527136224701E-0002	
 2.39050000000000E+0003	 5.44845896489054E-0002	
 2.39250000000000E+0003	 5.45709656753408E-0002	
 2.39450000000000E+0003	 5.46153417017761E-0002	
 2.39650000000000E+0003	 5.46447177282115E-0002	
 2.39850000000000E+0003	 5.46705937546468E-0002	
 2.40050000000000E+0003	 5.46979697810822E-0002	
 2.40250000000000E+0003	 5.47283458075176E-0002	
 2.40450000000000E+0003	 5.47627218339529E-0002	
 2.40650000000000E+0003	 5.47960978603883E-0002	
 2.40850000000000E+0003	 5.48319738868236E-0002	
 2.41050000000000E+0003	 5.48643499132590E-0002	
 2.41250000000000E+0003	 5.48962259396943E-0002	
 2.41450000000000E+0003	 5.49291019661297E-0002	
 2.41650000000000E+0003	 5.49679779925651E-0002	
 2.41850000000000E+0003	 5.50088540190004E-0002	
 2.42050000000000E+0003	 5.50517300454358E-0002	
 2.42250000000000E+0003	 5.50946060718711E-0002	
 2.42450000000000E+0003	 5.51424820983065E-0002	
 2.42650000000000E+0003	 5.51913581247418E-0002	
 2.42850000000000E+0003	 5.52402341511772E-0002	
 2.43050000000000E+0003	 5.52846101776126E-0002	
 2.43250000000000E+0003	 5.53299862040479E-0002	
 2.43450000000000E+0003	 5.53798622304833E-0002	
 2.43650000000000E+0003	 5.54352382569186E-0002	
 2.43850000000000E+0003	 5.54896142833540E-0002	
 2.44050000000000E+0003	 5.55429903097893E-0002	
 2.44250000000000E+0003	 5.55983663362247E-0002	
 2.44450000000000E+0003	 5.56517423626601E-0002	
 2.44650000000000E+0003	 5.57031183890954E-0002	
 2.44850000000000E+0003	 5.57554944155308E-0002	
 2.45050000000000E+0003	 5.58098704419661E-0002	
 2.45250000000000E+0003	 5.58652464684015E-0002	
 2.45450000000000E+0003	 5.59236224948368E-0002	
 2.45650000000000E+0003	 5.59799985212722E-0002	
 2.45850000000000E+0003	 5.60368745477076E-0002	
 2.46050000000000E+0003	 5.60927505741429E-0002	
 2.46250000000000E+0003	 5.61506266005783E-0002	
 2.46450000000000E+0003	 5.62110026270136E-0002	
 2.46650000000000E+0003	 5.62748786534490E-0002	
 2.46850000000000E+0003	 5.63412546798843E-0002	
 2.47050000000000E+0003	 5.64071307063197E-0002	
 2.47250000000000E+0003	 5.64680067327551E-0002	
 2.47450000000000E+0003	 5.65293827591904E-0002	
 2.47650000000000E+0003	 5.65927587856258E-0002	
 2.47850000000000E+0003	 5.66591348120611E-0002	
 2.48050000000000E+0003	 5.67255108384965E-0002	
 2.48250000000000E+0003	 5.67898868649318E-0002	
 2.48450000000000E+0003	 5.68522628913672E-0002	
 2.48650000000000E+0003	 5.69166389178026E-0002	
 2.48850000000000E+0003	 5.69820149442379E-0002	
 2.49050000000000E+0003	 5.70458909706733E-0002	
 2.49250000000000E+0003	 5.71092669971086E-0002	
 2.49450000000000E+0003	 5.71721430235440E-0002	
 2.49650000000000E+0003	 5.72340190499793E-0002	
 2.49850000000000E+0003	 5.72953950764147E-0002	
 2.50050000000000E+0003	 5.73562711028501E-0002	
 2.50250000000000E+0003	 5.74181471292854E-0002	
 2.50450000000000E+0003	 5.74830231557208E-0002	
 2.50650000000000E+0003	 5.75448991821561E-0002	
 2.50850000000000E+0003	 5.76042752085915E-0002	
 2.51050000000000E+0003	 5.76631512350268E-0002	
 2.51250000000000E+0003	 5.77210272614622E-0002	
 2.51450000000000E+0003	 5.77754032878976E-0002	
 2.51650000000000E+0003	 5.78207793143329E-0002	
 2.51850000000000E+0003	 5.78661553407683E-0002	
 2.52050000000000E+0003	 5.79190313672036E-0002	
 2.52250000000000E+0003	 5.79734073936390E-0002	
 2.52450000000000E+0003	 5.80222834200743E-0002	
 2.52650000000000E+0003	 5.80711594465097E-0002	
 2.52850000000000E+0003	 5.81190354729451E-0002	
 2.53050000000000E+0003	 5.81719114993804E-0002	
 2.53250000000000E+0003	 5.82247875258158E-0002	
 2.53450000000000E+0003	 5.82731635522511E-0002	
 2.53650000000000E+0003	 5.83150395786865E-0002	
 2.53850000000000E+0003	 5.83639156051219E-0002	
 2.54050000000000E+0003	 5.84147916315572E-0002	
 2.54250000000000E+0003	 5.84696676579926E-0002	
 2.54450000000000E+0003	 5.85240436844279E-0002	
 2.54650000000000E+0003	 5.85774197108633E-0002	
 2.54850000000000E+0003	 5.86287957372986E-0002	
 2.55050000000000E+0003	 5.86821717637340E-0002	
 2.55250000000000E+0003	 5.87380477901694E-0002	
 2.55450000000000E+0003	 5.87964238166047E-0002	
 2.55650000000000E+0003	 5.88512998430401E-0002	
 2.55850000000000E+0003	 5.89076758694754E-0002	
 2.56050000000000E+0003	 5.89630518959108E-0002	
 2.56250000000000E+0003	 5.90194279223461E-0002	
 2.56450000000000E+0003	 5.90803039487815E-0002	
 2.56650000000000E+0003	 5.91411799752169E-0002	
 2.56850000000000E+0003	 5.92020560016522E-0002	
 2.57050000000000E+0003	 5.92644320280876E-0002	
 2.57250000000000E+0003	 5.93298080545229E-0002	
 2.57450000000000E+0003	 5.93951840809583E-0002	
 2.57650000000000E+0003	 5.94690601073936E-0002	
 2.57850000000000E+0003	 5.95429361338290E-0002	
 2.58050000000000E+0003	 5.96188121602644E-0002	
 2.58250000000000E+0003	 5.96966881866997E-0002	
 2.58450000000000E+0003	 5.97745642131351E-0002	
 2.58650000000000E+0003	 5.98554402395704E-0002	
 2.58850000000000E+0003	 5.99393162660058E-0002	
 2.59050000000000E+0003	 6.00266922924411E-0002	
 2.59250000000000E+0003	 6.01190683188765E-0002	
 2.59450000000000E+0003	 6.02124443453119E-0002	
 2.59650000000000E+0003	 6.03083203717472E-0002	
 2.59850000000000E+0003	 6.04051963981826E-0002	
 2.60050000000000E+0003	 6.04970724246179E-0002	
 2.60250000000000E+0003	 6.05899484510533E-0002	
 2.60450000000000E+0003	 6.06868244774886E-0002	
 2.60650000000000E+0003	 6.07847005039240E-0002	
 2.60850000000000E+0003	 6.08845765303594E-0002	
 2.61050000000000E+0003	 6.09859525567947E-0002	
 2.61250000000000E+0003	 6.10838285832301E-0002	
 2.61450000000000E+0003	 6.11807046096654E-0002	
 2.61650000000000E+0003	 6.12775806361008E-0002	
 2.61850000000000E+0003	 6.13759566625361E-0002	
 2.62050000000000E+0003	 6.14748326889715E-0002	
 2.62250000000000E+0003	 6.15827087154069E-0002	
 2.62450000000000E+0003	 6.16915847418422E-0002	
 2.62650000000000E+0003	 6.17974607682776E-0002	
 2.62850000000000E+0003	 6.18968367947129E-0002	
 2.63050000000000E+0003	 6.20002128211483E-0002	
 2.63250000000000E+0003	 6.21045888475836E-0002	
 2.63450000000000E+0003	 6.22109648740190E-0002	
 2.63650000000000E+0003	 6.23153409004544E-0002	
 2.63850000000000E+0003	 6.24227169268897E-0002	
 2.64050000000000E+0003	 6.25245929533251E-0002	
 2.64250000000000E+0003	 6.26259689797604E-0002	
 2.64450000000000E+0003	 6.27283450061958E-0002	
 2.64650000000000E+0003	 6.28337210326311E-0002	
 2.64850000000000E+0003	 6.29390970590665E-0002	
 2.65050000000000E+0003	 6.30464730855019E-0002	
 2.65250000000000E+0003	 6.31513491119372E-0002	
 2.65450000000000E+0003	 6.32557251383726E-0002	
 2.65650000000000E+0003	 6.33621011648079E-0002	
 2.65850000000000E+0003	 6.34704771912433E-0002	
 2.66050000000000E+0003	 6.35773532176786E-0002	
 2.66250000000000E+0003	 6.36827292441140E-0002	
 2.66450000000000E+0003	 6.37881052705494E-0002	
 2.66650000000000E+0003	 6.38919812969847E-0002	
 2.66850000000000E+0003	 6.39993573234201E-0002	
 2.67050000000000E+0003	 6.41107333498554E-0002	
 2.67250000000000E+0003	 6.42246093762908E-0002	
 2.67450000000000E+0003	 6.43354854027261E-0002	
 2.67650000000000E+0003	 6.44468614291615E-0002	
 2.67850000000000E+0003	 6.45632374555969E-0002	
 2.68050000000000E+0003	 6.46751134820322E-0002	
 2.68250000000000E+0003	 6.47679895084676E-0002	
 2.68450000000000E+0003	 6.48578655349029E-0002	
 2.68650000000000E+0003	 6.49582415613383E-0002	
 2.68850000000000E+0003	 6.50631175877736E-0002	
 2.69050000000000E+0003	 6.51689936142090E-0002	
 2.69250000000000E+0003	 6.52758696406444E-0002	
 2.69450000000000E+0003	 6.53832456670797E-0002	
 2.69650000000000E+0003	 6.54936216935151E-0002	
 2.69850000000000E+0003	 6.56099977199504E-0002	
 2.70050000000000E+0003	 6.57238737463858E-0002	
 2.70250000000000E+0003	 6.58372497728211E-0002	
 2.70450000000000E+0003	 6.59526257992565E-0002	
 2.70650000000000E+0003	 6.60745018256919E-0002	
 2.70850000000000E+0003	 6.62023778521272E-0002	
 2.71050000000000E+0003	 6.63362538785626E-0002	
 2.71250000000000E+0003	 6.64656299049979E-0002	
 2.71450000000000E+0003	 6.66040059314333E-0002	
 2.71650000000000E+0003	 6.67483819578686E-0002	
 2.71850000000000E+0003	 6.68972579843040E-0002	
 2.72050000000000E+0003	 6.70496340107394E-0002	
 2.72250000000000E+0003	 6.72115100371747E-0002	
 2.72450000000000E+0003	 6.73673860636101E-0002	
 2.72650000000000E+0003	 6.75222620900454E-0002	
 2.72850000000000E+0003	 6.76451381164808E-0002	
 2.73050000000000E+0003	 6.77675141429162E-0002	
 2.73250000000000E+0003	 6.79088901693515E-0002	
 2.73450000000000E+0003	 6.80602661957869E-0002	
 2.73650000000000E+0003	 6.82061422222222E-0002	
 2.73850000000000E+0003	 6.83440182486576E-0002	
 2.74050000000000E+0003	 6.84713942750929E-0002	
 2.74250000000000E+0003	 6.86022703015283E-0002	
 2.74450000000000E+0003	 6.87371463279637E-0002	
 2.74650000000000E+0003	 6.88885223543990E-0002	
 2.74850000000000E+0003	 6.90388983808344E-0002	
 2.75050000000000E+0003	 6.91682744072697E-0002	
 2.75250000000000E+0003	 6.92856504337051E-0002	
 2.75450000000000E+0003	 6.94150264601404E-0002	
 2.75650000000000E+0003	 6.95549024865758E-0002	
 2.75850000000000E+0003	 6.97002785130112E-0002	
 2.76050000000000E+0003	 6.98511545394465E-0002	
 2.76250000000000E+0003	 7.00030305658819E-0002	
 2.76450000000000E+0003	 7.01574065923172E-0002	
 2.76650000000000E+0003	 7.03157826187526E-0002	
 2.76850000000000E+0003	 7.04776586451879E-0002	
 2.77050000000000E+0003	 7.06420346716233E-0002	
 2.77250000000000E+0003	 7.08194106980587E-0002	
 2.77450000000000E+0003	 7.10102867244940E-0002	
 2.77650000000000E+0003	 7.11756627509294E-0002	
 2.77850000000000E+0003	 7.13180387773647E-0002	
 2.78050000000000E+0003	 7.14844148038001E-0002	
 2.78250000000000E+0003	 7.16702908302354E-0002	
 2.78450000000000E+0003	 7.18626668566708E-0002	
 2.78650000000000E+0003	 7.20755428831062E-0002	
 2.78850000000000E+0003	 7.23179189095415E-0002	
 2.79050000000000E+0003	 7.25397949359769E-0002	
 2.79250000000000E+0003	 7.27261709624122E-0002	
 2.79450000000000E+0003	 7.29230469888476E-0002	
 2.79650000000000E+0003	 7.31494230152829E-0002	
 2.79850000000000E+0003	 7.33867990417183E-0002	
 2.80050000000000E+0003	 7.35956750681537E-0002	
 2.80250000000000E+0003	 7.38005510945890E-0002	
 2.80450000000000E+0003	 7.40269271210244E-0002	
 2.80650000000000E+0003	 7.42688031474597E-0002	
 2.80850000000000E+0003	 7.45256791738951E-0002	
 2.81050000000000E+0003	 7.47890552003304E-0002	
 2.81250000000000E+0003	 7.50234312267658E-0002	
 2.81450000000000E+0003	 7.52613072532012E-0002	
 2.81650000000000E+0003	 7.55176832796365E-0002	
 2.81850000000000E+0003	 7.57900593060719E-0002	
 2.82050000000000E+0003	 7.60649353325072E-0002	
 2.82250000000000E+0003	 7.63513113589426E-0002	
 2.82450000000000E+0003	 7.66501873853779E-0002	
 2.82650000000000E+0003	 7.69600634118133E-0002	
 2.82850000000000E+0003	 7.72819394382487E-0002	
 2.83050000000000E+0003	 7.76333154646840E-0002	
 2.83250000000000E+0003	 7.80181914911194E-0002	
 2.83450000000000E+0003	 7.84445675175547E-0002	
 2.83650000000000E+0003	 7.89259435439901E-0002	
 2.83850000000000E+0003	 7.94768195704254E-0002	
 2.84050000000000E+0003	 8.00406955968608E-0002	
 2.84250000000000E+0003	 8.06945716232962E-0002	
 2.84450000000000E+0003	 8.15844476497315E-0002	
 2.84650000000000E+0003	 8.27318236761669E-0002	
 2.84850000000000E+0003	 8.40311997026022E-0002	
 2.85050000000000E+0003	 8.53130757290376E-0002	
 2.85250000000000E+0003	 8.64174517554729E-0002	
 2.85450000000000E+0003	 8.72038277819083E-0002	
 2.85650000000000E+0003	 8.76487038083437E-0002	
 2.85850000000000E+0003	 8.78750798347790E-0002	
 2.86050000000000E+0003	 8.80124558612144E-0002	
 2.86250000000000E+0003	 8.81633318876497E-0002	
 2.86450000000000E+0003	 8.84627079140851E-0002	
 2.86650000000000E+0003	 8.89460839405204E-0002	
 2.86850000000000E+0003	 8.95544599669558E-0002	
 2.87050000000000E+0003	 9.02483359933912E-0002	
 2.87250000000000E+0003	 9.09667120198265E-0002	
 2.87450000000000E+0003	 9.15055880462619E-0002	
 2.87650000000000E+0003	 9.17939640726972E-0002	
 2.87850000000000E+0003	 9.19953400991326E-0002	
 2.88050000000000E+0003	 9.21872161255679E-0002	
 2.88250000000000E+0003	 9.23805921520033E-0002	
 2.88450000000000E+0003	 9.26039681784387E-0002	
 2.88650000000000E+0003	 9.28808442048740E-0002	
 2.88850000000000E+0003	 9.32127202313094E-0002	
 2.89050000000000E+0003	 9.35955962577447E-0002	
 2.89250000000000E+0003	 9.40239722841801E-0002	
 2.89450000000000E+0003	 9.45148483106154E-0002	
 2.89650000000000E+0003	 9.50277243370508E-0002	
 2.89850000000000E+0003	 9.55126003634862E-0002	
 2.90050000000000E+0003	 9.60284763899215E-0002	
 2.90250000000000E+0003	 9.66238524163569E-0002	
 2.90450000000000E+0003	 9.72887284427922E-0002	
 2.90650000000000E+0003	 9.80231044692276E-0002	
 2.90850000000000E+0003	 9.88769804956629E-0002	
 2.91050000000000E+0003	 9.99178565220983E-0002	
 2.91250000000000E+0003	 1.01164232548534E-0001	
 2.91450000000000E+0003	 1.02523108574969E-0001	
 2.91650000000000E+0003	 1.03899484601404E-0001	
 2.91850000000000E+0003	 1.05291360627840E-0001	
 2.92050000000000E+0003	 1.06617736654275E-0001	
 2.92250000000000E+0003	 1.07798112680710E-0001	
 2.92450000000000E+0003	 1.08752488707146E-0001	
 2.92650000000000E+0003	 1.09446864733581E-0001	
 2.92850000000000E+0003	 1.09930240760017E-0001	
 2.93050000000000E+0003	 1.10171616786452E-0001	
 2.93250000000000E+0003	 1.10120992812887E-0001	
 2.93450000000000E+0003	 1.09889368839323E-0001	
 2.93650000000000E+0003	 1.09504244865758E-0001	
 2.93850000000000E+0003	 1.08954620892193E-0001	
 2.94050000000000E+0003	 1.08290996918629E-0001	
 2.94250000000000E+0003	 1.07617872945064E-0001	
 2.94450000000000E+0003	 1.06954248971499E-0001	
 2.94650000000000E+0003	 1.06295124997935E-0001	
 2.94850000000000E+0003	 1.05716001024370E-0001	
 2.95050000000000E+0003	 1.05365877050805E-0001	
 2.95250000000000E+0003	 1.05282253077241E-0001	
 2.95450000000000E+0003	 1.05299629103676E-0001	
 2.95650000000000E+0003	 1.05362505130112E-0001	
 2.95850000000000E+0003	 1.05450881156547E-0001	
 2.96050000000000E+0003	 1.05458257182982E-0001	
 2.96250000000000E+0003	 1.05291133209418E-0001	
 2.96450000000000E+0003	 1.04876009235853E-0001	
 2.96650000000000E+0003	 1.04196385262288E-0001	
 2.96850000000000E+0003	 1.03279761288724E-0001	
 2.97050000000000E+0003	 1.02409637315159E-0001	
 2.97250000000000E+0003	 1.01881013341594E-0001	
 2.97450000000000E+0003	 1.01489889368030E-0001	
 2.97650000000000E+0003	 1.00978765394465E-0001	
 2.97850000000000E+0003	 1.00418141420900E-0001	
 2.98050000000000E+0003	 9.98540174473358E-0002	
 2.98250000000000E+0003	 9.92538934737712E-0002	
 2.98450000000000E+0003	 9.86652695002065E-0002	
 2.98650000000000E+0003	 9.81561455266419E-0002	
 2.98850000000000E+0003	 9.77300215530772E-0002	
 2.99050000000000E+0003	 9.74018975795126E-0002	
 2.99250000000000E+0003	 9.71322736059480E-0002	
 2.99450000000000E+0003	 9.68431496323833E-0002	
 2.99650000000000E+0003	 9.66315256588187E-0002	
 2.99850000000000E+0003	 9.65154016852540E-0002	
 3.00050000000000E+0003	 9.64232777116894E-0002	
 3.00250000000000E+0003	 9.64271537381247E-0002	
 3.00450000000000E+0003	 9.65265297645601E-0002	
 3.00650000000000E+0003	 9.66899057909955E-0002	
 3.00850000000000E+0003	 9.69597818174308E-0002	
 3.01050000000000E+0003	 9.73596578438662E-0002	
 3.01250000000000E+0003	 9.77770338703015E-0002	
 3.01450000000000E+0003	 9.81034098967369E-0002	
 3.01650000000000E+0003	 9.83747859231722E-0002	
 3.01850000000000E+0003	 9.87086619496076E-0002	
 3.02050000000000E+0003	 9.91085379760430E-0002	
 3.02250000000000E+0003	 9.95479140024783E-0002	
 3.02450000000000E+0003	 1.00052790028914E-0001	
 3.02650000000000E+0003	 1.00549666055349E-0001	
 3.02850000000000E+0003	 1.01057042081784E-0001	
 3.03050000000000E+0003	 1.01643418108220E-0001	
 3.03250000000000E+0003	 1.02283794134655E-0001	
 3.03450000000000E+0003	 1.02925170161090E-0001	
 3.03650000000000E+0003	 1.03488046187526E-0001	
 3.03850000000000E+0003	 1.04070422213961E-0001	
 3.04050000000000E+0003	 1.04783798240397E-0001	
 3.04250000000000E+0003	 1.05504174266832E-0001	
 3.04450000000000E+0003	 1.06118550293267E-0001	
 3.04650000000000E+0003	 1.06670426319703E-0001	
 3.04850000000000E+0003	 1.07268802346138E-0001	
 3.05050000000000E+0003	 1.07954678372573E-0001	
 3.05250000000000E+0003	 1.08614054399009E-0001	
 3.05450000000000E+0003	 1.09250430425444E-0001	
 3.05650000000000E+0003	 1.09904306451879E-0001	
 3.05850000000000E+0003	 1.10523182478315E-0001	
 3.06050000000000E+0003	 1.11126058504750E-0001	
 3.06250000000000E+0003	 1.11758434531185E-0001	
 3.06450000000000E+0003	 1.12414810557621E-0001	
 3.06650000000000E+0003	 1.13070686584056E-0001	
 3.06850000000000E+0003	 1.13631562610492E-0001	
 3.07050000000000E+0003	 1.14099438636927E-0001	
 3.07250000000000E+0003	 1.14597814663362E-0001	
 3.07450000000000E+0003	 1.15166690689798E-0001	
 3.07650000000000E+0003	 1.15823066716233E-0001	
 3.07850000000000E+0003	 1.16499442742668E-0001	
 3.08050000000000E+0003	 1.17062818769104E-0001	
 3.08250000000000E+0003	 1.17561694795539E-0001	
 3.08450000000000E+0003	 1.18074570821974E-0001	
 3.08650000000000E+0003	 1.18557446848410E-0001	
 3.08850000000000E+0003	 1.19056322874845E-0001	
 3.09050000000000E+0003	 1.19587698901280E-0001	
 3.09250000000000E+0003	 1.20061074927716E-0001	
 3.09450000000000E+0003	 1.20526950954151E-0001	
 3.09650000000000E+0003	 1.21050326980587E-0001	
 3.09850000000000E+0003	 1.21623703007022E-0001	
 3.10050000000000E+0003	 1.22206079033457E-0001	
 3.10250000000000E+0003	 1.22728455059893E-0001	
 3.10450000000000E+0003	 1.23248831086328E-0001	
 3.10650000000000E+0003	 1.23861207112763E-0001	
 3.10850000000000E+0003	 1.24525583139199E-0001	
 3.11050000000000E+0003	 1.25113959165634E-0001	
 3.11250000000000E+0003	 1.25709835192069E-0001	
 3.11450000000000E+0003	 1.26466711218505E-0001	
 3.11650000000000E+0003	 1.27269087244940E-0001	
 3.11850000000000E+0003	 1.27987463271375E-0001	
 3.12050000000000E+0003	 1.28625339297811E-0001	
 3.12250000000000E+0003	 1.29183715324246E-0001	
 3.12450000000000E+0003	 1.29780591350682E-0001	
 3.12650000000000E+0003	 1.30509467377117E-0001	
 3.12850000000000E+0003	 1.31325343403552E-0001	
 3.13050000000000E+0003	 1.32140219429988E-0001	
 3.13250000000000E+0003	 1.32926595456423E-0001	
 3.13450000000000E+0003	 1.33748971482858E-0001	
 3.13650000000000E+0003	 1.34661847509294E-0001	
 3.13850000000000E+0003	 1.35650723535729E-0001	
 3.14050000000000E+0003	 1.36553099562164E-0001	
 3.14250000000000E+0003	 1.37369475588600E-0001	
 3.14450000000000E+0003	 1.38251851615035E-0001	
 3.14650000000000E+0003	 1.39217727641470E-0001	
 3.14850000000000E+0003	 1.40243603667906E-0001	
 3.15050000000000E+0003	 1.41391979694341E-0001	
 3.15250000000000E+0003	 1.42553855720777E-0001	
 3.15450000000000E+0003	 1.43539731747212E-0001	
 3.15650000000000E+0003	 1.44478107773647E-0001	
 3.15850000000000E+0003	 1.45527483800083E-0001	
 3.16050000000000E+0003	 1.46644359826518E-0001	
 3.16250000000000E+0003	 1.47794235852953E-0001	
 3.16450000000000E+0003	 1.48961111879389E-0001	
 3.16650000000000E+0003	 1.50149487905824E-0001	
 3.16850000000000E+0003	 1.51347863932259E-0001	
 3.17050000000000E+0003	 1.52562739958695E-0001	
 3.17250000000000E+0003	 1.53794115985130E-0001	
 3.17450000000000E+0003	 1.55031992011565E-0001	
 3.17650000000000E+0003	 1.56281368038001E-0001	
 3.17850000000000E+0003	 1.57555744064436E-0001	
 3.18050000000000E+0003	 1.58817620090872E-0001	
 3.18250000000000E+0003	 1.60077496117307E-0001	
 3.18450000000000E+0003	 1.61352372143742E-0001	
 3.18650000000000E+0003	 1.62633248170178E-0001	
 3.18850000000000E+0003	 1.63914124196613E-0001	
 3.19050000000000E+0003	 1.65186500223048E-0001	
 3.19250000000000E+0003	 1.66445876249484E-0001	
 3.19450000000000E+0003	 1.67701252275919E-0001	
 3.19650000000000E+0003	 1.68962128302354E-0001	
 3.19850000000000E+0003	 1.70232004328790E-0001	
 3.20050000000000E+0003	 1.71496380355225E-0001	
 3.20250000000000E+0003	 1.72761756381660E-0001	
 3.20450000000000E+0003	 1.74028132408096E-0001	
 3.20650000000000E+0003	 1.75283008434531E-0001	
 3.20850000000000E+0003	 1.76526384460967E-0001	
 3.21050000000000E+0003	 1.77775260487402E-0001	
 3.21250000000000E+0003	 1.79041636513837E-0001	
 3.21450000000000E+0003	 1.80315512540273E-0001	
 3.21650000000000E+0003	 1.81566888566708E-0001	
 3.21850000000000E+0003	 1.82827264593143E-0001	
 3.22050000000000E+0003	 1.84078640619579E-0001	
 3.22250000000000E+0003	 1.85311016646014E-0001	
 3.22450000000000E+0003	 1.86554892672449E-0001	
 3.22650000000000E+0003	 1.87818768698885E-0001	
 3.22850000000000E+0003	 1.89109144725320E-0001	
 3.23050000000000E+0003	 1.90472020751755E-0001	
 3.23250000000000E+0003	 1.91912396778191E-0001	
 3.23450000000000E+0003	 1.93232772804626E-0001	
 3.23650000000000E+0003	 1.94401148831062E-0001	
 3.23850000000000E+0003	 1.95625524857497E-0001	
 3.24050000000000E+0003	 1.96939900883932E-0001	
 3.24250000000000E+0003	 1.98299276910368E-0001	
 3.24450000000000E+0003	 1.99729652936803E-0001	
 3.24650000000000E+0003	 2.01189528963238E-0001	
 3.24850000000000E+0003	 2.02537404989674E-0001	
 3.25050000000000E+0003	 2.03829281016109E-0001	
 3.25250000000000E+0003	 2.05201157042544E-0001	
 3.25450000000000E+0003	 2.06669533068980E-0001	
 3.25650000000000E+0003	 2.08112409095415E-0001	
 3.25850000000000E+0003	 2.09491285121850E-0001	
 3.26050000000000E+0003	 2.10888661148286E-0001	
 3.26250000000000E+0003	 2.12323537174721E-0001	
 3.26450000000000E+0003	 2.13760913201157E-0001	
 3.26650000000000E+0003	 2.15209289227592E-0001	
 3.26850000000000E+0003	 2.16724665254027E-0001	
 3.27050000000000E+0003	 2.18257041280463E-0001	
 3.27250000000000E+0003	 2.19621917306898E-0001	
 3.27450000000000E+0003	 2.20868793333333E-0001	
 3.27650000000000E+0003	 2.22104169359769E-0001	
 3.27850000000000E+0003	 2.23330545386204E-0001	
 3.28050000000000E+0003	 2.24556421412639E-0001	
 3.28250000000000E+0003	 2.25764297439075E-0001	
 3.28450000000000E+0003	 2.26945673465510E-0001	
 3.28650000000000E+0003	 2.28107549491945E-0001	
 3.28850000000000E+0003	 2.29262925518381E-0001	
 3.29050000000000E+0003	 2.30457301544816E-0001	
 3.29250000000000E+0003	 2.31619177571252E-0001	
 3.29450000000000E+0003	 2.32650553597687E-0001	
 3.29650000000000E+0003	 2.33592429624122E-0001	
 3.29850000000000E+0003	 2.34477805650558E-0001	
 3.30050000000000E+0003	 2.35387181676993E-0001	
 3.30250000000000E+0003	 2.36421057703428E-0001	
 3.30450000000000E+0003	 2.37556433729864E-0001	
 3.30650000000000E+0003	 2.38580809756299E-0001	
 3.30850000000000E+0003	 2.39393685782734E-0001	
 3.31050000000000E+0003	 2.40104061809170E-0001	
 3.31250000000000E+0003	 2.40867937835605E-0001	
 3.31450000000000E+0003	 2.41727313862040E-0001	
 3.31650000000000E+0003	 2.42619689888476E-0001	
 3.31850000000000E+0003	 2.43527565914911E-0001	
 3.32050000000000E+0003	 2.44454441941347E-0001	
 3.32250000000000E+0003	 2.45420817967782E-0001	
 3.32450000000000E+0003	 2.46438193994217E-0001	
 3.32650000000000E+0003	 2.47407570020653E-0001	
 3.32850000000000E+0003	 2.48293446047088E-0001	
 3.33050000000000E+0003	 2.49215822073523E-0001	
 3.33250000000000E+0003	 2.50196698099959E-0001	
 3.33450000000000E+0003	 2.51225074126394E-0001	
 3.33650000000000E+0003	 2.52360450152829E-0001	
 3.33850000000000E+0003	 2.53511826179265E-0001	
 3.34050000000000E+0003	 2.54529702205700E-0001	
 3.34250000000000E+0003	 2.55511578232135E-0001	
 3.34450000000000E+0003	 2.56495954258571E-0001	
 3.34650000000000E+0003	 2.57496830285006E-0001	
 3.34850000000000E+0003	 2.58645706311442E-0001	
 3.35050000000000E+0003	 2.59834082337877E-0001	
 3.35250000000000E+0003	 2.60800458364312E-0001	
 3.35450000000000E+0003	 2.61672334390748E-0001	
 3.35650000000000E+0003	 2.62667710417183E-0001	
 3.35850000000000E+0003	 2.63764086443618E-0001	
 3.36050000000000E+0003	 2.64849962470054E-0001	
 3.36250000000000E+0003	 2.65874338496489E-0001	
 3.36450000000000E+0003	 2.66985714522924E-0001	
 3.36650000000000E+0003	 2.68243090549360E-0001	
 3.36850000000000E+0003	 2.69420466575795E-0001	
 3.37050000000000E+0003	 2.70304342602230E-0001	
 3.37250000000000E+0003	 2.71007718628666E-0001	
 3.37450000000000E+0003	 2.71834094655101E-0001	
 3.37650000000000E+0003	 2.72781970681537E-0001	
 3.37850000000000E+0003	 2.73706346707972E-0001	
 3.38050000000000E+0003	 2.74583722734407E-0001	
 3.38250000000000E+0003	 2.75409598760843E-0001	
 3.38450000000000E+0003	 2.76231974787278E-0001	
 3.38650000000000E+0003	 2.77094350813713E-0001	
 3.38850000000000E+0003	 2.78063726840149E-0001	
 3.39050000000000E+0003	 2.79146602866584E-0001	
 3.39250000000000E+0003	 2.80009978893019E-0001	
 3.39450000000000E+0003	 2.80549854919455E-0001	
 3.39650000000000E+0003	 2.81180230945890E-0001	
 3.39850000000000E+0003	 2.82144606972325E-0001	
 3.40050000000000E+0003	 2.83098482998761E-0001	
 3.40250000000000E+0003	 2.83560859025196E-0001	
 3.40450000000000E+0003	 2.83783735051632E-0001	
 3.40650000000000E+0003	 2.84240111078067E-0001	
 3.40850000000000E+0003	 2.84864987104502E-0001	
 3.41050000000000E+0003	 2.85419863130938E-0001	
 3.41250000000000E+0003	 2.85884239157373E-0001	
 3.41450000000000E+0003	 2.86214615183808E-0001	
 3.41650000000000E+0003	 2.86455991210244E-0001	
 3.41850000000000E+0003	 2.86749367236679E-0001	
 3.42050000000000E+0003	 2.87071243263114E-0001	
 3.42250000000000E+0003	 2.87325619289550E-0001	
 3.42450000000000E+0003	 2.87566995315985E-0001	
 3.42650000000000E+0003	 2.87877871342420E-0001	
 3.42850000000000E+0003	 2.88212247368856E-0001	
 3.43050000000000E+0003	 2.88404623395291E-0001	
 3.43250000000000E+0003	 2.88504999421727E-0001	
 3.43450000000000E+0003	 2.88679875448162E-0001	
 3.43650000000000E+0003	 2.88688751474597E-0001	
 3.43850000000000E+0003	 2.88349627501033E-0001	
 3.44050000000000E+0003	 2.87915003527468E-0001	
 3.44250000000000E+0003	 2.87604379553903E-0001	
 3.44450000000000E+0003	 2.87352755580339E-0001	
 3.44650000000000E+0003	 2.87125131606774E-0001	
 3.44850000000000E+0003	 2.86832007633209E-0001	
 3.45050000000000E+0003	 2.86464883659645E-0001	
 3.45250000000000E+0003	 2.86082259686080E-0001	
 3.45450000000000E+0003	 2.85652635712515E-0001	
 3.45650000000000E+0003	 2.85209011738951E-0001	
 3.45850000000000E+0003	 2.84799887765386E-0001	
 3.46050000000000E+0003	 2.84311763791822E-0001	
 3.46250000000000E+0003	 2.83688139818257E-0001	
 3.46450000000000E+0003	 2.83183015844692E-0001	
 3.46650000000000E+0003	 2.82882391871128E-0001	
 3.46850000000000E+0003	 2.82382267897563E-0001	
 3.47050000000000E+0003	 2.81397643923998E-0001	
 3.47250000000000E+0003	 2.80257519950434E-0001	
 3.47450000000000E+0003	 2.79317395976869E-0001	
 3.47650000000000E+0003	 2.78558272003304E-0001	
 3.47850000000000E+0003	 2.77855648029740E-0001	
 3.48050000000000E+0003	 2.76939024056175E-0001	
 3.48250000000000E+0003	 2.75818900082610E-0001	
 3.48450000000000E+0003	 2.74832276109046E-0001	
 3.48650000000000E+0003	 2.73950152135481E-0001	
 3.48850000000000E+0003	 2.72934528161917E-0001	
 3.49050000000000E+0003	 2.71853904188352E-0001	
 3.49250000000000E+0003	 2.70847280214787E-0001	
 3.49450000000000E+0003	 2.69875656241223E-0001	
 3.49650000000000E+0003	 2.68870032267658E-0001	
 3.49850000000000E+0003	 2.67729908294093E-0001	
 3.50050000000000E+0003	 2.66535284320529E-0001	
 3.50250000000000E+0003	 2.65376660346964E-0001	
 3.50450000000000E+0003	 2.64093536373399E-0001	
 3.50650000000000E+0003	 2.62745912399835E-0001	
 3.50850000000000E+0003	 2.61462788426270E-0001	
 3.51050000000000E+0003	 2.60289164452705E-0001	
 3.51250000000000E+0003	 2.59274040479141E-0001	
 3.51450000000000E+0003	 2.58141916505576E-0001	
 3.51650000000000E+0003	 2.56772792532012E-0001	
 3.51850000000000E+0003	 2.55406668558447E-0001	
 3.52050000000000E+0003	 2.54126044584882E-0001	
 3.52250000000000E+0003	 2.52866920611318E-0001	
 3.52450000000000E+0003	 2.51401296637753E-0001	
 3.52650000000000E+0003	 2.49872672664188E-0001	
 3.52850000000000E+0003	 2.48528548690624E-0001	
 3.53050000000000E+0003	 2.47241924717059E-0001	
 3.53250000000000E+0003	 2.45951800743494E-0001	
 3.53450000000000E+0003	 2.44676176769930E-0001	
 3.53650000000000E+0003	 2.43310052796365E-0001	
 3.53850000000000E+0003	 2.41816428822800E-0001	
 3.54050000000000E+0003	 2.40425804849236E-0001	
 3.54250000000000E+0003	 2.39069180875671E-0001	
 3.54450000000000E+0003	 2.37441556902107E-0001	
 3.54650000000000E+0003	 2.35568432928542E-0001	
 3.54850000000000E+0003	 2.33886808954977E-0001	
 3.55050000000000E+0003	 2.32455684981413E-0001	
 3.55250000000000E+0003	 2.30896561007848E-0001	
 3.55450000000000E+0003	 2.29203937034283E-0001	
 3.55650000000000E+0003	 2.27628813060719E-0001	
 3.55850000000000E+0003	 2.26037689087154E-0001	
 3.56050000000000E+0003	 2.24369065113589E-0001	
 3.56250000000000E+0003	 2.22585441140025E-0001	
 3.56450000000000E+0003	 2.20476317166460E-0001	
 3.56650000000000E+0003	 2.18247693192895E-0001	
 3.56850000000000E+0003	 2.16437069219331E-0001	
 3.57050000000000E+0003	 2.15140945245766E-0001	
 3.57250000000000E+0003	 2.13755821272202E-0001	
 3.57450000000000E+0003	 2.12062197298637E-0001	
 3.57650000000000E+0003	 2.10247573325072E-0001	
 3.57850000000000E+0003	 2.08420949351508E-0001	
 3.58050000000000E+0003	 2.06667825377943E-0001	
 3.58250000000000E+0003	 2.04950701404378E-0001	
 3.58450000000000E+0003	 2.02991577430814E-0001	
 3.58650000000000E+0003	 2.00657953457249E-0001	
 3.58850000000000E+0003	 1.98315329483684E-0001	
 3.59050000000000E+0003	 1.96576705510120E-0001	
 3.59250000000000E+0003	 1.95028581536555E-0001	
 3.59450000000000E+0003	 1.93152457562991E-0001	
 3.59650000000000E+0003	 1.91280833589426E-0001	
 3.59850000000000E+0003	 1.89628709615861E-0001	
 3.60050000000000E+0003	 1.87881585642297E-0001	
 3.60250000000000E+0003	 1.85971461668732E-0001	
 3.60450000000000E+0003	 1.83981337695167E-0001	
 3.60650000000000E+0003	 1.81799713721603E-0001	
 3.60850000000000E+0003	 1.79588089748038E-0001	
 3.61050000000000E+0003	 1.77475465774473E-0001	
 3.61250000000000E+0003	 1.75446841800909E-0001	
 3.61450000000000E+0003	 1.73557217827344E-0001	
 3.61650000000000E+0003	 1.71871593853779E-0001	
 3.61850000000000E+0003	 1.70296969880215E-0001	
 3.62050000000000E+0003	 1.68590345906650E-0001	
 3.62250000000000E+0003	 1.66828721933086E-0001	
 3.62450000000000E+0003	 1.64957597959521E-0001	
 3.62650000000000E+0003	 1.62639973985956E-0001	
 3.62850000000000E+0003	 1.60549850012392E-0001	
 3.63050000000000E+0003	 1.58501726038827E-0001	
 3.63250000000000E+0003	 1.57062102065262E-0001	
 3.63450000000000E+0003	 1.55775978091698E-0001	
 3.63650000000000E+0003	 1.54142354118133E-0001	
 3.63850000000000E+0003	 1.52483230144568E-0001	
 3.64050000000000E+0003	 1.50747606171004E-0001	
 3.64250000000000E+0003	 1.49021982197439E-0001	
 3.64450000000000E+0003	 1.47180858223874E-0001	
 3.64650000000000E+0003	 1.45320234250310E-0001	
 3.64850000000000E+0003	 1.43690110276745E-0001	
 3.65050000000000E+0003	 1.42142986303181E-0001	
 3.65250000000000E+0003	 1.40595362329616E-0001	
 3.65450000000000E+0003	 1.39224738356051E-0001	
 3.65650000000000E+0003	 1.38085614382487E-0001	
 3.65850000000000E+0003	 1.36782990408922E-0001	
 3.66050000000000E+0003	 1.35592866435357E-0001	
 3.66250000000000E+0003	 1.34281242461793E-0001	
 3.66450000000000E+0003	 1.32888118488228E-0001	
 3.66650000000000E+0003	 1.31443994514663E-0001	
 3.66850000000000E+0003	 1.30151870541099E-0001	
 3.67050000000000E+0003	 1.29091746567534E-0001	
 3.67250000000000E+0003	 1.27672122593969E-0001	
 3.67450000000000E+0003	 1.26855498620405E-0001	
 3.67650000000000E+0003	 1.26024374646840E-0001	
 3.67850000000000E+0003	 1.24995750673276E-0001	
 3.68050000000000E+0003	 1.24444126699711E-0001	
 3.68250000000000E+0003	 1.23747502726146E-0001	
 3.68450000000000E+0003	 1.22915878752582E-0001	
 3.68650000000000E+0003	 1.22138754779017E-0001	
 3.68850000000000E+0003	 1.21845630805452E-0001	
 3.69050000000000E+0003	 1.21078506831888E-0001	
 3.69250000000000E+0003	 1.20189882858323E-0001	
 3.69450000000000E+0003	 1.19598758884758E-0001	
 3.69650000000000E+0003	 1.19123134911194E-0001	
 3.69850000000000E+0003	 1.18480010937629E-0001	
 3.70050000000000E+0003	 1.17981886964064E-0001	
 3.70250000000000E+0003	 1.17620762990500E-0001	
 3.70450000000000E+0003	 1.17133139016935E-0001	
 3.70650000000000E+0003	 1.16675515043371E-0001	
 3.70850000000000E+0003	 1.16224891069806E-0001	
 3.71050000000000E+0003	 1.15848767096241E-0001	
 3.71250000000000E+0003	 1.15307143122677E-0001	
 3.71450000000000E+0003	 1.14377019149112E-0001	
 3.71650000000000E+0003	 1.14015895175547E-0001	
 3.71850000000000E+0003	 1.14251271201983E-0001	
 3.72050000000000E+0003	 1.14116647228418E-0001	
 3.72250000000000E+0003	 1.13693023254853E-0001	
 3.72450000000000E+0003	 1.13108399281289E-0001	
 3.72650000000000E+0003	 1.12786775307724E-0001	
 3.72850000000000E+0003	 1.12691151334159E-0001	
 3.73050000000000E+0003	 1.12789527360595E-0001	
 3.73250000000000E+0003	 1.12778403387030E-0001	
 3.73450000000000E+0003	 1.12072279413466E-0001	
 3.73650000000000E+0003	 1.11692155439901E-0001	
 3.73850000000000E+0003	 1.11848531466336E-0001	
 3.74050000000000E+0003	 1.11672907492772E-0001	
 3.74250000000000E+0003	 1.10826783519207E-0001	
 3.74450000000000E+0003	 1.10736159545642E-0001	
 3.74650000000000E+0003	 1.10383535572078E-0001	
 3.74850000000000E+0003	 1.10396911598513E-0001	
 3.75050000000000E+0003	 1.10655787624948E-0001	
 3.75250000000000E+0003	 1.10544163651384E-0001	
 3.75450000000000E+0003	 1.10502539677819E-0001	
 3.75650000000000E+0003	 1.10549415704254E-0001	
 3.75850000000000E+0003	 1.10563791730690E-0001	
 3.76050000000000E+0003	 1.10512167757125E-0001	
 3.76250000000000E+0003	 1.10282043783561E-0001	
 3.76450000000000E+0003	 1.10154419809996E-0001	
 3.76650000000000E+0003	 1.09983795836431E-0001	
 3.76850000000000E+0003	 1.09838671862867E-0001	
 3.77050000000000E+0003	 1.09887047889302E-0001	
 3.77250000000000E+0003	 1.09700423915737E-0001	
 3.77450000000000E+0003	 1.09643799942173E-0001	
 3.77650000000000E+0003	 1.09581675968608E-0001	
 3.77850000000000E+0003	 1.09642551995043E-0001	
 3.78050000000000E+0003	 1.09568428021479E-0001	
 3.78250000000000E+0003	 1.09267804047914E-0001	
 3.78450000000000E+0003	 1.09178180074349E-0001	
 3.78650000000000E+0003	 1.09071056100785E-0001	
 3.78850000000000E+0003	 1.08988932127220E-0001	
 3.79050000000000E+0003	 1.08974308153656E-0001	
 3.79250000000000E+0003	 1.08876184180091E-0001	
 3.79450000000000E+0003	 1.08759560206526E-0001	
 3.79650000000000E+0003	 1.08753436232962E-0001	
 3.79850000000000E+0003	 1.08337812259397E-0001	
 3.80050000000000E+0003	 1.08378188285832E-0001	
 3.80250000000000E+0003	 1.08499564312268E-0001	
 3.80450000000000E+0003	 1.08081940338703E-0001	
 3.80650000000000E+0003	 1.08288816365138E-0001	
 3.80850000000000E+0003	 1.08288192391574E-0001	
 3.81050000000000E+0003	 1.08140068418009E-0001	
 3.81250000000000E+0003	 1.07976444444444E-0001	
 3.81450000000000E+0003	 1.07909320470880E-0001	
 3.81650000000000E+0003	 1.08126196497315E-0001	
 3.81850000000000E+0003	 1.07753572523751E-0001	
 3.82050000000000E+0003	 1.07965948550186E-0001	
 3.82250000000000E+0003	 1.07972324576621E-0001	
 3.82450000000000E+0003	 1.07706700603057E-0001	
 3.82650000000000E+0003	 1.07868576629492E-0001	
 3.82850000000000E+0003	 1.07781452655927E-0001	
 3.83050000000000E+0003	 1.07713828682363E-0001	
 3.83250000000000E+0003	 1.07720704708798E-0001	
 3.83450000000000E+0003	 1.07541580735233E-0001	
 3.83650000000000E+0003	 1.07543456761669E-0001	
 3.83850000000000E+0003	 1.07539832788104E-0001	
 3.84050000000000E+0003	 1.07305708814539E-0001	
 3.84250000000000E+0003	 1.07335584840975E-0001	
 3.84450000000000E+0003	 1.07522960867410E-0001	
 3.84650000000000E+0003	 1.07558836893846E-0001	
 3.84850000000000E+0003	 1.07327712920281E-0001	
 3.85050000000000E+0003	 1.06576588946716E-0001	
 3.85250000000000E+0003	 1.06420464973152E-0001	
 3.85450000000000E+0003	 1.06343340999587E-0001	
 3.85650000000000E+0003	 1.06435217026022E-0001	
 3.85850000000000E+0003	 1.06979093052458E-0001	
 3.86050000000000E+0003	 1.07174469078893E-0001	
 3.86250000000000E+0003	 1.07108845105328E-0001	
 3.86450000000000E+0003	 1.07120721131764E-0001	
 3.86650000000000E+0003	 1.06920097158199E-0001	
 3.86850000000000E+0003	 1.06803473184634E-0001	
 3.87050000000000E+0003	 1.06931849211070E-0001	
 3.87250000000000E+0003	 1.06803725237505E-0001	
 3.87450000000000E+0003	 1.07126101263941E-0001	
 3.87650000000000E+0003	 1.07171477290376E-0001	
 3.87850000000000E+0003	 1.07046853316811E-0001	
 3.88050000000000E+0003	 1.07058729343247E-0001	
 3.88250000000000E+0003	 1.06820605369682E-0001	
 3.88450000000000E+0003	 1.06867981396117E-0001	
 3.88650000000000E+0003	 1.07029357422553E-0001	
 3.88850000000000E+0003	 1.06881733448988E-0001	
 3.89050000000000E+0003	 1.07077109475423E-0001	
 3.89250000000000E+0003	 1.07162485501859E-0001	
 3.89450000000000E+0003	 1.07130361528294E-0001	
 3.89650000000000E+0003	 1.07103237554729E-0001	
 3.89850000000000E+0003	 1.06948113581165E-0001	
 3.90050000000000E+0003	 1.06601489607600E-0001	
 3.90250000000000E+0003	 1.06321365634036E-0001	
 3.90450000000000E+0003	 1.06476241660471E-0001	
 3.90650000000000E+0003	 1.06820617686906E-0001	
 3.90850000000000E+0003	 1.07241493713342E-0001	
 3.91050000000000E+0003	 1.07517869739777E-0001	
 3.91250000000000E+0003	 1.07565245766212E-0001	
 3.91450000000000E+0003	 1.07418621792648E-0001	
 3.91650000000000E+0003	 1.07224497819083E-0001	
 3.91850000000000E+0003	 1.07093873845518E-0001	
 3.92050000000000E+0003	 1.07198749871954E-0001	
 3.92250000000000E+0003	 1.07305625898389E-0001	
 3.92450000000000E+0003	 1.07377001924824E-0001	
 3.92650000000000E+0003	 1.07443377951260E-0001	
 3.92850000000000E+0003	 1.07525753977695E-0001	
 3.93050000000000E+0003	 1.07467630004131E-0001	
 3.93250000000000E+0003	 1.07345006030566E-0001	
 3.93450000000000E+0003	 1.07446882057001E-0001	
 3.93650000000000E+0003	 1.07675258083437E-0001	
 3.93850000000000E+0003	 1.07772634109872E-0001	
 3.94050000000000E+0003	 1.07668010136307E-0001	
 3.94250000000000E+0003	 1.07568386162743E-0001	
 3.94450000000000E+0003	 1.07521262189178E-0001	
 3.94650000000000E+0003	 1.07530638215613E-0001	
 3.94850000000000E+0003	 1.07535514242049E-0001	
 3.95050000000000E+0003	 1.07618890268484E-0001	
 3.95250000000000E+0003	 1.07816766294919E-0001	
 3.95450000000000E+0003	 1.07939642321355E-0001	
 3.95650000000000E+0003	 1.07956518347790E-0001	
 3.95850000000000E+0003	 1.07944394374226E-0001	
 3.96050000000000E+0003	 1.07911770400661E-0001	
 3.96250000000000E+0003	 1.07905146427096E-0001	
 3.96450000000000E+0003	 1.07974022453532E-0001	
 3.96650000000000E+0003	 1.08065398479967E-0001	
 3.96850000000000E+0003	 1.08085774506402E-0001	
 3.97050000000000E+0003	 1.08082650532838E-0001	
 3.97250000000000E+0003	 1.08104026559273E-0001	
 3.97450000000000E+0003	 1.08114402585708E-0001	
 3.97650000000000E+0003	 1.08130278612144E-0001	
 3.97850000000000E+0003	 1.08188654638579E-0001	
 3.98050000000000E+0003	 1.08258530665014E-0001	
 3.98250000000000E+0003	 1.08332906691450E-0001	
 3.98450000000000E+0003	 1.08391282717885E-0001	
 3.98650000000000E+0003	 1.08392158744321E-0001	
 3.98850000000000E+0003	 1.08342034770756E-0001	
 3.99050000000000E+0003	 1.08309410797191E-0001	
 3.99250000000000E+0003	 1.08326786823627E-0001	
 3.99450000000000E+0003	 1.08384162850062E-0001	
 3.99650000000000E+0003	 1.08436538876497E-0001	
 3.99850000000000E+0003	 1.08479914902933E-0001	

>1	DATALINE
