*CPCWIN*

>1	DATALINE
DATALINE
1
Operator:

Description:

Remarks:





15.9.2008
11:0


_x	_y
	
	
UNIT	UNIT
 4.50500000000000E+0002	 2.71540000000000E-0001	
 4.52500000000000E+0002	 2.71807000000000E-0001	
 4.54500000000000E+0002	 2.73453500000000E-0001	
 4.56500000000000E+0002	 2.75503500000000E-0001	
 4.58500000000000E+0002	 2.76758354154717E-0001	
 4.60500000000000E+0002	 2.78113542944103E-0001	
 4.62500000000000E+0002	 2.79382231733489E-0001	
 4.64500000000000E+0002	 2.80733920522876E-0001	
 4.66500000000000E+0002	 2.82001609312262E-0001	
 4.68500000000000E+0002	 2.83348298101649E-0001	
 4.70500000000000E+0002	 2.84765986891035E-0001	
 4.72500000000000E+0002	 2.86246175680421E-0001	
 4.74500000000000E+0002	 2.87791864469808E-0001	
 4.76500000000000E+0002	 2.89416053259194E-0001	
 4.78500000000000E+0002	 2.91185742048581E-0001	
 4.80500000000000E+0002	 2.93053430837967E-0001	
 4.82500000000000E+0002	 2.94978119627353E-0001	
 4.84500000000000E+0002	 2.97155308416740E-0001	
 4.86500000000000E+0002	 2.99477997206126E-0001	
 4.88500000000000E+0002	 3.01838185995513E-0001	
 4.90500000000000E+0002	 3.04139374784899E-0001	
 4.92500000000000E+0002	 3.06521063574285E-0001	
 4.94500000000000E+0002	 3.08824252363672E-0001	
 4.96500000000000E+0002	 3.11046441153058E-0001	
 4.98500000000000E+0002	 3.13184629942445E-0001	
 5.00500000000000E+0002	 3.15331318731831E-0001	
 5.02500000000000E+0002	 3.17592007521217E-0001	
 5.04500000000000E+0002	 3.19886696310604E-0001	
 5.06500000000000E+0002	 3.22095385099990E-0001	
 5.08500000000000E+0002	 3.24282573889377E-0001	
 5.10500000000000E+0002	 3.26523262678763E-0001	
 5.12500000000000E+0002	 3.28889951468149E-0001	
 5.14500000000000E+0002	 3.31329640257536E-0001	
 5.16500000000000E+0002	 3.33920829046922E-0001	
 5.18500000000000E+0002	 3.36679017836309E-0001	
 5.20500000000000E+0002	 3.38997706625695E-0001	
 5.22500000000000E+0002	 3.41677895415081E-0001	
 5.24500000000000E+0002	 3.44214584204468E-0001	
 5.26500000000000E+0002	 3.46722772993854E-0001	
 5.28500000000000E+0002	 3.50255461783241E-0001	
 5.30500000000000E+0002	 3.53087150572627E-0001	
 5.32500000000000E+0002	 3.54265339362013E-0001	
 5.34500000000000E+0002	 3.54393528151400E-0001	
 5.36500000000000E+0002	 3.53946716940786E-0001	
 5.38500000000000E+0002	 3.53212405730173E-0001	
 5.40500000000000E+0002	 3.52335594519559E-0001	
 5.42500000000000E+0002	 3.51599783308945E-0001	
 5.44500000000000E+0002	 3.50937972098332E-0001	
 5.46500000000000E+0002	 3.50437660887718E-0001	
 5.48500000000000E+0002	 3.50222349677105E-0001	
 5.50500000000000E+0002	 3.50188538466491E-0001	
 5.52500000000000E+0002	 3.50163727255877E-0001	
 5.54500000000000E+0002	 3.49731916045264E-0001	
 5.56500000000000E+0002	 3.48924604834650E-0001	
 5.58500000000000E+0002	 3.47960293624037E-0001	
 5.60500000000000E+0002	 3.46712482413423E-0001	
 5.62500000000000E+0002	 3.45200171202809E-0001	
 5.64500000000000E+0002	 3.43668359992196E-0001	
 5.66500000000000E+0002	 3.42316548781582E-0001	
 5.68500000000000E+0002	 3.41076237570969E-0001	
 5.70500000000000E+0002	 3.40132426360355E-0001	
 5.72500000000000E+0002	 3.39529115149741E-0001	
 5.74500000000000E+0002	 3.38871803939128E-0001	
 5.76500000000000E+0002	 3.38298492728514E-0001	
 5.78500000000000E+0002	 3.38308681517901E-0001	
 5.80500000000000E+0002	 3.38118870307287E-0001	
 5.82500000000000E+0002	 3.37806559096673E-0001	
 5.84500000000000E+0002	 3.37445247886060E-0001	
 5.86500000000000E+0002	 3.37143936675446E-0001	
 5.88500000000000E+0002	 3.37017125464833E-0001	
 5.90500000000000E+0002	 3.36699814254219E-0001	
 5.92500000000000E+0002	 3.36676003043606E-0001	
 5.94500000000000E+0002	 3.37537691832992E-0001	
 5.96500000000000E+0002	 3.38641380622378E-0001	
 5.98500000000000E+0002	 3.39457569411765E-0001	
 6.00500000000000E+0002	 3.40068258201151E-0001	
 6.02500000000000E+0002	 3.40780446990538E-0001	
 6.04500000000000E+0002	 3.41070135779924E-0001	
 6.06500000000000E+0002	 3.40722324569310E-0001	
 6.08500000000000E+0002	 3.39944513358697E-0001	
 6.10500000000000E+0002	 3.38938202148083E-0001	
 6.12500000000000E+0002	 3.37899890937470E-0001	
 6.14500000000000E+0002	 3.36959079726856E-0001	
 6.16500000000000E+0002	 3.36187268516242E-0001	
 6.18500000000000E+0002	 3.35465457305629E-0001	
 6.20500000000000E+0002	 3.34610146095015E-0001	
 6.22500000000000E+0002	 3.33830334884402E-0001	
 6.24500000000000E+0002	 3.32995023673788E-0001	
 6.26500000000000E+0002	 3.32239712463174E-0001	
 6.28500000000000E+0002	 3.31729401252561E-0001	
 6.30500000000000E+0002	 3.31101090041947E-0001	
 6.32500000000000E+0002	 3.30078278831334E-0001	
 6.34500000000000E+0002	 3.28748467620720E-0001	
 6.36500000000000E+0002	 3.27529656410106E-0001	
 6.38500000000000E+0002	 3.26462345199493E-0001	
 6.40500000000000E+0002	 3.25236533988879E-0001	
 6.42500000000000E+0002	 3.24036722778266E-0001	
 6.44500000000000E+0002	 3.22838911567652E-0001	
 6.46500000000000E+0002	 3.21679600357038E-0001	
 6.48500000000000E+0002	 3.20527289146425E-0001	
 6.50500000000000E+0002	 3.19327477935811E-0001	
 6.52500000000000E+0002	 3.18199166725198E-0001	
 6.54500000000000E+0002	 3.17222355514584E-0001	
 6.56500000000000E+0002	 3.16348044303970E-0001	
 6.58500000000000E+0002	 3.15488733093357E-0001	
 6.60500000000000E+0002	 3.14744421882743E-0001	
 6.62500000000000E+0002	 3.14037110672130E-0001	
 6.64500000000000E+0002	 3.12955299461516E-0001	
 6.66500000000000E+0002	 3.10977988250902E-0001	
 6.68500000000000E+0002	 3.09372177040289E-0001	
 6.70500000000000E+0002	 3.09255365829675E-0001	
 6.72500000000000E+0002	 3.08455554619062E-0001	
 6.74500000000000E+0002	 3.07173243408448E-0001	
 6.76500000000000E+0002	 3.05779932197834E-0001	
 6.78500000000000E+0002	 3.04412120987221E-0001	
 6.80500000000000E+0002	 3.03172309776607E-0001	
 6.82500000000000E+0002	 3.02053998565994E-0001	
 6.84500000000000E+0002	 3.01051687355380E-0001	
 6.86500000000000E+0002	 3.00121376144766E-0001	
 6.88500000000000E+0002	 2.99238564934153E-0001	
 6.90500000000000E+0002	 2.98610753723539E-0001	
 6.92500000000000E+0002	 2.98158942512926E-0001	
 6.94500000000000E+0002	 2.97689131302312E-0001	
 6.96500000000000E+0002	 2.97210320091698E-0001	
 6.98500000000000E+0002	 2.96687008881085E-0001	
 7.00500000000000E+0002	 2.96027197670471E-0001	
 7.02500000000000E+0002	 2.95023386459858E-0001	
 7.04500000000000E+0002	 2.93701075249244E-0001	
 7.06500000000000E+0002	 2.92347764038630E-0001	
 7.08500000000000E+0002	 2.91047452828017E-0001	
 7.10500000000000E+0002	 2.89740641617403E-0001	
 7.12500000000000E+0002	 2.88310830406790E-0001	
 7.14500000000000E+0002	 2.86629519196176E-0001	
 7.16500000000000E+0002	 2.84775207985562E-0001	
 7.18500000000000E+0002	 2.82946896774949E-0001	
 7.20500000000000E+0002	 2.80948085564335E-0001	
 7.22500000000000E+0002	 2.78517774353722E-0001	
 7.24500000000000E+0002	 2.75719463143108E-0001	
 7.26500000000000E+0002	 2.72499651932494E-0001	
 7.28500000000000E+0002	 2.68911340721881E-0001	
 7.30500000000000E+0002	 2.65271529511267E-0001	
 7.32500000000000E+0002	 2.61933718300654E-0001	
 7.34500000000000E+0002	 2.59087407090040E-0001	
 7.36500000000000E+0002	 2.56697595879426E-0001	
 7.38500000000000E+0002	 2.54648784668813E-0001	
 7.40500000000000E+0002	 2.52835973458199E-0001	
 7.42500000000000E+0002	 2.51199662247586E-0001	
 7.44500000000000E+0002	 2.49676351036972E-0001	
 7.46500000000000E+0002	 2.48291539826358E-0001	
 7.48500000000000E+0002	 2.47066728615745E-0001	
 7.50500000000000E+0002	 2.46033917405131E-0001	
 7.52500000000000E+0002	 2.45356606194518E-0001	
 7.54500000000000E+0002	 2.45207794983904E-0001	
 7.56500000000000E+0002	 2.45628483773290E-0001	
 7.58500000000000E+0002	 2.46605172562677E-0001	
 7.60500000000000E+0002	 2.48078361352063E-0001	
 7.62500000000000E+0002	 2.49700550141450E-0001	
 7.64500000000000E+0002	 2.50593238930836E-0001	
 7.66500000000000E+0002	 2.49683927720222E-0001	
 7.68500000000000E+0002	 2.46793116509609E-0001	
 7.70500000000000E+0002	 2.42932805298995E-0001	
 7.72500000000000E+0002	 2.39516494088382E-0001	
 7.74500000000000E+0002	 2.37558682877768E-0001	
 7.76500000000000E+0002	 2.37656871667154E-0001	
 7.78500000000000E+0002	 2.39007060456541E-0001	
 7.80500000000000E+0002	 2.39261749245927E-0001	
 7.82500000000000E+0002	 2.37370438035314E-0001	
 7.84500000000000E+0002	 2.34625626824700E-0001	
 7.86500000000000E+0002	 2.31960315614086E-0001	
 7.88500000000000E+0002	 2.29268504403473E-0001	
 7.90500000000000E+0002	 2.26706193192859E-0001	
 7.92500000000000E+0002	 2.25001881982246E-0001	
 7.94500000000000E+0002	 2.24210570771632E-0001	
 7.96500000000000E+0002	 2.23350259561018E-0001	
 7.98500000000000E+0002	 2.21721948350405E-0001	
 8.00500000000000E+0002	 2.19682637139791E-0001	
 8.02500000000000E+0002	 2.17930325929178E-0001	
 8.04500000000000E+0002	 2.16755514718564E-0001	
 8.06500000000000E+0002	 2.16022703507950E-0001	
 8.08500000000000E+0002	 2.15464892297337E-0001	
 8.10500000000000E+0002	 2.14755081086723E-0001	
 8.12500000000000E+0002	 2.13614769876110E-0001	
 8.14500000000000E+0002	 2.12018958665496E-0001	
 8.16500000000000E+0002	 2.10225147454882E-0001	
 8.18500000000000E+0002	 2.08481336244269E-0001	
 8.20500000000000E+0002	 2.07075025033655E-0001	
 8.22500000000000E+0002	 2.06145713823042E-0001	
 8.24500000000000E+0002	 2.05724402612428E-0001	
 8.26500000000000E+0002	 2.05648591401814E-0001	
 8.28500000000000E+0002	 2.05840780191201E-0001	
 8.30500000000000E+0002	 2.06253968980587E-0001	
 8.32500000000000E+0002	 2.06938157769974E-0001	
 8.34500000000000E+0002	 2.07782346559360E-0001	
 8.36500000000000E+0002	 2.08653035348746E-0001	
 8.38500000000000E+0002	 2.09376724138133E-0001	
 8.40500000000000E+0002	 2.09889412927519E-0001	
 8.42500000000000E+0002	 2.10133101716906E-0001	
 8.44500000000000E+0002	 2.10159290506292E-0001	
 8.46500000000000E+0002	 2.10078479295678E-0001	
 8.48500000000000E+0002	 2.10079168085065E-0001	
 8.50500000000000E+0002	 2.10229356874451E-0001	
 8.52500000000000E+0002	 2.10610545663838E-0001	
 8.54500000000000E+0002	 2.11168234453224E-0001	
 8.56500000000000E+0002	 2.11698923242610E-0001	
 8.58500000000000E+0002	 2.11880612031997E-0001	
 8.60500000000000E+0002	 2.11489800821383E-0001	
 8.62500000000000E+0002	 2.10346989610770E-0001	
 8.64500000000000E+0002	 2.08476678400156E-0001	
 8.66500000000000E+0002	 2.06063867189542E-0001	
 8.68500000000000E+0002	 2.03656055978929E-0001	
 8.70500000000000E+0002	 2.01902244768315E-0001	
 8.72500000000000E+0002	 2.00646433557702E-0001	
 8.74500000000000E+0002	 1.99082122347088E-0001	
 8.76500000000000E+0002	 1.97636311136474E-0001	
 8.78500000000000E+0002	 1.96876999925861E-0001	
 8.80500000000000E+0002	 1.96680688715247E-0001	
 8.82500000000000E+0002	 1.96704377504634E-0001	
 8.84500000000000E+0002	 1.96731066294020E-0001	
 8.86500000000000E+0002	 1.96585755083406E-0001	
 8.88500000000000E+0002	 1.96228943872793E-0001	
 8.90500000000000E+0002	 1.95651632662179E-0001	
 8.92500000000000E+0002	 1.94898321451566E-0001	
 8.94500000000000E+0002	 1.94007010240952E-0001	
 8.96500000000000E+0002	 1.93152199030339E-0001	
 8.98500000000000E+0002	 1.92524887819725E-0001	
 9.00500000000000E+0002	 1.92452076609111E-0001	
 9.02500000000000E+0002	 1.93257265398498E-0001	
 9.04500000000000E+0002	 1.95249454187884E-0001	
 9.06500000000000E+0002	 1.98448142977271E-0001	
 9.08500000000000E+0002	 2.02575331766657E-0001	
 9.10500000000000E+0002	 2.06968520556043E-0001	
 9.12500000000000E+0002	 2.10878709345430E-0001	
 9.14500000000000E+0002	 2.13623898134816E-0001	
 9.16500000000000E+0002	 2.14845586924203E-0001	
 9.18500000000000E+0002	 2.14442775713589E-0001	
 9.20500000000000E+0002	 2.12658464502975E-0001	
 9.22500000000000E+0002	 2.09912153292362E-0001	
 9.24500000000000E+0002	 2.06660342081748E-0001	
 9.26500000000000E+0002	 2.03273530871135E-0001	
 9.28500000000000E+0002	 2.00080719660521E-0001	
 9.30500000000000E+0002	 1.97319908449907E-0001	
 9.32500000000000E+0002	 1.95139597239294E-0001	
 9.34500000000000E+0002	 1.93554286028680E-0001	
 9.36500000000000E+0002	 1.92510474818067E-0001	
 9.38500000000000E+0002	 1.91931163607453E-0001	
 9.40500000000000E+0002	 1.91788852396839E-0001	
 9.42500000000000E+0002	 1.92128041186226E-0001	
 9.44500000000000E+0002	 1.93114729975612E-0001	
 9.46500000000000E+0002	 1.94819918764999E-0001	
 9.48500000000000E+0002	 1.97260607554385E-0001	
 9.50500000000000E+0002	 2.00400796343771E-0001	
 9.52500000000000E+0002	 2.04269485133158E-0001	
 9.54500000000000E+0002	 2.08836173922544E-0001	
 9.56500000000000E+0002	 2.14059362711931E-0001	
 9.58500000000000E+0002	 2.19753051501317E-0001	
 9.60500000000000E+0002	 2.25722740290703E-0001	
 9.62500000000000E+0002	 2.31719929080090E-0001	
 9.64500000000000E+0002	 2.37580617869476E-0001	
 9.66500000000000E+0002	 2.43203806658863E-0001	
 9.68500000000000E+0002	 2.48674495448249E-0001	
 9.70500000000000E+0002	 2.54226184237635E-0001	
 9.72500000000000E+0002	 2.60314873027022E-0001	
 9.74500000000000E+0002	 2.67518561816408E-0001	
 9.76500000000000E+0002	 2.76572750605795E-0001	
 9.78500000000000E+0002	 2.88098939395181E-0001	
 9.80500000000000E+0002	 3.02336128184567E-0001	
 9.82500000000000E+0002	 3.18760816973954E-0001	
 9.84500000000000E+0002	 3.36112005763340E-0001	
 9.86500000000000E+0002	 3.52684694552727E-0001	
 9.88500000000000E+0002	 3.67057383342113E-0001	
 9.90500000000000E+0002	 3.78608572131499E-0001	
 9.92500000000000E+0002	 3.87817260920886E-0001	
 9.94500000000000E+0002	 3.95897949710272E-0001	
 9.96500000000000E+0002	 4.04380138499659E-0001	
 9.98500000000000E+0002	 4.14445827289045E-0001	
 1.00050000000000E+0003	 4.26498016078431E-0001	
 1.00250000000000E+0003	 4.40095704867818E-0001	
 1.00450000000000E+0003	 4.54329893657204E-0001	
 1.00650000000000E+0003	 4.68258082446591E-0001	
 1.00850000000000E+0003	 4.81247771235977E-0001	
 1.01050000000000E+0003	 4.93058960025363E-0001	
 1.01250000000000E+0003	 5.03757148814750E-0001	
 1.01450000000000E+0003	 5.13352337604136E-0001	
 1.01650000000000E+0003	 5.21662026393523E-0001	
 1.01850000000000E+0003	 5.28386715182909E-0001	
 1.02050000000000E+0003	 5.33384403972295E-0001	
 1.02250000000000E+0003	 5.36943092761682E-0001	
 1.02450000000000E+0003	 5.39774281551068E-0001	
 1.02650000000000E+0003	 5.42663470340455E-0001	
 1.02850000000000E+0003	 5.46037159129841E-0001	
 1.03050000000000E+0003	 5.49811847919227E-0001	
 1.03250000000000E+0003	 5.53580536708614E-0001	
 1.03450000000000E+0003	 5.56869225498000E-0001	
 1.03650000000000E+0003	 5.59356414287387E-0001	
 1.03850000000000E+0003	 5.60957603076773E-0001	
 1.04050000000000E+0003	 5.61932791866159E-0001	
 1.04250000000000E+0003	 5.62889480655546E-0001	
 1.04450000000000E+0003	 5.64469169444932E-0001	
 1.04650000000000E+0003	 5.67103358234319E-0001	
 1.04850000000000E+0003	 5.70810047023705E-0001	
 1.05050000000000E+0003	 5.74982735813091E-0001	
 1.05250000000000E+0003	 5.78490424602478E-0001	
 1.05450000000000E+0003	 5.80340613391864E-0001	
 1.05650000000000E+0003	 5.80123302181251E-0001	
 1.05850000000000E+0003	 5.78013490970637E-0001	
 1.06050000000000E+0003	 5.74601679760023E-0001	
 1.06250000000000E+0003	 5.70980868549410E-0001	
 1.06450000000000E+0003	 5.68569557338796E-0001	
 1.06650000000000E+0003	 5.68668746128183E-0001	
 1.06850000000000E+0003	 5.71849434917569E-0001	
 1.07050000000000E+0003	 5.77743623706955E-0001	
 1.07250000000000E+0003	 5.85295312496342E-0001	
 1.07450000000000E+0003	 5.93089001285728E-0001	
 1.07650000000000E+0003	 5.99746690075115E-0001	
 1.07850000000000E+0003	 6.04266878864501E-0001	
 1.08050000000000E+0003	 6.06115567653887E-0001	
 1.08250000000000E+0003	 6.04983756443274E-0001	
 1.08450000000000E+0003	 6.00592945232660E-0001	
 1.08650000000000E+0003	 5.92616634022047E-0001	
 1.08850000000000E+0003	 5.81171322811433E-0001	
 1.09050000000000E+0003	 5.67369011600819E-0001	
 1.09250000000000E+0003	 5.53319200390206E-0001	
 1.09450000000000E+0003	 5.41091389179592E-0001	
 1.09650000000000E+0003	 5.31568577968979E-0001	
 1.09850000000000E+0003	 5.24191766758365E-0001	
 1.10050000000000E+0003	 5.17800955547751E-0001	
 1.10250000000000E+0003	 5.11364644337138E-0001	
 1.10450000000000E+0003	 5.04430833126524E-0001	
 1.10650000000000E+0003	 4.97021021915911E-0001	
 1.10850000000000E+0003	 4.89581710705297E-0001	
 1.11050000000000E+0003	 4.82562899494683E-0001	
 1.11250000000000E+0003	 4.76213088284070E-0001	
 1.11450000000000E+0003	 4.70341777073456E-0001	
 1.11650000000000E+0003	 4.64621965862843E-0001	
 1.11850000000000E+0003	 4.58720654652229E-0001	
 1.12050000000000E+0003	 4.52425843441615E-0001	
 1.12250000000000E+0003	 4.45620532231002E-0001	
 1.12450000000000E+0003	 4.38400721020388E-0001	
 1.12650000000000E+0003	 4.30918909809775E-0001	
 1.12850000000000E+0003	 4.23369098599161E-0001	
 1.13050000000000E+0003	 4.15891287388547E-0001	
 1.13250000000000E+0003	 4.08741476177934E-0001	
 1.13450000000000E+0003	 4.02151664967320E-0001	
 1.13650000000000E+0003	 3.96339353756707E-0001	
 1.13850000000000E+0003	 3.91587042546093E-0001	
 1.14050000000000E+0003	 3.88124231335479E-0001	
 1.14250000000000E+0003	 3.85967920124866E-0001	
 1.14450000000000E+0003	 3.84865608914252E-0001	
 1.14650000000000E+0003	 3.84190797703639E-0001	
 1.14850000000000E+0003	 3.83083986493025E-0001	
 1.15050000000000E+0003	 3.80638675282411E-0001	
 1.15250000000000E+0003	 3.76313364071798E-0001	
 1.15450000000000E+0003	 3.70091552861184E-0001	
 1.15650000000000E+0003	 3.62557741650571E-0001	
 1.15850000000000E+0003	 3.54367930439957E-0001	
 1.16050000000000E+0003	 3.45864119229343E-0001	
 1.16250000000000E+0003	 3.36978308018730E-0001	
 1.16450000000000E+0003	 3.27599996808116E-0001	
 1.16650000000000E+0003	 3.17799185597503E-0001	
 1.16850000000000E+0003	 3.07961374386889E-0001	
 1.17050000000000E+0003	 2.98434063176275E-0001	
 1.17250000000000E+0003	 2.89419251965662E-0001	
 1.17450000000000E+0003	 2.80936940755048E-0001	
 1.17650000000000E+0003	 2.73188629544435E-0001	
 1.17850000000000E+0003	 2.66432318333821E-0001	
 1.18050000000000E+0003	 2.60922507123207E-0001	
 1.18250000000000E+0003	 2.56904195912594E-0001	
 1.18450000000000E+0003	 2.54545884701980E-0001	
 1.18650000000000E+0003	 2.53844573491367E-0001	
 1.18850000000000E+0003	 2.54840762280753E-0001	
 1.19050000000000E+0003	 2.57433951070139E-0001	
 1.19250000000000E+0003	 2.61436139859526E-0001	
 1.19450000000000E+0003	 2.66581328648912E-0001	
 1.19650000000000E+0003	 2.72573017438299E-0001	
 1.19850000000000E+0003	 2.78976706227685E-0001	
 1.20050000000000E+0003	 2.85461895017072E-0001	
 1.20250000000000E+0003	 2.91686583806458E-0001	
 1.20450000000000E+0003	 2.97484272595844E-0001	
 1.20650000000000E+0003	 3.02797461385231E-0001	
 1.20850000000000E+0003	 3.07759150174617E-0001	
 1.21050000000000E+0003	 3.12555338964004E-0001	
 1.21250000000000E+0003	 3.17516527753390E-0001	
 1.21450000000000E+0003	 3.22883216542776E-0001	
 1.21650000000000E+0003	 3.28640905332163E-0001	
 1.21850000000000E+0003	 3.34477594121549E-0001	
 1.22050000000000E+0003	 3.39814782910936E-0001	
 1.22250000000000E+0003	 3.43887471700322E-0001	
 1.22450000000000E+0003	 3.46580160489708E-0001	
 1.22650000000000E+0003	 3.48496849279095E-0001	
 1.22850000000000E+0003	 3.50162038068481E-0001	
 1.23050000000000E+0003	 3.51505726857868E-0001	
 1.23250000000000E+0003	 3.52390915647254E-0001	
 1.23450000000000E+0003	 3.52757104436640E-0001	
 1.23650000000000E+0003	 3.52617793226027E-0001	
 1.23850000000000E+0003	 3.51953982015413E-0001	
 1.24050000000000E+0003	 3.50808670804800E-0001	
 1.24250000000000E+0003	 3.49172859594186E-0001	
 1.24450000000000E+0003	 3.47074548383572E-0001	
 1.24650000000000E+0003	 3.44609237172959E-0001	
 1.24850000000000E+0003	 3.41831925962345E-0001	
 1.25050000000000E+0003	 3.38716114751732E-0001	
 1.25250000000000E+0003	 3.35324803541118E-0001	
 1.25450000000000E+0003	 3.31720992330504E-0001	
 1.25650000000000E+0003	 3.28004181119891E-0001	
 1.25850000000000E+0003	 3.24198369909277E-0001	
 1.26050000000000E+0003	 3.20384558698664E-0001	
 1.26250000000000E+0003	 3.16773247488050E-0001	
 1.26450000000000E+0003	 3.13410936277436E-0001	
 1.26650000000000E+0003	 3.10157125066823E-0001	
 1.26850000000000E+0003	 3.07097313856209E-0001	
 1.27050000000000E+0003	 3.04269502645596E-0001	
 1.27250000000000E+0003	 3.01802691434982E-0001	
 1.27450000000000E+0003	 2.99748880224368E-0001	
 1.27650000000000E+0003	 2.97970569013755E-0001	
 1.27850000000000E+0003	 2.96348757803141E-0001	
 1.28050000000000E+0003	 2.94879946592528E-0001	
 1.28250000000000E+0003	 2.93526635381914E-0001	
 1.28450000000000E+0003	 2.92231824171300E-0001	
 1.28650000000000E+0003	 2.90887512960687E-0001	
 1.28850000000000E+0003	 2.89671201750073E-0001	
 1.29050000000000E+0003	 2.89004890539460E-0001	
 1.29250000000000E+0003	 2.88871579328846E-0001	
 1.29450000000000E+0003	 2.88961768118232E-0001	
 1.29650000000000E+0003	 2.89265456907619E-0001	
 1.29850000000000E+0003	 2.90009645697005E-0001	
 1.30050000000000E+0003	 2.91239334486392E-0001	
 1.30250000000000E+0003	 2.92616023275778E-0001	
 1.30450000000000E+0003	 2.93974212065164E-0001	
 1.30650000000000E+0003	 2.95227900854551E-0001	
 1.30850000000000E+0003	 2.96401089643937E-0001	
 1.31050000000000E+0003	 2.97409278433324E-0001	
 1.31250000000000E+0003	 2.97867967222710E-0001	
 1.31450000000000E+0003	 2.97841156012096E-0001	
 1.31650000000000E+0003	 2.97602844801483E-0001	
 1.31850000000000E+0003	 2.96870033590869E-0001	
 1.32050000000000E+0003	 2.96081222380256E-0001	
 1.32250000000000E+0003	 2.95621911169642E-0001	
 1.32450000000000E+0003	 2.95362099959028E-0001	
 1.32650000000000E+0003	 2.95303788748415E-0001	
 1.32850000000000E+0003	 2.95647477537801E-0001	
 1.33050000000000E+0003	 2.96414666327188E-0001	
 1.33250000000000E+0003	 2.97608355116574E-0001	
 1.33450000000000E+0003	 2.98789543905960E-0001	
 1.33650000000000E+0003	 2.99131232695347E-0001	
 1.33850000000000E+0003	 3.00920421484733E-0001	
 1.34050000000000E+0003	 3.01614110274120E-0001	
 1.34250000000000E+0003	 3.01800299063506E-0001	
 1.34450000000000E+0003	 3.01263987852892E-0001	
 1.34650000000000E+0003	 3.01444176642279E-0001	
 1.34850000000000E+0003	 3.01565865431665E-0001	
 1.35050000000000E+0003	 3.02168554221052E-0001	
 1.35250000000000E+0003	 3.03361243010438E-0001	
 1.35450000000000E+0003	 3.04854431799824E-0001	
 1.35650000000000E+0003	 3.06596620589211E-0001	
 1.35850000000000E+0003	 3.08383309378597E-0001	
 1.36050000000000E+0003	 3.10825498167984E-0001	
 1.36250000000000E+0003	 3.13153186957370E-0001	
 1.36450000000000E+0003	 3.15983375746756E-0001	
 1.36650000000000E+0003	 3.19015564536143E-0001	
 1.36850000000000E+0003	 3.21534253325529E-0001	
 1.37050000000000E+0003	 3.22873942114916E-0001	
 1.37250000000000E+0003	 3.23949630904302E-0001	
 1.37450000000000E+0003	 3.24508319693688E-0001	
 1.37650000000000E+0003	 3.25787508483075E-0001	
 1.37850000000000E+0003	 3.27393697272461E-0001	
 1.38050000000000E+0003	 3.29485886061848E-0001	
 1.38250000000000E+0003	 3.30694574851234E-0001	
 1.38450000000000E+0003	 3.31957263640620E-0001	
 1.38650000000000E+0003	 3.32969452430007E-0001	
 1.38850000000000E+0003	 3.33998141219393E-0001	
 1.39050000000000E+0003	 3.35391330008780E-0001	
 1.39250000000000E+0003	 3.37172018798166E-0001	
 1.39450000000000E+0003	 3.38654207587552E-0001	
 1.39650000000000E+0003	 3.38301896376939E-0001	
 1.39850000000000E+0003	 3.40586585166325E-0001	
 1.40050000000000E+0003	 3.43577773955712E-0001	
 1.40250000000000E+0003	 3.45805462745098E-0001	
 1.40450000000000E+0003	 3.46434151534484E-0001	
 1.40650000000000E+0003	 3.45929340323871E-0001	
 1.40850000000000E+0003	 3.45629029113257E-0001	
 1.41050000000000E+0003	 3.44845217902644E-0001	
 1.41250000000000E+0003	 3.43534406692030E-0001	
 1.41450000000000E+0003	 3.42166595481416E-0001	
 1.41650000000000E+0003	 3.39465784270803E-0001	
 1.41850000000000E+0003	 3.34939973060189E-0001	
 1.42050000000000E+0003	 3.31331161849576E-0001	
 1.42250000000000E+0003	 3.29894350638962E-0001	
 1.42450000000000E+0003	 3.28103539428348E-0001	
 1.42650000000000E+0003	 3.25259728217735E-0001	
 1.42850000000000E+0003	 3.22593417007121E-0001	
 1.43050000000000E+0003	 3.20176105796508E-0001	
 1.43250000000000E+0003	 3.18768794585894E-0001	
 1.43450000000000E+0003	 3.18127983375280E-0001	
 1.43650000000000E+0003	 3.17413672164667E-0001	
 1.43850000000000E+0003	 3.18328360954053E-0001	
 1.44050000000000E+0003	 3.21667549743440E-0001	
 1.44250000000000E+0003	 3.24887738532826E-0001	
 1.44450000000000E+0003	 3.26457927322212E-0001	
 1.44650000000000E+0003	 3.27271616111599E-0001	
 1.44850000000000E+0003	 3.27818304900985E-0001	
 1.45050000000000E+0003	 3.28663993690372E-0001	
 1.45250000000000E+0003	 3.29443682479758E-0001	
 1.45450000000000E+0003	 3.28081371269144E-0001	
 1.45650000000000E+0003	 3.22730560058531E-0001	
 1.45850000000000E+0003	 3.16581248847917E-0001	
 1.46050000000000E+0003	 3.14289437637304E-0001	
 1.46250000000000E+0003	 3.12785626426690E-0001	
 1.46450000000000E+0003	 3.08460315216076E-0001	
 1.46650000000000E+0003	 3.02928004005463E-0001	
 1.46850000000000E+0003	 2.97773692794849E-0001	
 1.47050000000000E+0003	 2.91518381584236E-0001	
 1.47250000000000E+0003	 2.81868070373622E-0001	
 1.47450000000000E+0003	 2.72111759163008E-0001	
 1.47650000000000E+0003	 2.66448447952395E-0001	
 1.47850000000000E+0003	 2.63951136741781E-0001	
 1.48050000000000E+0003	 2.62221325531168E-0001	
 1.48250000000000E+0003	 2.60908514320554E-0001	
 1.48450000000000E+0003	 2.60256703109940E-0001	
 1.48650000000000E+0003	 2.60297391899327E-0001	
 1.48850000000000E+0003	 2.60241080688713E-0001	
 1.49050000000000E+0003	 2.61524769478100E-0001	
 1.49250000000000E+0003	 2.66307958267486E-0001	
 1.49450000000000E+0003	 2.72113147056873E-0001	
 1.49650000000000E+0003	 2.77137335846259E-0001	
 1.49850000000000E+0003	 2.82299024635645E-0001	
 1.50050000000000E+0003	 2.88672713425032E-0001	
 1.50250000000000E+0003	 2.95599402214418E-0001	
 1.50450000000000E+0003	 3.01666591003805E-0001	
 1.50650000000000E+0003	 3.08372779793191E-0001	
 1.50850000000000E+0003	 3.15124968582577E-0001	
 1.51050000000000E+0003	 3.25767657371964E-0001	
 1.51250000000000E+0003	 3.40706346161350E-0001	
 1.51450000000000E+0003	 3.53472534950737E-0001	
 1.51650000000000E+0003	 3.63475223740123E-0001	
 1.51850000000000E+0003	 3.71402912529509E-0001	
 1.52050000000000E+0003	 3.77222601318896E-0001	
 1.52250000000000E+0003	 3.85324790108282E-0001	
 1.52450000000000E+0003	 3.94621978897669E-0001	
 1.52650000000000E+0003	 4.04996167687055E-0001	
 1.52850000000000E+0003	 4.15553356476441E-0001	
 1.53050000000000E+0003	 4.25694045265828E-0001	
 1.53250000000000E+0003	 4.34745734055214E-0001	
 1.53450000000000E+0003	 4.44368922844601E-0001	
 1.53650000000000E+0003	 4.51956111633987E-0001	
 1.53850000000000E+0003	 4.58706800423373E-0001	
 1.54050000000000E+0003	 4.66164989212760E-0001	
 1.54250000000000E+0003	 4.71074178002146E-0001	
 1.54450000000000E+0003	 4.75411366791533E-0001	
 1.54650000000000E+0003	 4.79829555580919E-0001	
 1.54850000000000E+0003	 4.81518244370305E-0001	
 1.55050000000000E+0003	 4.78653433159692E-0001	
 1.55250000000000E+0003	 4.72549621949078E-0001	
 1.55450000000000E+0003	 4.64316810738465E-0001	
 1.55650000000000E+0003	 4.54294499527851E-0001	
 1.55850000000000E+0003	 4.42307188317237E-0001	
 1.56050000000000E+0003	 4.28943377106624E-0001	
 1.56250000000000E+0003	 4.20207065896010E-0001	
 1.56450000000000E+0003	 4.16597754685397E-0001	
 1.56650000000000E+0003	 4.10511943474783E-0001	
 1.56850000000000E+0003	 4.02852132264169E-0001	
 1.57050000000000E+0003	 3.95512821053556E-0001	
 1.57250000000000E+0003	 3.88613009842942E-0001	
 1.57450000000000E+0003	 3.82275198632329E-0001	
 1.57650000000000E+0003	 3.74961887421715E-0001	
 1.57850000000000E+0003	 3.67704576211101E-0001	
 1.58050000000000E+0003	 3.63567765000488E-0001	
 1.58250000000000E+0003	 3.60193453789874E-0001	
 1.58450000000000E+0003	 3.56482642579261E-0001	
 1.58650000000000E+0003	 3.53684331368647E-0001	
 1.58850000000000E+0003	 3.52284520158033E-0001	
 1.59050000000000E+0003	 3.52106708947420E-0001	
 1.59250000000000E+0003	 3.53361397736806E-0001	
 1.59450000000000E+0003	 3.55674086526193E-0001	
 1.59650000000000E+0003	 3.59028275315579E-0001	
 1.59850000000000E+0003	 3.63087464104965E-0001	
 1.60050000000000E+0003	 3.68143652894352E-0001	
 1.60250000000000E+0003	 3.73909841683738E-0001	
 1.60450000000000E+0003	 3.80761030473125E-0001	
 1.60650000000000E+0003	 3.88546219262511E-0001	
 1.60850000000000E+0003	 3.97824408051897E-0001	
 1.61050000000000E+0003	 4.08606596841284E-0001	
 1.61250000000000E+0003	 4.20848785630670E-0001	
 1.61450000000000E+0003	 4.33117974420057E-0001	
 1.61650000000000E+0003	 4.47955663209443E-0001	
 1.61850000000000E+0003	 4.64840851998829E-0001	
 1.62050000000000E+0003	 4.81025040788216E-0001	
 1.62250000000000E+0003	 5.00503729577602E-0001	
 1.62450000000000E+0003	 5.22145918366989E-0001	
 1.62650000000000E+0003	 5.42291107156375E-0001	
 1.62850000000000E+0003	 5.64184795945761E-0001	
 1.63050000000000E+0003	 5.85703984735148E-0001	
 1.63250000000000E+0003	 6.04315673524534E-0001	
 1.63450000000000E+0003	 6.21869362313921E-0001	
 1.63650000000000E+0003	 6.39729051103307E-0001	
 1.63850000000000E+0003	 6.52304739892693E-0001	
 1.64050000000000E+0003	 6.63158428682080E-0001	
 1.64250000000000E+0003	 6.72753117471466E-0001	
 1.64450000000000E+0003	 6.79424806260853E-0001	
 1.64650000000000E+0003	 6.86441495050239E-0001	
 1.64850000000000E+0003	 6.94171683839625E-0001	
 1.65050000000000E+0003	 6.99857872629012E-0001	
 1.65250000000000E+0003	 7.04822561418398E-0001	
 1.65450000000000E+0003	 7.09660750207785E-0001	
 1.65650000000000E+0003	 7.09599438997171E-0001	
 1.65850000000000E+0003	 7.10726627786557E-0001	
 1.66050000000000E+0003	 7.06321816575944E-0001	
 1.66250000000000E+0003	 6.96932505365330E-0001	
 1.66450000000000E+0003	 6.85106194154717E-0001	
 1.66650000000000E+0003	 6.72997882944103E-0001	
 1.66850000000000E+0003	 6.60367071733489E-0001	
 1.67050000000000E+0003	 6.46620760522876E-0001	
 1.67250000000000E+0003	 6.33580449312262E-0001	
 1.67450000000000E+0003	 6.21609638101649E-0001	
 1.67650000000000E+0003	 6.09094826891035E-0001	
 1.67850000000000E+0003	 5.96963515680421E-0001	
 1.68050000000000E+0003	 5.85654704469808E-0001	
 1.68250000000000E+0003	 5.73343393259194E-0001	
 1.68450000000000E+0003	 5.58481082048581E-0001	
 1.68650000000000E+0003	 5.43651270837967E-0001	
 1.68850000000000E+0003	 5.32230459627353E-0001	
 1.69050000000000E+0003	 5.21528148416740E-0001	
 1.69250000000000E+0003	 5.09101337206126E-0001	
 1.69450000000000E+0003	 4.94897025995513E-0001	
 1.69650000000000E+0003	 4.78199714784899E-0001	
 1.69850000000000E+0003	 4.63357403574285E-0001	
 1.70050000000000E+0003	 4.51606092363672E-0001	
 1.70250000000000E+0003	 4.41124781153058E-0001	
 1.70450000000000E+0003	 4.33259469942445E-0001	
 1.70650000000000E+0003	 4.27774658731831E-0001	
 1.70850000000000E+0003	 4.20714847521217E-0001	
 1.71050000000000E+0003	 4.13666036310604E-0001	
 1.71250000000000E+0003	 4.05746225099990E-0001	
 1.71450000000000E+0003	 3.95620413889377E-0001	
 1.71650000000000E+0003	 3.82049602678763E-0001	
 1.71850000000000E+0003	 3.66655291468149E-0001	
 1.72050000000000E+0003	 3.53892980257536E-0001	
 1.72250000000000E+0003	 3.43141669046922E-0001	
 1.72450000000000E+0003	 3.31925357836309E-0001	
 1.72650000000000E+0003	 3.21104046625695E-0001	
 1.72850000000000E+0003	 3.11395235415081E-0001	
 1.73050000000000E+0003	 3.02419924204468E-0001	
 1.73250000000000E+0003	 2.93595112993854E-0001	
 1.73450000000000E+0003	 2.85789801783241E-0001	
 1.73650000000000E+0003	 2.80861490572627E-0001	
 1.73850000000000E+0003	 2.78727679362013E-0001	
 1.74050000000000E+0003	 2.77228868151400E-0001	
 1.74250000000000E+0003	 2.73164056940786E-0001	
 1.74450000000000E+0003	 2.68708245730173E-0001	
 1.74650000000000E+0003	 2.64799934519559E-0001	
 1.74850000000000E+0003	 2.60272623308945E-0001	
 1.75050000000000E+0003	 2.54107312098332E-0001	
 1.75250000000000E+0003	 2.48050500887718E-0001	
 1.75450000000000E+0003	 2.44134689677105E-0001	
 1.75650000000000E+0003	 2.40340378466491E-0001	
 1.75850000000000E+0003	 2.35335067255877E-0001	
 1.76050000000000E+0003	 2.30289756045264E-0001	
 1.76250000000000E+0003	 2.26135944834650E-0001	
 1.76450000000000E+0003	 2.22331633624037E-0001	
 1.76650000000000E+0003	 2.18999822413423E-0001	
 1.76850000000000E+0003	 2.15156011202809E-0001	
 1.77050000000000E+0003	 2.11327699992196E-0001	
 1.77250000000000E+0003	 2.09027888781582E-0001	
 1.77450000000000E+0003	 2.06462077570969E-0001	
 1.77650000000000E+0003	 2.04185266360355E-0001	
 1.77850000000000E+0003	 2.03209455149741E-0001	
 1.78050000000000E+0003	 2.01434143939128E-0001	
 1.78250000000000E+0003	 1.99430332728514E-0001	
 1.78450000000000E+0003	 1.97262021517901E-0001	
 1.78650000000000E+0003	 1.95558210307287E-0001	
 1.78850000000000E+0003	 1.94271399096673E-0001	
 1.79050000000000E+0003	 1.92365087886060E-0001	
 1.79250000000000E+0003	 1.89911776675446E-0001	
 1.79450000000000E+0003	 1.88123465464833E-0001	
 1.79650000000000E+0003	 1.86890654254219E-0001	
 1.79850000000000E+0003	 1.87690843043606E-0001	
 1.80050000000000E+0003	 1.86543031832992E-0001	
 1.80250000000000E+0003	 1.85239220622378E-0001	
 1.80450000000000E+0003	 1.84079909411765E-0001	
 1.80650000000000E+0003	 1.82958098201151E-0001	
 1.80850000000000E+0003	 1.81794786990538E-0001	
 1.81050000000000E+0003	 1.80641475779924E-0001	
 1.81250000000000E+0003	 1.79550664569310E-0001	
 1.81450000000000E+0003	 1.78449853358697E-0001	
 1.81650000000000E+0003	 1.77013042148083E-0001	
 1.81850000000000E+0003	 1.76056230937470E-0001	
 1.82050000000000E+0003	 1.75220419726856E-0001	
 1.82250000000000E+0003	 1.74343108516242E-0001	
 1.82450000000000E+0003	 1.72848297305629E-0001	
 1.82650000000000E+0003	 1.71796486095015E-0001	
 1.82850000000000E+0003	 1.72222674884402E-0001	
 1.83050000000000E+0003	 1.71292863673788E-0001	
 1.83250000000000E+0003	 1.70586552463174E-0001	
 1.83450000000000E+0003	 1.69957241252561E-0001	
 1.83650000000000E+0003	 1.69236430041947E-0001	
 1.83850000000000E+0003	 1.68547618831334E-0001	
 1.84050000000000E+0003	 1.67924307620720E-0001	
 1.84250000000000E+0003	 1.67243996410106E-0001	
 1.84450000000000E+0003	 1.66397685199493E-0001	
 1.84650000000000E+0003	 1.65819873988879E-0001	
 1.84850000000000E+0003	 1.65375562778266E-0001	
 1.85050000000000E+0003	 1.64873751567652E-0001	
 1.85250000000000E+0003	 1.64353440357038E-0001	
 1.85450000000000E+0003	 1.63841129146425E-0001	
 1.85650000000000E+0003	 1.63338817935811E-0001	
 1.85850000000000E+0003	 1.62679506725198E-0001	
 1.86050000000000E+0003	 1.62011195514584E-0001	
 1.86250000000000E+0003	 1.61507384303970E-0001	
 1.86450000000000E+0003	 1.61104573093357E-0001	
 1.86650000000000E+0003	 1.60372261882743E-0001	
 1.86850000000000E+0003	 1.59495450672130E-0001	
 1.87050000000000E+0003	 1.60102139461516E-0001	
 1.87250000000000E+0003	 1.59819828250902E-0001	
 1.87450000000000E+0003	 1.59512517040289E-0001	
 1.87650000000000E+0003	 1.59157705829675E-0001	
 1.87850000000000E+0003	 1.58812394619062E-0001	
 1.88050000000000E+0003	 1.58481083408448E-0001	
 1.88250000000000E+0003	 1.58064772197834E-0001	
 1.88450000000000E+0003	 1.57741960987221E-0001	
 1.88650000000000E+0003	 1.57342149776607E-0001	
 1.88850000000000E+0003	 1.56710338565994E-0001	
 1.89050000000000E+0003	 1.56147027355380E-0001	
 1.89250000000000E+0003	 1.55767716144766E-0001	
 1.89450000000000E+0003	 1.55713904934153E-0001	
 1.89650000000000E+0003	 1.55632593723539E-0001	
 1.89850000000000E+0003	 1.55454282512926E-0001	
 1.90050000000000E+0003	 1.55439471302312E-0001	
 1.90250000000000E+0003	 1.55288660091698E-0001	
 1.90450000000000E+0003	 1.55057848881085E-0001	
 1.90650000000000E+0003	 1.54780037670471E-0001	
 1.90850000000000E+0003	 1.54318726459858E-0001	
 1.91050000000000E+0003	 1.53927915249244E-0001	
 1.91250000000000E+0003	 1.53835604038630E-0001	
 1.91450000000000E+0003	 1.53912792828017E-0001	
 1.91650000000000E+0003	 1.53568981617403E-0001	
 1.91850000000000E+0003	 1.53201670406790E-0001	
 1.92050000000000E+0003	 1.53648859196176E-0001	
 1.92250000000000E+0003	 1.53499047985562E-0001	
 1.92450000000000E+0003	 1.53356736774949E-0001	
 1.92650000000000E+0003	 1.53273925564335E-0001	
 1.92850000000000E+0003	 1.53162614353722E-0001	
 1.93050000000000E+0003	 1.53040303143108E-0001	
 1.93250000000000E+0003	 1.52870491932494E-0001	
 1.93450000000000E+0003	 1.52707180721881E-0001	
 1.93650000000000E+0003	 1.52675869511267E-0001	
 1.93850000000000E+0003	 1.52595058300654E-0001	
 1.94050000000000E+0003	 1.52487247090040E-0001	
 1.94250000000000E+0003	 1.52331935879426E-0001	
 1.94450000000000E+0003	 1.52244624668813E-0001	
 1.94650000000000E+0003	 1.52216813458199E-0001	
 1.94850000000000E+0003	 1.52170502247586E-0001	
 1.95050000000000E+0003	 1.52120691036972E-0001	
 1.95250000000000E+0003	 1.52063379826358E-0001	
 1.95450000000000E+0003	 1.51991068615745E-0001	
 1.95650000000000E+0003	 1.51831757405131E-0001	
 1.95850000000000E+0003	 1.51805946194518E-0001	
 1.96050000000000E+0003	 1.51810634983904E-0001	
 1.96250000000000E+0003	 1.51793823773290E-0001	
 1.96450000000000E+0003	 1.51700012562677E-0001	
 1.96650000000000E+0003	 1.51485701352063E-0001	
 1.96850000000000E+0003	 1.51736390141450E-0001	
 1.97050000000000E+0003	 1.51724578930836E-0001	
 1.97250000000000E+0003	 1.51694767720222E-0001	
 1.97450000000000E+0003	 1.51665956509609E-0001	
 1.97650000000000E+0003	 1.51646145298995E-0001	
 1.97850000000000E+0003	 1.51616834088382E-0001	
 1.98050000000000E+0003	 1.51590522877768E-0001	
 1.98250000000000E+0003	 1.51571211667154E-0001	
 1.98450000000000E+0003	 1.51551400456541E-0001	
 1.98650000000000E+0003	 1.51476589245927E-0001	
 1.98850000000000E+0003	 1.51292778035314E-0001	
 1.99050000000000E+0003	 1.50980466824700E-0001	
 1.99250000000000E+0003	 1.50698655614086E-0001	
 1.99450000000000E+0003	 1.50716344403473E-0001	
 1.99650000000000E+0003	 1.51133033192859E-0001	
 1.99850000000000E+0003	 1.51509221982246E-0001	
 2.00050000000000E+0003	 1.51585910771632E-0001	
 2.00250000000000E+0003	 1.51631599561018E-0001	
 2.00450000000000E+0003	 1.51688288350405E-0001	
 2.00650000000000E+0003	 1.51732477139791E-0001	
 2.00850000000000E+0003	 1.51762665929178E-0001	
 2.01050000000000E+0003	 1.51835354718564E-0001	
 2.01250000000000E+0003	 1.51949543507950E-0001	
 2.01450000000000E+0003	 1.52008232297337E-0001	
 2.01650000000000E+0003	 1.51878421086723E-0001	
 2.01850000000000E+0003	 1.51723109876110E-0001	
 2.02050000000000E+0003	 1.51890798665496E-0001	
 2.02250000000000E+0003	 1.52280987454882E-0001	
 2.02450000000000E+0003	 1.52526676244269E-0001	
 2.02650000000000E+0003	 1.52682365033655E-0001	
 2.02850000000000E+0003	 1.52835553823042E-0001	
 2.03050000000000E+0003	 1.52970242612428E-0001	
 2.03250000000000E+0003	 1.53094931401814E-0001	
 2.03450000000000E+0003	 1.53206620191201E-0001	
 2.03650000000000E+0003	 1.53314308980587E-0001	
 2.03850000000000E+0003	 1.53410497769974E-0001	
 2.04050000000000E+0003	 1.53426686559360E-0001	
 2.04250000000000E+0003	 1.53407875348746E-0001	
 2.04450000000000E+0003	 1.53535564138133E-0001	
 2.04650000000000E+0003	 1.53756752927519E-0001	
 2.04850000000000E+0003	 1.53907941716906E-0001	
 2.05050000000000E+0003	 1.54012630506292E-0001	
 2.05250000000000E+0003	 1.54098819295678E-0001	
 2.05450000000000E+0003	 1.54174508085065E-0001	
 2.05650000000000E+0003	 1.54244696874451E-0001	
 2.05850000000000E+0003	 1.54303385663838E-0001	
 2.06050000000000E+0003	 1.54348574453224E-0001	
 2.06250000000000E+0003	 1.54370263242610E-0001	
 2.06450000000000E+0003	 1.54297952031997E-0001	
 2.06650000000000E+0003	 1.54224640821383E-0001	
 2.06850000000000E+0003	 1.54362829610770E-0001	
 2.07050000000000E+0003	 1.54606518400156E-0001	
 2.07250000000000E+0003	 1.54731707189542E-0001	
 2.07450000000000E+0003	 1.54782395978929E-0001	
 2.07650000000000E+0003	 1.54832584768315E-0001	
 2.07850000000000E+0003	 1.54886773557702E-0001	
 2.08050000000000E+0003	 1.54942962347088E-0001	
 2.08250000000000E+0003	 1.55001651136474E-0001	
 2.08450000000000E+0003	 1.55063839925861E-0001	
 2.08650000000000E+0003	 1.55109028715247E-0001	
 2.08850000000000E+0003	 1.55111217504634E-0001	
 2.09050000000000E+0003	 1.55082406294020E-0001	
 2.09250000000000E+0003	 1.55127595083406E-0001	
 2.09450000000000E+0003	 1.55252283872793E-0001	
 2.09650000000000E+0003	 1.55345472662179E-0001	
 2.09850000000000E+0003	 1.55383161451566E-0001	
 2.10050000000000E+0003	 1.55413850240952E-0001	
 2.10250000000000E+0003	 1.55441539030339E-0001	
 2.10450000000000E+0003	 1.55470727819725E-0001	
 2.10650000000000E+0003	 1.55495416609111E-0001	
 2.10850000000000E+0003	 1.55515105398498E-0001	
 2.11050000000000E+0003	 1.55527294187884E-0001	
 2.11250000000000E+0003	 1.55526982977271E-0001	
 2.11450000000000E+0003	 1.55497671766657E-0001	
 2.11650000000000E+0003	 1.55468860556043E-0001	
 2.11850000000000E+0003	 1.55492049345430E-0001	
 2.12050000000000E+0003	 1.55524238134816E-0001	
 2.12250000000000E+0003	 1.55522426924203E-0001	
 2.12450000000000E+0003	 1.55511615713589E-0001	
 2.12650000000000E+0003	 1.55511804502975E-0001	
 2.12850000000000E+0003	 1.55509493292362E-0001	
 2.13050000000000E+0003	 1.55503182081748E-0001	
 2.13250000000000E+0003	 1.55492870871135E-0001	
 2.13450000000000E+0003	 1.55470059660521E-0001	
 2.13650000000000E+0003	 1.55425248449907E-0001	
 2.13850000000000E+0003	 1.55390937239294E-0001	
 2.14050000000000E+0003	 1.55390126028680E-0001	
 2.14250000000000E+0003	 1.55395314818067E-0001	
 2.14450000000000E+0003	 1.55387003607453E-0001	
 2.14650000000000E+0003	 1.55356192396839E-0001	
 2.14850000000000E+0003	 1.55319381186226E-0001	
 2.15050000000000E+0003	 1.55277569975612E-0001	
 2.15250000000000E+0003	 1.55230258764999E-0001	
 2.15450000000000E+0003	 1.55172447554385E-0001	
 2.15650000000000E+0003	 1.55110136343771E-0001	
 2.15850000000000E+0003	 1.55044825133158E-0001	
 2.16050000000000E+0003	 1.54963513922544E-0001	
 2.16250000000000E+0003	 1.54861202711931E-0001	
 2.16450000000000E+0003	 1.54771391501317E-0001	
 2.16650000000000E+0003	 1.54698580290703E-0001	
 2.16850000000000E+0003	 1.54625269080090E-0001	
 2.17050000000000E+0003	 1.54534457869476E-0001	
 2.17250000000000E+0003	 1.54422146658863E-0001	
 2.17450000000000E+0003	 1.54309335448249E-0001	
 2.17650000000000E+0003	 1.54207024237635E-0001	
 2.17850000000000E+0003	 1.54107213027022E-0001	
 2.18050000000000E+0003	 1.54009401816408E-0001	
 2.18250000000000E+0003	 1.53909090605795E-0001	
 2.18450000000000E+0003	 1.53809279395181E-0001	
 2.18650000000000E+0003	 1.53706468184567E-0001	
 2.18850000000000E+0003	 1.53612656973954E-0001	
 2.19050000000000E+0003	 1.53521845763340E-0001	
 2.19250000000000E+0003	 1.53435034552727E-0001	
 2.19450000000000E+0003	 1.53343223342113E-0001	
 2.19650000000000E+0003	 1.53246912131499E-0001	
 2.19850000000000E+0003	 1.53145100920886E-0001	
 2.20050000000000E+0003	 1.53051289710272E-0001	
 2.20250000000000E+0003	 1.52960478499659E-0001	
 2.20450000000000E+0003	 1.52865167289045E-0001	
 2.20650000000000E+0003	 1.52764856078431E-0001	
 2.20850000000000E+0003	 1.52672044867818E-0001	
 2.21050000000000E+0003	 1.52582233657204E-0001	
 2.21250000000000E+0003	 1.52490922446591E-0001	
 2.21450000000000E+0003	 1.52399111235977E-0001	
 2.21650000000000E+0003	 1.52310300025363E-0001	
 2.21850000000000E+0003	 1.52220988814750E-0001	
 2.22050000000000E+0003	 1.52135177604136E-0001	
 2.22250000000000E+0003	 1.52053866393523E-0001	
 2.22450000000000E+0003	 1.51978555182909E-0001	
 2.22650000000000E+0003	 1.51900243972295E-0001	
 2.22850000000000E+0003	 1.51827932761682E-0001	
 2.23050000000000E+0003	 1.51757121551068E-0001	
 2.23250000000000E+0003	 1.51694310340455E-0001	
 2.23450000000000E+0003	 1.51632499129841E-0001	
 2.23650000000000E+0003	 1.51577687919227E-0001	
 2.23850000000000E+0003	 1.51522876708614E-0001	
 2.24050000000000E+0003	 1.51473565498000E-0001	
 2.24250000000000E+0003	 1.51422254287387E-0001	
 2.24450000000000E+0003	 1.51373943076773E-0001	
 2.24650000000000E+0003	 1.51324131866159E-0001	
 2.24850000000000E+0003	 1.51278820655546E-0001	
 2.25050000000000E+0003	 1.51235509444932E-0001	
 2.25250000000000E+0003	 1.51192698234319E-0001	
 2.25450000000000E+0003	 1.51149387023705E-0001	
 2.25650000000000E+0003	 1.51108575813091E-0001	
 2.25850000000000E+0003	 1.51065764602478E-0001	
 2.26050000000000E+0003	 1.51024953391864E-0001	
 2.26250000000000E+0003	 1.50988142181251E-0001	
 2.26450000000000E+0003	 1.50956330970637E-0001	
 2.26650000000000E+0003	 1.50924519760023E-0001	
 2.26850000000000E+0003	 1.50894208549410E-0001	
 2.27050000000000E+0003	 1.50867397338796E-0001	
 2.27250000000000E+0003	 1.50852086128183E-0001	
 2.27450000000000E+0003	 1.50839774917569E-0001	
 2.27650000000000E+0003	 1.50832963706955E-0001	
 2.27850000000000E+0003	 1.50828152496342E-0001	
 2.28050000000000E+0003	 1.50833341285728E-0001	
 2.28250000000000E+0003	 1.50840030075115E-0001	
 2.28450000000000E+0003	 1.50858718864501E-0001	
 2.28650000000000E+0003	 1.50893407653887E-0001	
 2.28850000000000E+0003	 1.50951096443274E-0001	
 2.29050000000000E+0003	 1.51017285232660E-0001	
 2.29250000000000E+0003	 1.51096974022047E-0001	
 2.29450000000000E+0003	 1.51188662811433E-0001	
 2.29650000000000E+0003	 1.51280851600819E-0001	
 2.29850000000000E+0003	 1.51357040390206E-0001	
 2.30050000000000E+0003	 1.51415229179592E-0001	
 2.30250000000000E+0003	 1.51438917968979E-0001	
 2.30450000000000E+0003	 1.51470606758365E-0001	
 2.30650000000000E+0003	 1.51544795547751E-0001	
 2.30850000000000E+0003	 1.51617984337138E-0001	
 2.31050000000000E+0003	 1.51640673126524E-0001	
 2.31250000000000E+0003	 1.51611861915911E-0001	
 2.31450000000000E+0003	 1.51598550705297E-0001	
 2.31650000000000E+0003	 1.51663739494683E-0001	
 2.31850000000000E+0003	 1.51758928284070E-0001	
 2.32050000000000E+0003	 1.51891617073456E-0001	
 2.32250000000000E+0003	 1.52025305862843E-0001	
 2.32450000000000E+0003	 1.52082994652229E-0001	
 2.32650000000000E+0003	 1.52057683441615E-0001	
 2.32850000000000E+0003	 1.52003372231002E-0001	
 2.33050000000000E+0003	 1.51963061020388E-0001	
 2.33250000000000E+0003	 1.51944249809775E-0001	
 2.33450000000000E+0003	 1.51936438599161E-0001	
 2.33650000000000E+0003	 1.52001127388547E-0001	
 2.33850000000000E+0003	 1.52106816177934E-0001	
 2.34050000000000E+0003	 1.52256004967320E-0001	
 2.34250000000000E+0003	 1.52389693756707E-0001	
 2.34450000000000E+0003	 1.52353882546093E-0001	
 2.34650000000000E+0003	 1.52336571335479E-0001	
 2.34850000000000E+0003	 1.52486260124866E-0001	
 2.35050000000000E+0003	 1.52488448914252E-0001	
 2.35250000000000E+0003	 1.52416637703639E-0001	
 2.35450000000000E+0003	 1.52550826493025E-0001	
 2.35650000000000E+0003	 1.52782015282411E-0001	
 2.35850000000000E+0003	 1.52913204071798E-0001	
 2.36050000000000E+0003	 1.52955392861184E-0001	
 2.36250000000000E+0003	 1.53018581650571E-0001	
 2.36450000000000E+0003	 1.53158770439957E-0001	
 2.36650000000000E+0003	 1.53305959229343E-0001	
 2.36850000000000E+0003	 1.53442148018730E-0001	
 2.37050000000000E+0003	 1.53504336808116E-0001	
 2.37250000000000E+0003	 1.53453025597503E-0001	
 2.37450000000000E+0003	 1.53373214386889E-0001	
 2.37650000000000E+0003	 1.53509403176275E-0001	
 2.37850000000000E+0003	 1.53909591965662E-0001	
 2.38050000000000E+0003	 1.54349780755048E-0001	
 2.38250000000000E+0003	 1.54591469544435E-0001	
 2.38450000000000E+0003	 1.54640158333821E-0001	
 2.38650000000000E+0003	 1.54634847123207E-0001	
 2.38850000000000E+0003	 1.54678535912594E-0001	
 2.39050000000000E+0003	 1.54786724701980E-0001	
 2.39250000000000E+0003	 1.54940413491367E-0001	
 2.39450000000000E+0003	 1.55116602280753E-0001	
 2.39650000000000E+0003	 1.55306291070139E-0001	
 2.39850000000000E+0003	 1.55506979859526E-0001	
 2.40050000000000E+0003	 1.55716168648912E-0001	
 2.40250000000000E+0003	 1.55930357438299E-0001	
 2.40450000000000E+0003	 1.56153046227685E-0001	
 2.40650000000000E+0003	 1.56386235017072E-0001	
 2.40850000000000E+0003	 1.56627923806458E-0001	
 2.41050000000000E+0003	 1.56874112595844E-0001	
 2.41250000000000E+0003	 1.57129301385231E-0001	
 2.41450000000000E+0003	 1.57391990174617E-0001	
 2.41650000000000E+0003	 1.57662678964004E-0001	
 2.41850000000000E+0003	 1.57937367753390E-0001	
 2.42050000000000E+0003	 1.58223556542776E-0001	
 2.42250000000000E+0003	 1.58516745332163E-0001	
 2.42450000000000E+0003	 1.58820934121549E-0001	
 2.42650000000000E+0003	 1.59129122910936E-0001	
 2.42850000000000E+0003	 1.59444811700322E-0001	
 2.43050000000000E+0003	 1.59761500489708E-0001	
 2.43250000000000E+0003	 1.60086189279095E-0001	
 2.43450000000000E+0003	 1.60413378068481E-0001	
 2.43650000000000E+0003	 1.60747566857868E-0001	
 2.43850000000000E+0003	 1.61082755647254E-0001	
 2.44050000000000E+0003	 1.61417944436640E-0001	
 2.44250000000000E+0003	 1.61749633226027E-0001	
 2.44450000000000E+0003	 1.62084822015413E-0001	
 2.44650000000000E+0003	 1.62419510804800E-0001	
 2.44850000000000E+0003	 1.62755199594186E-0001	
 2.45050000000000E+0003	 1.63093888383572E-0001	
 2.45250000000000E+0003	 1.63439077172959E-0001	
 2.45450000000000E+0003	 1.63787765962345E-0001	
 2.45650000000000E+0003	 1.64144454751732E-0001	
 2.45850000000000E+0003	 1.64503143541118E-0001	
 2.46050000000000E+0003	 1.64868332330504E-0001	
 2.46250000000000E+0003	 1.65239021119891E-0001	
 2.46450000000000E+0003	 1.65615709909277E-0001	
 2.46650000000000E+0003	 1.65993898698664E-0001	
 2.46850000000000E+0003	 1.66377587488050E-0001	
 2.47050000000000E+0003	 1.66760276277436E-0001	
 2.47250000000000E+0003	 1.67149465066823E-0001	
 2.47450000000000E+0003	 1.67538653856209E-0001	
 2.47650000000000E+0003	 1.67927842645596E-0001	
 2.47850000000000E+0003	 1.68312531434982E-0001	
 2.48050000000000E+0003	 1.68696720224368E-0001	
 2.48250000000000E+0003	 1.69076409013755E-0001	
 2.48450000000000E+0003	 1.69453097803141E-0001	
 2.48650000000000E+0003	 1.69824286592528E-0001	
 2.48850000000000E+0003	 1.70195475381914E-0001	
 2.49050000000000E+0003	 1.70561664171300E-0001	
 2.49250000000000E+0003	 1.70922352960687E-0001	
 2.49450000000000E+0003	 1.71278041750073E-0001	
 2.49650000000000E+0003	 1.71634230539460E-0001	
 2.49850000000000E+0003	 1.71985919328846E-0001	
 2.50050000000000E+0003	 1.72343108118232E-0001	
 2.50250000000000E+0003	 1.72699296907619E-0001	
 2.50450000000000E+0003	 1.73051985697005E-0001	
 2.50650000000000E+0003	 1.73401674486392E-0001	
 2.50850000000000E+0003	 1.73752863275778E-0001	
 2.51050000000000E+0003	 1.74101552065164E-0001	
 2.51250000000000E+0003	 1.74449240854551E-0001	
 2.51450000000000E+0003	 1.74789929643937E-0001	
 2.51650000000000E+0003	 1.75128618433324E-0001	
 2.51850000000000E+0003	 1.75461807222710E-0001	
 2.52050000000000E+0003	 1.75798996012096E-0001	
 2.52250000000000E+0003	 1.76138184801483E-0001	
 2.52450000000000E+0003	 1.76481373590869E-0001	
 2.52650000000000E+0003	 1.76823562380256E-0001	
 2.52850000000000E+0003	 1.77167751169642E-0001	
 2.53050000000000E+0003	 1.77512439959028E-0001	
 2.53250000000000E+0003	 1.77862128748415E-0001	
 2.53450000000000E+0003	 1.78209817537801E-0001	
 2.53650000000000E+0003	 1.78562006327188E-0001	
 2.53850000000000E+0003	 1.78914195116574E-0001	
 2.54050000000000E+0003	 1.79268383905960E-0001	
 2.54250000000000E+0003	 1.79620572695347E-0001	
 2.54450000000000E+0003	 1.79976261484733E-0001	
 2.54650000000000E+0003	 1.80332450274120E-0001	
 2.54850000000000E+0003	 1.80695139063506E-0001	
 2.55050000000000E+0003	 1.81056827852892E-0001	
 2.55250000000000E+0003	 1.81422016642279E-0001	
 2.55450000000000E+0003	 1.81787705431665E-0001	
 2.55650000000000E+0003	 1.82154394221052E-0001	
 2.55850000000000E+0003	 1.82520583010438E-0001	
 2.56050000000000E+0003	 1.82886771799824E-0001	
 2.56250000000000E+0003	 1.83249460589211E-0001	
 2.56450000000000E+0003	 1.83617149378597E-0001	
 2.56650000000000E+0003	 1.83987338167984E-0001	
 2.56850000000000E+0003	 1.84363526957370E-0001	
 2.57050000000000E+0003	 1.84744215746756E-0001	
 2.57250000000000E+0003	 1.85134404536143E-0001	
 2.57450000000000E+0003	 1.85536093325529E-0001	
 2.57650000000000E+0003	 1.85954282114916E-0001	
 2.57850000000000E+0003	 1.86379970904302E-0001	
 2.58050000000000E+0003	 1.86816159693688E-0001	
 2.58250000000000E+0003	 1.87260348483075E-0001	
 2.58450000000000E+0003	 1.87717037272461E-0001	
 2.58650000000000E+0003	 1.88181726061848E-0001	
 2.58850000000000E+0003	 1.88658414851234E-0001	
 2.59050000000000E+0003	 1.89141603640620E-0001	
 2.59250000000000E+0003	 1.89635292430007E-0001	
 2.59450000000000E+0003	 1.90138981219393E-0001	
 2.59650000000000E+0003	 1.90656170008780E-0001	
 2.59850000000000E+0003	 1.91178858798166E-0001	
 2.60050000000000E+0003	 1.91712547587552E-0001	
 2.60250000000000E+0003	 1.92258236376939E-0001	
 2.60450000000000E+0003	 1.92812925166325E-0001	
 2.60650000000000E+0003	 1.93371613955712E-0001	
 2.60850000000000E+0003	 1.93940302745098E-0001	
 2.61050000000000E+0003	 1.94514991534484E-0001	
 2.61250000000000E+0003	 1.95097180323871E-0001	
 2.61450000000000E+0003	 1.95682369113257E-0001	
 2.61650000000000E+0003	 1.96278057902644E-0001	
 2.61850000000000E+0003	 1.96880246692030E-0001	
 2.62050000000000E+0003	 1.97493935481416E-0001	
 2.62250000000000E+0003	 1.98108624270803E-0001	
 2.62450000000000E+0003	 1.98729813060189E-0001	
 2.62650000000000E+0003	 1.99357501849576E-0001	
 2.62850000000000E+0003	 1.99995690638962E-0001	
 2.63050000000000E+0003	 2.00638879428348E-0001	
 2.63250000000000E+0003	 2.01290568217735E-0001	
 2.63450000000000E+0003	 2.01941257007121E-0001	
 2.63650000000000E+0003	 2.02596445796508E-0001	
 2.63850000000000E+0003	 2.03256134585894E-0001	
 2.64050000000000E+0003	 2.03923823375280E-0001	
 2.64250000000000E+0003	 2.04593512164667E-0001	
 2.64450000000000E+0003	 2.05265700954053E-0001	
 2.64650000000000E+0003	 2.05937889743440E-0001	
 2.64850000000000E+0003	 2.06614578532826E-0001	
 2.65050000000000E+0003	 2.07293267322212E-0001	
 2.65250000000000E+0003	 2.07974956111599E-0001	
 2.65450000000000E+0003	 2.08654144900985E-0001	
 2.65650000000000E+0003	 2.09335833690372E-0001	
 2.65850000000000E+0003	 2.10017022479758E-0001	
 2.66050000000000E+0003	 2.10699711269144E-0001	
 2.66250000000000E+0003	 2.11380900058531E-0001	
 2.66450000000000E+0003	 2.12068088847917E-0001	
 2.66650000000000E+0003	 2.12751277637304E-0001	
 2.66850000000000E+0003	 2.13431966426690E-0001	
 2.67050000000000E+0003	 2.14110155216076E-0001	
 2.67250000000000E+0003	 2.14788844005463E-0001	
 2.67450000000000E+0003	 2.15461532794849E-0001	
 2.67650000000000E+0003	 2.16129721584236E-0001	
 2.67850000000000E+0003	 2.16794410373622E-0001	
 2.68050000000000E+0003	 2.17456599163008E-0001	
 2.68250000000000E+0003	 2.18107787952395E-0001	
 2.68450000000000E+0003	 2.18749976741781E-0001	
 2.68650000000000E+0003	 2.19387165531168E-0001	
 2.68850000000000E+0003	 2.20022354320554E-0001	
 2.69050000000000E+0003	 2.20654043109940E-0001	
 2.69250000000000E+0003	 2.21283231899327E-0001	
 2.69450000000000E+0003	 2.21914420688713E-0001	
 2.69650000000000E+0003	 2.22551609478100E-0001	
 2.69850000000000E+0003	 2.23194798267486E-0001	
 2.70050000000000E+0003	 2.23852487056873E-0001	
 2.70250000000000E+0003	 2.24519675846259E-0001	
 2.70450000000000E+0003	 2.25199864635645E-0001	
 2.70650000000000E+0003	 2.25895553425032E-0001	
 2.70850000000000E+0003	 2.26611242214418E-0001	
 2.71050000000000E+0003	 2.27343431003805E-0001	
 2.71250000000000E+0003	 2.28095619793191E-0001	
 2.71450000000000E+0003	 2.28864808582577E-0001	
 2.71650000000000E+0003	 2.29650997371964E-0001	
 2.71850000000000E+0003	 2.30445686161350E-0001	
 2.72050000000000E+0003	 2.31248874950737E-0001	
 2.72250000000000E+0003	 2.32055563740123E-0001	
 2.72450000000000E+0003	 2.32862752529509E-0001	
 2.72650000000000E+0003	 2.33674441318896E-0001	
 2.72850000000000E+0003	 2.34482630108282E-0001	
 2.73050000000000E+0003	 2.35273318897669E-0001	
 2.73250000000000E+0003	 2.36055007687055E-0001	
 2.73450000000000E+0003	 2.36827696476441E-0001	
 2.73650000000000E+0003	 2.37591885265828E-0001	
 2.73850000000000E+0003	 2.38344574055214E-0001	
 2.74050000000000E+0003	 2.39086762844601E-0001	
 2.74250000000000E+0003	 2.39821451633987E-0001	
 2.74450000000000E+0003	 2.40554140423373E-0001	
 2.74650000000000E+0003	 2.41286829212760E-0001	
 2.74850000000000E+0003	 2.42029018002146E-0001	
 2.75050000000000E+0003	 2.42770706791533E-0001	
 2.75250000000000E+0003	 2.43520395580919E-0001	
 2.75450000000000E+0003	 2.44281084370305E-0001	
 2.75650000000000E+0003	 2.45061773159692E-0001	
 2.75850000000000E+0003	 2.45859961949078E-0001	
 2.76050000000000E+0003	 2.46673150738465E-0001	
 2.76250000000000E+0003	 2.47499339527851E-0001	
 2.76450000000000E+0003	 2.48340028317237E-0001	
 2.76650000000000E+0003	 2.49187717106624E-0001	
 2.76850000000000E+0003	 2.50049405896010E-0001	
 2.77050000000000E+0003	 2.50926594685397E-0001	
 2.77250000000000E+0003	 2.51821283474783E-0001	
 2.77450000000000E+0003	 2.52746472264169E-0001	
 2.77650000000000E+0003	 2.53694661053556E-0001	
 2.77850000000000E+0003	 2.54649349842942E-0001	
 2.78050000000000E+0003	 2.55629038632329E-0001	
 2.78250000000000E+0003	 2.56635227421715E-0001	
 2.78450000000000E+0003	 2.57663416211101E-0001	
 2.78650000000000E+0003	 2.58712605000488E-0001	
 2.78850000000000E+0003	 2.59801293789874E-0001	
 2.79050000000000E+0003	 2.60915982579261E-0001	
 2.79250000000000E+0003	 2.62036171368647E-0001	
 2.79450000000000E+0003	 2.63168360158033E-0001	
 2.79650000000000E+0003	 2.64328048947420E-0001	
 2.79850000000000E+0003	 2.65519237736806E-0001	
 2.80050000000000E+0003	 2.66727926526193E-0001	
 2.80250000000000E+0003	 2.67944115315579E-0001	
 2.80450000000000E+0003	 2.69187304104965E-0001	
 2.80650000000000E+0003	 2.70454492894352E-0001	
 2.80850000000000E+0003	 2.71752181683738E-0001	
 2.81050000000000E+0003	 2.73086870473125E-0001	
 2.81250000000000E+0003	 2.74445059262511E-0001	
 2.81450000000000E+0003	 2.75821748051897E-0001	
 2.81650000000000E+0003	 2.77240436841284E-0001	
 2.81850000000000E+0003	 2.78701125630670E-0001	
 2.82050000000000E+0003	 2.80205814420057E-0001	
 2.82250000000000E+0003	 2.81764503209443E-0001	
 2.82450000000000E+0003	 2.83384691998829E-0001	
 2.82650000000000E+0003	 2.85067380788216E-0001	
 2.82850000000000E+0003	 2.86820569577602E-0001	
 2.83050000000000E+0003	 2.88670758366989E-0001	
 2.83250000000000E+0003	 2.90652447156375E-0001	
 2.83450000000000E+0003	 2.92787635945761E-0001	
 2.83650000000000E+0003	 2.95130824735148E-0001	
 2.83850000000000E+0003	 2.97791013524534E-0001	
 2.84050000000000E+0003	 3.00860202313921E-0001	
 2.84250000000000E+0003	 3.04485891103307E-0001	
 2.84450000000000E+0003	 3.08849579892693E-0001	
 2.84650000000000E+0003	 3.13969268682080E-0001	
 2.84850000000000E+0003	 3.19607457471466E-0001	
 2.85050000000000E+0003	 3.25180146260853E-0001	
 2.85250000000000E+0003	 3.29903335050239E-0001	
 2.85450000000000E+0003	 3.33190023839625E-0001	
 2.85650000000000E+0003	 3.35103712629012E-0001	
 2.85850000000000E+0003	 3.36267901418398E-0001	
 2.86050000000000E+0003	 3.37376090207785E-0001	
 2.86250000000000E+0003	 3.38883778997171E-0001	
 2.86450000000000E+0003	 3.41033467786557E-0001	
 2.86650000000000E+0003	 3.43812656575944E-0001	
 2.86850000000000E+0003	 3.46997845365330E-0001	
 2.87050000000000E+0003	 3.50243034154717E-0001	
 2.87250000000000E+0003	 3.53145722944103E-0001	
 2.87450000000000E+0003	 3.55297911733489E-0001	
 2.87650000000000E+0003	 3.56591600522876E-0001	
 2.87850000000000E+0003	 3.57291289312262E-0001	
 2.88050000000000E+0003	 3.57713978101649E-0001	
 2.88250000000000E+0003	 3.58107666891035E-0001	
 2.88450000000000E+0003	 3.58660855680421E-0001	
 2.88650000000000E+0003	 3.59472044469808E-0001	
 2.88850000000000E+0003	 3.60566733259194E-0001	
 2.89050000000000E+0003	 3.61936922048581E-0001	
 2.89250000000000E+0003	 3.63563610837967E-0001	
 2.89450000000000E+0003	 3.65424299627353E-0001	
 2.89650000000000E+0003	 3.67488488416740E-0001	
 2.89850000000000E+0003	 3.69726677206126E-0001	
 2.90050000000000E+0003	 3.72196365995513E-0001	
 2.90250000000000E+0003	 3.74964054784899E-0001	
 2.90450000000000E+0003	 3.78093243574285E-0001	
 2.90650000000000E+0003	 3.81638432363672E-0001	
 2.90850000000000E+0003	 3.85668621153058E-0001	
 2.91050000000000E+0003	 3.90235809942445E-0001	
 2.91250000000000E+0003	 3.95364998731831E-0001	
 2.91450000000000E+0003	 4.00939687521217E-0001	
 2.91650000000000E+0003	 4.06758876310604E-0001	
 2.91850000000000E+0003	 4.12559565099990E-0001	
 2.92050000000000E+0003	 4.17934253889377E-0001	
 2.92250000000000E+0003	 4.22470942678763E-0001	
 2.92450000000000E+0003	 4.25904631468149E-0001	
 2.92650000000000E+0003	 4.28203820257536E-0001	
 2.92850000000000E+0003	 4.29523009046922E-0001	
 2.93050000000000E+0003	 4.29931197836309E-0001	
 2.93250000000000E+0003	 4.29433886625695E-0001	
 2.93450000000000E+0003	 4.28077575415081E-0001	
 2.93650000000000E+0003	 4.25837264204468E-0001	
 2.93850000000000E+0003	 4.22728452993854E-0001	
 2.94050000000000E+0003	 4.18973641783241E-0001	
 2.94250000000000E+0003	 4.14956830572627E-0001	
 2.94450000000000E+0003	 4.11047019362013E-0001	
 2.94650000000000E+0003	 4.07566208151400E-0001	
 2.94850000000000E+0003	 4.04816396940786E-0001	
 2.95050000000000E+0003	 4.03043585730173E-0001	
 2.95250000000000E+0003	 4.02244274519559E-0001	
 2.95450000000000E+0003	 4.02046463308945E-0001	
 2.95650000000000E+0003	 4.02049652098332E-0001	
 2.95850000000000E+0003	 4.01870840887718E-0001	
 2.96050000000000E+0003	 4.01179529677105E-0001	
 2.96250000000000E+0003	 3.99771218466491E-0001	
 2.96450000000000E+0003	 3.97583907255877E-0001	
 2.96650000000000E+0003	 3.94715596045264E-0001	
 2.96850000000000E+0003	 3.91350784834650E-0001	
 2.97050000000000E+0003	 3.87720973624037E-0001	
 2.97250000000000E+0003	 3.84063662413423E-0001	
 2.97450000000000E+0003	 3.80469351202809E-0001	
 2.97650000000000E+0003	 3.76958539992196E-0001	
 2.97850000000000E+0003	 3.73599728781582E-0001	
 2.98050000000000E+0003	 3.70397417570969E-0001	
 2.98250000000000E+0003	 3.67320606360355E-0001	
 2.98450000000000E+0003	 3.64447795149741E-0001	
 2.98650000000000E+0003	 3.61860483939128E-0001	
 2.98850000000000E+0003	 3.59583672728514E-0001	
 2.99050000000000E+0003	 3.57645361517901E-0001	
 2.99250000000000E+0003	 3.56046550307287E-0001	
 2.99450000000000E+0003	 3.54742239096673E-0001	
 2.99650000000000E+0003	 3.53828927886060E-0001	
 2.99850000000000E+0003	 3.53333616675446E-0001	
 3.00050000000000E+0003	 3.53186305464833E-0001	
 3.00250000000000E+0003	 3.53384994254219E-0001	
 3.00450000000000E+0003	 3.53885683043606E-0001	
 3.00650000000000E+0003	 3.54619871832992E-0001	
 3.00850000000000E+0003	 3.55594560622378E-0001	
 3.01050000000000E+0003	 3.56829249411765E-0001	
 3.01250000000000E+0003	 3.58262938201151E-0001	
 3.01450000000000E+0003	 3.59823626990538E-0001	
 3.01650000000000E+0003	 3.61510815779924E-0001	
 3.01850000000000E+0003	 3.63378504569310E-0001	
 3.02050000000000E+0003	 3.65437693358697E-0001	
 3.02250000000000E+0003	 3.67664382148083E-0001	
 3.02450000000000E+0003	 3.70046570937470E-0001	
 3.02650000000000E+0003	 3.72499759726856E-0001	
 3.02850000000000E+0003	 3.74973448516242E-0001	
 3.03050000000000E+0003	 3.77468137305629E-0001	
 3.03250000000000E+0003	 3.79982826095015E-0001	
 3.03450000000000E+0003	 3.82522014884402E-0001	
 3.03650000000000E+0003	 3.85064703673788E-0001	
 3.03850000000000E+0003	 3.87640892463174E-0001	
 3.04050000000000E+0003	 3.90324081252561E-0001	
 3.04250000000000E+0003	 3.93074770041947E-0001	
 3.04450000000000E+0003	 3.95828458831334E-0001	
 3.04650000000000E+0003	 3.98586647620720E-0001	
 3.04850000000000E+0003	 4.01380336410106E-0001	
 3.05050000000000E+0003	 4.04235025199493E-0001	
 3.05250000000000E+0003	 4.07104213988879E-0001	
 3.05450000000000E+0003	 4.09950902778266E-0001	
 3.05650000000000E+0003	 4.12765591567652E-0001	
 3.05850000000000E+0003	 4.15490280357038E-0001	
 3.06050000000000E+0003	 4.18095469146425E-0001	
 3.06250000000000E+0003	 4.20587657935811E-0001	
 3.06450000000000E+0003	 4.22972346725198E-0001	
 3.06650000000000E+0003	 4.25262035514584E-0001	
 3.06850000000000E+0003	 4.27457724303970E-0001	
 3.07050000000000E+0003	 4.29547913093357E-0001	
 3.07250000000000E+0003	 4.31586101882743E-0001	
 3.07450000000000E+0003	 4.33582790672130E-0001	
 3.07650000000000E+0003	 4.35561479461516E-0001	
 3.07850000000000E+0003	 4.37536168250902E-0001	
 3.08050000000000E+0003	 4.39461857040289E-0001	
 3.08250000000000E+0003	 4.41330545829675E-0001	
 3.08450000000000E+0003	 4.43185734619062E-0001	
 3.08650000000000E+0003	 4.44993423408448E-0001	
 3.08850000000000E+0003	 4.46743112197834E-0001	
 3.09050000000000E+0003	 4.48466800987221E-0001	
 3.09250000000000E+0003	 4.50149989776607E-0001	
 3.09450000000000E+0003	 4.51799678565994E-0001	
 3.09650000000000E+0003	 4.53460867355380E-0001	
 3.09850000000000E+0003	 4.55149556144766E-0001	
 3.10050000000000E+0003	 4.56880744934153E-0001	
 3.10250000000000E+0003	 4.58637433723539E-0001	
 3.10450000000000E+0003	 4.60430622512926E-0001	
 3.10650000000000E+0003	 4.62292311302312E-0001	
 3.10850000000000E+0003	 4.64245500091698E-0001	
 3.11050000000000E+0003	 4.66246688881085E-0001	
 3.11250000000000E+0003	 4.68302877670471E-0001	
 3.11450000000000E+0003	 4.70486566459858E-0001	
 3.11650000000000E+0003	 4.72792755249244E-0001	
 3.11850000000000E+0003	 4.75161944038630E-0001	
 3.12050000000000E+0003	 4.77583632828017E-0001	
 3.12250000000000E+0003	 4.80033821617403E-0001	
 3.12450000000000E+0003	 4.82565010406790E-0001	
 3.12650000000000E+0003	 4.85218699196176E-0001	
 3.12850000000000E+0003	 4.87974887985562E-0001	
 3.13050000000000E+0003	 4.90788576774949E-0001	
 3.13250000000000E+0003	 4.93647265564335E-0001	
 3.13450000000000E+0003	 4.96580954353722E-0001	
 3.13650000000000E+0003	 4.99615143143108E-0001	
 3.13850000000000E+0003	 5.02739331932494E-0001	
 3.14050000000000E+0003	 5.05863020721881E-0001	
 3.14250000000000E+0003	 5.08975209511267E-0001	
 3.14450000000000E+0003	 5.12186898300654E-0001	
 3.14650000000000E+0003	 5.15502587090040E-0001	
 3.14850000000000E+0003	 5.18914775879426E-0001	
 3.15050000000000E+0003	 5.22457964668813E-0001	
 3.15250000000000E+0003	 5.26041653458199E-0001	
 3.15450000000000E+0003	 5.29517342247586E-0001	
 3.15650000000000E+0003	 5.33003031036972E-0001	
 3.15850000000000E+0003	 5.36599719826358E-0001	
 3.16050000000000E+0003	 5.40278408615745E-0001	
 3.16250000000000E+0003	 5.43993597405131E-0001	
 3.16450000000000E+0003	 5.47732286194518E-0001	
 3.16650000000000E+0003	 5.51493474983904E-0001	
 3.16850000000000E+0003	 5.55271663773290E-0001	
 3.17050000000000E+0003	 5.59051352562677E-0001	
 3.17250000000000E+0003	 5.62827541352063E-0001	
 3.17450000000000E+0003	 5.66594230141450E-0001	
 3.17650000000000E+0003	 5.70354918930836E-0001	
 3.17850000000000E+0003	 5.74104107720222E-0001	
 3.18050000000000E+0003	 5.77830796509609E-0001	
 3.18250000000000E+0003	 5.81512985298995E-0001	
 3.18450000000000E+0003	 5.85161674088382E-0001	
 3.18650000000000E+0003	 5.88781362877768E-0001	
 3.18850000000000E+0003	 5.92370551667154E-0001	
 3.19050000000000E+0003	 5.95901240456541E-0001	
 3.19250000000000E+0003	 5.99371429245927E-0001	
 3.19450000000000E+0003	 6.02784118035314E-0001	
 3.19650000000000E+0003	 6.06153806824700E-0001	
 3.19850000000000E+0003	 6.09476495614086E-0001	
 3.20050000000000E+0003	 6.12751184403473E-0001	
 3.20250000000000E+0003	 6.15976873192859E-0001	
 3.20450000000000E+0003	 6.19168061982246E-0001	
 3.20650000000000E+0003	 6.22315750771632E-0001	
 3.20850000000000E+0003	 6.25426439561018E-0001	
 3.21050000000000E+0003	 6.28510128350405E-0001	
 3.21250000000000E+0003	 6.31592817139791E-0001	
 3.21450000000000E+0003	 6.34670505929178E-0001	
 3.21650000000000E+0003	 6.37741694718564E-0001	
 3.21850000000000E+0003	 6.40809883507950E-0001	
 3.22050000000000E+0003	 6.43872072297337E-0001	
 3.22250000000000E+0003	 6.46926761086723E-0001	
 3.22450000000000E+0003	 6.50012449876110E-0001	
 3.22650000000000E+0003	 6.53135638665496E-0001	
 3.22850000000000E+0003	 6.56317827454882E-0001	
 3.23050000000000E+0003	 6.59608016244269E-0001	
 3.23250000000000E+0003	 6.63012705033655E-0001	
 3.23450000000000E+0003	 6.66332893823042E-0001	
 3.23650000000000E+0003	 6.69574582612428E-0001	
 3.23850000000000E+0003	 6.72942771401814E-0001	
 3.24050000000000E+0003	 6.76464460191201E-0001	
 3.24250000000000E+0003	 6.80077148980587E-0001	
 3.24450000000000E+0003	 6.83811837769974E-0001	
 3.24650000000000E+0003	 6.87639526559360E-0001	
 3.24850000000000E+0003	 6.91453215348746E-0001	
 3.25050000000000E+0003	 6.95271404138133E-0001	
 3.25250000000000E+0003	 6.99202592927519E-0001	
 3.25450000000000E+0003	 7.03242781716906E-0001	
 3.25650000000000E+0003	 7.07313970506292E-0001	
 3.25850000000000E+0003	 7.11353659295678E-0001	
 3.26050000000000E+0003	 7.15398848085065E-0001	
 3.26250000000000E+0003	 7.19439036874451E-0001	
 3.26450000000000E+0003	 7.23443225663838E-0001	
 3.26650000000000E+0003	 7.27388414453224E-0001	
 3.26850000000000E+0003	 7.31294103242610E-0001	
 3.27050000000000E+0003	 7.35100292031997E-0001	
 3.27250000000000E+0003	 7.38698980821383E-0001	
 3.27450000000000E+0003	 7.42090169610770E-0001	
 3.27650000000000E+0003	 7.45341358400156E-0001	
 3.27850000000000E+0003	 7.48434047189542E-0001	
 3.28050000000000E+0003	 7.51379235978929E-0001	
 3.28250000000000E+0003	 7.54151924768315E-0001	
 3.28450000000000E+0003	 7.56745113557702E-0001	
 3.28650000000000E+0003	 7.59141302347088E-0001	
 3.28850000000000E+0003	 7.61369991136474E-0001	
 3.29050000000000E+0003	 7.63441679925861E-0001	
 3.29250000000000E+0003	 7.65346368715247E-0001	
 3.29450000000000E+0003	 7.67036557504634E-0001	
 3.29650000000000E+0003	 7.68558246294020E-0001	
 3.29850000000000E+0003	 7.69916435083406E-0001	
 3.30050000000000E+0003	 7.71146123872793E-0001	
 3.30250000000000E+0003	 7.72298312662179E-0001	
 3.30450000000000E+0003	 7.73404001451566E-0001	
 3.30650000000000E+0003	 7.74374690240952E-0001	
 3.30850000000000E+0003	 7.75172879030339E-0001	
 3.31050000000000E+0003	 7.75851067819725E-0001	
 3.31250000000000E+0003	 7.76496756609111E-0001	
 3.31450000000000E+0003	 7.77114445398498E-0001	
 3.31650000000000E+0003	 7.77709134187884E-0001	
 3.31850000000000E+0003	 7.78289822977271E-0001	
 3.32050000000000E+0003	 7.78873011766657E-0001	
 3.32250000000000E+0003	 7.79445200556043E-0001	
 3.32450000000000E+0003	 7.80050889345430E-0001	
 3.32650000000000E+0003	 7.80645078134816E-0001	
 3.32850000000000E+0003	 7.81198266924203E-0001	
 3.33050000000000E+0003	 7.81750455713589E-0001	
 3.33250000000000E+0003	 7.82354144502975E-0001	
 3.33450000000000E+0003	 7.82995333292362E-0001	
 3.33650000000000E+0003	 7.83705022081748E-0001	
 3.33850000000000E+0003	 7.84422710871135E-0001	
 3.34050000000000E+0003	 7.85080899660521E-0001	
 3.34250000000000E+0003	 7.85721088449907E-0001	
 3.34450000000000E+0003	 7.86379277239294E-0001	
 3.34650000000000E+0003	 7.87040466028680E-0001	
 3.34850000000000E+0003	 7.87781154818067E-0001	
 3.35050000000000E+0003	 7.88531843607453E-0001	
 3.35250000000000E+0003	 7.89164032396839E-0001	
 3.35450000000000E+0003	 7.89741721186226E-0001	
 3.35650000000000E+0003	 7.90387409975612E-0001	
 3.35850000000000E+0003	 7.91077598764999E-0001	
 3.36050000000000E+0003	 7.91774287554385E-0001	
 3.36250000000000E+0003	 7.92418476343771E-0001	
 3.36450000000000E+0003	 7.93119165133158E-0001	
 3.36650000000000E+0003	 7.93914353922544E-0001	
 3.36850000000000E+0003	 7.94667542711931E-0001	
 3.37050000000000E+0003	 7.95206231501317E-0001	
 3.37250000000000E+0003	 7.95627420290703E-0001	
 3.37450000000000E+0003	 7.96122109080090E-0001	
 3.37650000000000E+0003	 7.96696297869476E-0001	
 3.37850000000000E+0003	 7.97251486658863E-0001	
 3.38050000000000E+0003	 7.97783675448249E-0001	
 3.38250000000000E+0003	 7.98262364237635E-0001	
 3.38450000000000E+0003	 7.98736053027022E-0001	
 3.38650000000000E+0003	 7.99234741816408E-0001	
 3.38850000000000E+0003	 7.99852430605795E-0001	
 3.39050000000000E+0003	 8.00567619395181E-0001	
 3.39250000000000E+0003	 8.01048308184567E-0001	
 3.39450000000000E+0003	 8.01213996973954E-0001	
 3.39650000000000E+0003	 8.01504185763340E-0001	
 3.39850000000000E+0003	 8.02117874552727E-0001	
 3.40050000000000E+0003	 8.02676063342113E-0001	
 3.40250000000000E+0003	 8.02708252131499E-0001	
 3.40450000000000E+0003	 8.02527940920886E-0001	
 3.40650000000000E+0003	 8.02564129710272E-0001	
 3.40850000000000E+0003	 8.02744818499659E-0001	
 3.41050000000000E+0003	 8.02830507289045E-0001	
 3.41250000000000E+0003	 8.02794696078431E-0001	
 3.41450000000000E+0003	 8.02578384867818E-0001	
 3.41650000000000E+0003	 8.02281573657204E-0001	
 3.41850000000000E+0003	 8.02017762446591E-0001	
 3.42050000000000E+0003	 8.01726451235977E-0001	
 3.42250000000000E+0003	 8.01303140025363E-0001	
 3.42450000000000E+0003	 8.00834828814750E-0001	
 3.42650000000000E+0003	 8.00406517604136E-0001	
 3.42850000000000E+0003	 7.99990206393523E-0001	
 3.43050000000000E+0003	 7.99380895182909E-0001	
 3.43250000000000E+0003	 7.98681083972295E-0001	
 3.43450000000000E+0003	 7.98042772761682E-0001	
 3.43650000000000E+0003	 7.97153961551068E-0001	
 3.43850000000000E+0003	 7.95842650340455E-0001	
 3.44050000000000E+0003	 7.94462839129841E-0001	
 3.44250000000000E+0003	 7.93208527919227E-0001	
 3.44450000000000E+0003	 7.92013716708614E-0001	
 3.44650000000000E+0003	 7.90765405498000E-0001	
 3.44850000000000E+0003	 7.89383094287387E-0001	
 3.45050000000000E+0003	 7.87911783076773E-0001	
 3.45250000000000E+0003	 7.86430471866159E-0001	
 3.45450000000000E+0003	 7.84889160655546E-0001	
 3.45650000000000E+0003	 7.83337349444932E-0001	
 3.45850000000000E+0003	 7.81806038234319E-0001	
 3.46050000000000E+0003	 7.80129227023705E-0001	
 3.46250000000000E+0003	 7.78256415813091E-0001	
 3.46450000000000E+0003	 7.76587104602478E-0001	
 3.46650000000000E+0003	 7.75165293391864E-0001	
 3.46850000000000E+0003	 7.73400482181251E-0001	
 3.47050000000000E+0003	 7.70932670970637E-0001	
 3.47250000000000E+0003	 7.68299359760023E-0001	
 3.47450000000000E+0003	 7.65937548549410E-0001	
 3.47650000000000E+0003	 7.63817237338796E-0001	
 3.47850000000000E+0003	 7.61794926128183E-0001	
 3.48050000000000E+0003	 7.59482614917569E-0001	
 3.48250000000000E+0003	 7.56834303706955E-0001	
 3.48450000000000E+0003	 7.54336492496342E-0001	
 3.48650000000000E+0003	 7.51951181285728E-0001	
 3.48850000000000E+0003	 7.49383370075115E-0001	
 3.49050000000000E+0003	 7.46725058864501E-0001	
 3.49250000000000E+0003	 7.44166247653887E-0001	
 3.49450000000000E+0003	 7.41649936443274E-0001	
 3.49650000000000E+0003	 7.39065125232660E-0001	
 3.49850000000000E+0003	 7.36328314022047E-0001	
 3.50050000000000E+0003	 7.33655002811433E-0001	
 3.50250000000000E+0003	 7.30931691600819E-0001	
 3.50450000000000E+0003	 7.27791880390206E-0001	
 3.50650000000000E+0003	 7.24562069179592E-0001	
 3.50850000000000E+0003	 7.21546757968979E-0001	
 3.51050000000000E+0003	 7.18659446758365E-0001	
 3.51250000000000E+0003	 7.15860635547751E-0001	
 3.51450000000000E+0003	 7.12859824337138E-0001	
 3.51650000000000E+0003	 7.09607513126524E-0001	
 3.51850000000000E+0003	 7.06367201915911E-0001	
 3.52050000000000E+0003	 7.03321890705297E-0001	
 3.52250000000000E+0003	 7.00396579494683E-0001	
 3.52450000000000E+0003	 6.97138268284070E-0001	
 3.52650000000000E+0003	 6.93527457073456E-0001	
 3.52850000000000E+0003	 6.89992645862843E-0001	
 3.53050000000000E+0003	 6.86570334652229E-0001	
 3.53250000000000E+0003	 6.83220023441615E-0001	
 3.53450000000000E+0003	 6.79972212231002E-0001	
 3.53650000000000E+0003	 6.76547901020388E-0001	
 3.53850000000000E+0003	 6.72793089809775E-0001	
 3.54050000000000E+0003	 6.69172778599161E-0001	
 3.54250000000000E+0003	 6.65791967388547E-0001	
 3.54450000000000E+0003	 6.62218656177934E-0001	
 3.54650000000000E+0003	 6.58070344967320E-0001	
 3.54850000000000E+0003	 6.53724533756707E-0001	
 3.55050000000000E+0003	 6.49652222546093E-0001	
 3.55250000000000E+0003	 6.45577911335479E-0001	
 3.55450000000000E+0003	 6.41367100124866E-0001	
 3.55650000000000E+0003	 6.37223788914252E-0001	
 3.55850000000000E+0003	 6.33117977703639E-0001	
 3.56050000000000E+0003	 6.28941166493025E-0001	
 3.56250000000000E+0003	 6.24563355282411E-0001	
 3.56450000000000E+0003	 6.20062044071798E-0001	
 3.56650000000000E+0003	 6.15542732861184E-0001	
 3.56850000000000E+0003	 6.11022921650571E-0001	
 3.57050000000000E+0003	 6.06525110439957E-0001	
 3.57250000000000E+0003	 6.01954299229343E-0001	
 3.57450000000000E+0003	 5.97279488018730E-0001	
 3.57650000000000E+0003	 5.92583176808116E-0001	
 3.57850000000000E+0003	 5.87915865597503E-0001	
 3.58050000000000E+0003	 5.83307054386889E-0001	
 3.58250000000000E+0003	 5.78715743176275E-0001	
 3.58450000000000E+0003	 5.74045431965662E-0001	
 3.58650000000000E+0003	 5.68980120755048E-0001	
 3.58850000000000E+0003	 5.63559309544435E-0001	
 3.59050000000000E+0003	 5.58441498333821E-0001	
 3.59250000000000E+0003	 5.53601687123207E-0001	
 3.59450000000000E+0003	 5.48584875912594E-0001	
 3.59650000000000E+0003	 5.43519064701980E-0001	
 3.59850000000000E+0003	 5.38584753491367E-0001	
 3.60050000000000E+0003	 5.33564942280753E-0001	
 3.60250000000000E+0003	 5.28428131070139E-0001	
 3.60450000000000E+0003	 5.23331819859526E-0001	
 3.60650000000000E+0003	 5.18205508648912E-0001	
 3.60850000000000E+0003	 5.12926197438299E-0001	
 3.61050000000000E+0003	 5.07650386227685E-0001	
 3.61250000000000E+0003	 5.02534575017072E-0001	
 3.61450000000000E+0003	 4.97419763806458E-0001	
 3.61650000000000E+0003	 4.92356952595844E-0001	
 3.61850000000000E+0003	 4.87274141385231E-0001	
 3.62050000000000E+0003	 4.82094830174617E-0001	
 3.62250000000000E+0003	 4.77051518964004E-0001	
 3.62450000000000E+0003	 4.72127707753390E-0001	
 3.62650000000000E+0003	 4.67225896542776E-0001	
 3.62850000000000E+0003	 4.62064585332163E-0001	
 3.63050000000000E+0003	 4.56677274121549E-0001	
 3.63250000000000E+0003	 4.51829962910936E-0001	
 3.63450000000000E+0003	 4.47147151700322E-0001	
 3.63650000000000E+0003	 4.42301340489708E-0001	
 3.63850000000000E+0003	 4.37491029279095E-0001	
 3.64050000000000E+0003	 4.32732718068481E-0001	
 3.64250000000000E+0003	 4.28037906857868E-0001	
 3.64450000000000E+0003	 4.23457095647254E-0001	
 3.64650000000000E+0003	 4.18972284436640E-0001	
 3.64850000000000E+0003	 4.14409973226027E-0001	
 3.65050000000000E+0003	 4.09759662015413E-0001	
 3.65250000000000E+0003	 4.05268850804800E-0001	
 3.65450000000000E+0003	 4.01124539594186E-0001	
 3.65650000000000E+0003	 3.97038228383572E-0001	
 3.65850000000000E+0003	 3.92995917172959E-0001	
 3.66050000000000E+0003	 3.89101105962345E-0001	
 3.66250000000000E+0003	 3.85163794751732E-0001	
 3.66450000000000E+0003	 3.81332983541118E-0001	
 3.66650000000000E+0003	 3.77742672330504E-0001	
 3.66850000000000E+0003	 3.74275861119891E-0001	
 3.67050000000000E+0003	 3.70786049909277E-0001	
 3.67250000000000E+0003	 3.67495738698664E-0001	
 3.67450000000000E+0003	 3.64486927488050E-0001	
 3.67650000000000E+0003	 3.61363116277436E-0001	
 3.67850000000000E+0003	 3.58399305066823E-0001	
 3.68050000000000E+0003	 3.55722993856209E-0001	
 3.68250000000000E+0003	 3.53135682645596E-0001	
 3.68450000000000E+0003	 3.50697871434982E-0001	
 3.68650000000000E+0003	 3.48459060224368E-0001	
 3.68850000000000E+0003	 3.46233749013755E-0001	
 3.69050000000000E+0003	 3.43846937803141E-0001	
 3.69250000000000E+0003	 3.41586126592528E-0001	
 3.69450000000000E+0003	 3.39570315381914E-0001	
 3.69650000000000E+0003	 3.37674504171300E-0001	
 3.69850000000000E+0003	 3.35824692960687E-0001	
 3.70050000000000E+0003	 3.34061881750073E-0001	
 3.70250000000000E+0003	 3.32394070539460E-0001	
 3.70450000000000E+0003	 3.30815259328846E-0001	
 3.70650000000000E+0003	 3.29338448118232E-0001	
 3.70850000000000E+0003	 3.27924136907619E-0001	
 3.71050000000000E+0003	 3.26527325697005E-0001	
 3.71250000000000E+0003	 3.25150014486392E-0001	
 3.71450000000000E+0003	 3.23821203275778E-0001	
 3.71650000000000E+0003	 3.22556392065164E-0001	
 3.71850000000000E+0003	 3.21343580854551E-0001	
 3.72050000000000E+0003	 3.20177769643937E-0001	
 3.72250000000000E+0003	 3.19062958433324E-0001	
 3.72450000000000E+0003	 3.17985647222710E-0001	
 3.72650000000000E+0003	 3.16958836012096E-0001	
 3.72850000000000E+0003	 3.15948524801483E-0001	
 3.73050000000000E+0003	 3.14969713590869E-0001	
 3.73250000000000E+0003	 3.14046902380256E-0001	
 3.73450000000000E+0003	 3.13201591169642E-0001	
 3.73650000000000E+0003	 3.12422279959028E-0001	
 3.73850000000000E+0003	 3.11583468748415E-0001	
 3.74050000000000E+0003	 3.10679157537801E-0001	
 3.74250000000000E+0003	 3.09759346327188E-0001	
 3.74450000000000E+0003	 3.08885535116574E-0001	
 3.74650000000000E+0003	 3.08035723905960E-0001	
 3.74850000000000E+0003	 3.07238412695347E-0001	
 3.75050000000000E+0003	 3.06462601484733E-0001	
 3.75250000000000E+0003	 3.05719290274120E-0001	
 3.75450000000000E+0003	 3.05008979063506E-0001	
 3.75650000000000E+0003	 3.04307167852892E-0001	
 3.75850000000000E+0003	 3.03628856642279E-0001	
 3.76050000000000E+0003	 3.02973045431665E-0001	
 3.76250000000000E+0003	 3.02310734221052E-0001	
 3.76450000000000E+0003	 3.01668423010438E-0001	
 3.76650000000000E+0003	 3.01047111799824E-0001	
 3.76850000000000E+0003	 3.00432800589211E-0001	
 3.77050000000000E+0003	 2.99843489378597E-0001	
 3.77250000000000E+0003	 2.99248178167984E-0001	
 3.77450000000000E+0003	 2.98672866957370E-0001	
 3.77650000000000E+0003	 2.98136555746756E-0001	
 3.77850000000000E+0003	 2.97634744536143E-0001	
 3.78050000000000E+0003	 2.97099433325529E-0001	
 3.78250000000000E+0003	 2.96509122114916E-0001	
 3.78450000000000E+0003	 2.95961810904302E-0001	
 3.78650000000000E+0003	 2.95461499693688E-0001	
 3.78850000000000E+0003	 2.94984188483075E-0001	
 3.79050000000000E+0003	 2.94518877272461E-0001	
 3.79250000000000E+0003	 2.94036566061848E-0001	
 3.79450000000000E+0003	 2.93546254851234E-0001	
 3.79650000000000E+0003	 2.93100443640620E-0001	
 3.79850000000000E+0003	 2.92654632430007E-0001	
 3.80050000000000E+0003	 2.92202821219393E-0001	
 3.80250000000000E+0003	 2.91782010008780E-0001	
 3.80450000000000E+0003	 2.91343198798166E-0001	
 3.80650000000000E+0003	 2.90933887587552E-0001	
 3.80850000000000E+0003	 2.90533576376939E-0001	
 3.81050000000000E+0003	 2.90137765166325E-0001	
 3.81250000000000E+0003	 2.89765953955712E-0001	
 3.81450000000000E+0003	 2.89397142745098E-0001	
 3.81650000000000E+0003	 2.89056331534484E-0001	
 3.81850000000000E+0003	 2.88686020323871E-0001	
 3.82050000000000E+0003	 2.88323209113257E-0001	
 3.82250000000000E+0003	 2.87963897902644E-0001	
 3.82450000000000E+0003	 2.87586586692030E-0001	
 3.82650000000000E+0003	 2.87256775481416E-0001	
 3.82850000000000E+0003	 2.86938964270803E-0001	
 3.83050000000000E+0003	 2.86628153060189E-0001	
 3.83250000000000E+0003	 2.86355841849576E-0001	
 3.83450000000000E+0003	 2.86129030638962E-0001	
 3.83650000000000E+0003	 2.85866219428348E-0001	
 3.83850000000000E+0003	 2.85500908217735E-0001	
 3.84050000000000E+0003	 2.85135597007121E-0001	
 3.84250000000000E+0003	 2.84852785796508E-0001	
 3.84450000000000E+0003	 2.84621974585894E-0001	
 3.84650000000000E+0003	 2.84377663375280E-0001	
 3.84850000000000E+0003	 2.84120352164667E-0001	
 3.85050000000000E+0003	 2.83867540954053E-0001	
 3.85250000000000E+0003	 2.83592229743440E-0001	
 3.85450000000000E+0003	 2.83328918532826E-0001	
 3.85650000000000E+0003	 2.83078107322212E-0001	
 3.85850000000000E+0003	 2.82839796111599E-0001	
 3.86050000000000E+0003	 2.82621484900985E-0001	
 3.86250000000000E+0003	 2.82402673690372E-0001	
 3.86450000000000E+0003	 2.82199862479758E-0001	
 3.86650000000000E+0003	 2.82000551269144E-0001	
 3.86850000000000E+0003	 2.81778240058531E-0001	
 3.87050000000000E+0003	 2.81575428847917E-0001	
 3.87250000000000E+0003	 2.81354617637304E-0001	
 3.87450000000000E+0003	 2.81169306426690E-0001	
 3.87650000000000E+0003	 2.80992995216076E-0001	
 3.87850000000000E+0003	 2.80806184005463E-0001	
 3.88050000000000E+0003	 2.80652872794849E-0001	
 3.88250000000000E+0003	 2.80515061584236E-0001	
 3.88450000000000E+0003	 2.80379250373622E-0001	
 3.88650000000000E+0003	 2.80228939163008E-0001	
 3.88850000000000E+0003	 2.80024627952395E-0001	
 3.89050000000000E+0003	 2.79854316741781E-0001	
 3.89250000000000E+0003	 2.79708505531168E-0001	
 3.89450000000000E+0003	 2.79559194320554E-0001	
 3.89650000000000E+0003	 2.79424883109940E-0001	
 3.89850000000000E+0003	 2.79303571899327E-0001	
 3.90050000000000E+0003	 2.79176760688713E-0001	
 3.90250000000000E+0003	 2.79041949478100E-0001	
 3.90450000000000E+0003	 2.78931638267486E-0001	
 3.90650000000000E+0003	 2.78828827056873E-0001	
 3.90850000000000E+0003	 2.78724515846259E-0001	
 3.91050000000000E+0003	 2.78630704635645E-0001	
 3.91250000000000E+0003	 2.78546893425032E-0001	
 3.91450000000000E+0003	 2.78466582214418E-0001	
 3.91650000000000E+0003	 2.78387771003805E-0001	
 3.91850000000000E+0003	 2.78305959793191E-0001	
 3.92050000000000E+0003	 2.78224648582577E-0001	
 3.92250000000000E+0003	 2.78136837371964E-0001	
 3.92450000000000E+0003	 2.78052026161350E-0001	
 3.92650000000000E+0003	 2.77976714950737E-0001	
 3.92850000000000E+0003	 2.77899403740123E-0001	
 3.93050000000000E+0003	 2.77825592529509E-0001	
 3.93250000000000E+0003	 2.77764281318896E-0001	
 3.93450000000000E+0003	 2.77701470108282E-0001	
 3.93650000000000E+0003	 2.77615158897669E-0001	
 3.93850000000000E+0003	 2.77523847687055E-0001	
 3.94050000000000E+0003	 2.77435536476441E-0001	
 3.94250000000000E+0003	 2.77354225265828E-0001	
 3.94450000000000E+0003	 2.77270914055214E-0001	
 3.94650000000000E+0003	 2.77181102844601E-0001	
 3.94850000000000E+0003	 2.77093291633987E-0001	
 3.95050000000000E+0003	 2.77010980423373E-0001	
 3.95250000000000E+0003	 2.76930169212760E-0001	
 3.95450000000000E+0003	 2.76848858002146E-0001	
 3.95650000000000E+0003	 2.76770546791533E-0001	
 3.95850000000000E+0003	 2.76693735580919E-0001	
 3.96050000000000E+0003	 2.76613424370305E-0001	
 3.96250000000000E+0003	 2.76534613159692E-0001	
 3.96450000000000E+0003	 2.76460801949078E-0001	
 3.96650000000000E+0003	 2.76393990738465E-0001	
 3.96850000000000E+0003	 2.76328179527851E-0001	
 3.97050000000000E+0003	 2.76260868317237E-0001	
 3.97250000000000E+0003	 2.76188557106624E-0001	
 3.97450000000000E+0003	 2.76122745896010E-0001	
 3.97650000000000E+0003	 2.76063434685397E-0001	
 3.97850000000000E+0003	 2.76000623474783E-0001	
 3.98050000000000E+0003	 2.75937312264169E-0001	
 3.98250000000000E+0003	 2.75895001053556E-0001	
 3.98450000000000E+0003	 2.75851689842942E-0001	
 3.98650000000000E+0003	 2.75778378632329E-0001	
 3.98850000000000E+0003	 2.75692067421715E-0001	
 3.99050000000000E+0003	 2.75620256211101E-0001	
 3.99250000000000E+0003	 2.75557945000488E-0001	
 3.99450000000000E+0003	 2.75499633789874E-0001	
 3.99650000000000E+0003	 2.75440322579261E-0001	
 3.99850000000000E+0003	 2.75382511368647E-0001	

>1	DATALINE
