*CPCWIN*

>1	DATALINE
DATALINE
1
Operator:

Description:

Remarks:





15.9.2008
10:59


_x	_y
	
	
UNIT	UNIT
 4.50500000000000E+0002	 1.52201618767264E-0001	
 4.52500000000000E+0002	 1.52743951906823E-0001	
 4.54500000000000E+0002	 1.53196285046382E-0001	
 4.56500000000000E+0002	 1.53533618185941E-0001	
 4.58500000000000E+0002	 1.53896451325500E-0001	
 4.60500000000000E+0002	 1.54553784465059E-0001	
 4.62500000000000E+0002	 1.55391617604618E-0001	
 4.64500000000000E+0002	 1.56150450744176E-0001	
 4.66500000000000E+0002	 1.56531283883735E-0001	
 4.68500000000000E+0002	 1.57088117023294E-0001	
 4.70500000000000E+0002	 1.57629450162853E-0001	
 4.72500000000000E+0002	 1.58252283302412E-0001	
 4.74500000000000E+0002	 1.58928116441971E-0001	
 4.76500000000000E+0002	 1.59652949581530E-0001	
 4.78500000000000E+0002	 1.60381282721088E-0001	
 4.80500000000000E+0002	 1.61226115860647E-0001	
 4.82500000000000E+0002	 1.62010449000206E-0001	
 4.84500000000000E+0002	 1.62975282139765E-0001	
 4.86500000000000E+0002	 1.63964615279324E-0001	
 4.88500000000000E+0002	 1.65043948418883E-0001	
 4.90500000000000E+0002	 1.65977281558442E-0001	
 4.92500000000000E+0002	 1.66950614698000E-0001	
 4.94500000000000E+0002	 1.67934947837559E-0001	
 4.96500000000000E+0002	 1.68931280977118E-0001	
 4.98500000000000E+0002	 1.69871614116677E-0001	
 5.00500000000000E+0002	 1.70698947256236E-0001	
 5.02500000000000E+0002	 1.71584780395795E-0001	
 5.04500000000000E+0002	 1.72735113535354E-0001	
 5.06500000000000E+0002	 1.73876446674912E-0001	
 5.08500000000000E+0002	 1.74989279814471E-0001	
 5.10500000000000E+0002	 1.76032612954030E-0001	
 5.12500000000000E+0002	 1.77111446093589E-0001	
 5.14500000000000E+0002	 1.78156779233148E-0001	
 5.16500000000000E+0002	 1.79175612372707E-0001	
 5.18500000000000E+0002	 1.80427445512266E-0001	
 5.20500000000000E+0002	 1.81826778651824E-0001	
 5.22500000000000E+0002	 1.83362611791383E-0001	
 5.24500000000000E+0002	 1.84967944930942E-0001	
 5.26500000000000E+0002	 1.87101778070501E-0001	
 5.28500000000000E+0002	 1.89286611210060E-0001	
 5.30500000000000E+0002	 1.90751944349619E-0001	
 5.32500000000000E+0002	 1.91097777489177E-0001	
 5.34500000000000E+0002	 1.90850110628736E-0001	
 5.36500000000000E+0002	 1.90250443768295E-0001	
 5.38500000000000E+0002	 1.89586276907854E-0001	
 5.40500000000000E+0002	 1.88802110047413E-0001	
 5.42500000000000E+0002	 1.88159443186972E-0001	
 5.44500000000000E+0002	 1.87580276326531E-0001	
 5.46500000000000E+0002	 1.87194109466089E-0001	
 5.48500000000000E+0002	 1.86866442605648E-0001	
 5.50500000000000E+0002	 1.86707275745207E-0001	
 5.52500000000000E+0002	 1.86568108884766E-0001	
 5.54500000000000E+0002	 1.86388942024325E-0001	
 5.56500000000000E+0002	 1.86051275163884E-0001	
 5.58500000000000E+0002	 1.85618608303443E-0001	
 5.60500000000000E+0002	 1.85022941443001E-0001	
 5.62500000000000E+0002	 1.84305774582560E-0001	
 5.64500000000000E+0002	 1.83542607722119E-0001	
 5.66500000000000E+0002	 1.82849440861678E-0001	
 5.68500000000000E+0002	 1.82289274001237E-0001	
 5.70500000000000E+0002	 1.81784107140796E-0001	
 5.72500000000000E+0002	 1.81344440280355E-0001	
 5.74500000000000E+0002	 1.80918773419913E-0001	
 5.76500000000000E+0002	 1.80663106559472E-0001	
 5.78500000000000E+0002	 1.80551439699031E-0001	
 5.80500000000000E+0002	 1.80407772838590E-0001	
 5.82500000000000E+0002	 1.80209105978149E-0001	
 5.84500000000000E+0002	 1.80006439117708E-0001	
 5.86500000000000E+0002	 1.79835272257267E-0001	
 5.88500000000000E+0002	 1.79696105396825E-0001	
 5.90500000000000E+0002	 1.79548938536384E-0001	
 5.92500000000000E+0002	 1.79613271675943E-0001	
 5.94500000000000E+0002	 1.79901604815502E-0001	
 5.96500000000000E+0002	 1.80267937955061E-0001	
 5.98500000000000E+0002	 1.80630771094620E-0001	
 6.00500000000000E+0002	 1.80947604234179E-0001	
 6.02500000000000E+0002	 1.81260437373737E-0001	
 6.04500000000000E+0002	 1.81354770513296E-0001	
 6.06500000000000E+0002	 1.81215103652855E-0001	
 6.08500000000000E+0002	 1.80777936792414E-0001	
 6.10500000000000E+0002	 1.80219269931973E-0001	
 6.12500000000000E+0002	 1.79604103071532E-0001	
 6.14500000000000E+0002	 1.79104436211090E-0001	
 6.16500000000000E+0002	 1.78720269350649E-0001	
 6.18500000000000E+0002	 1.78298102490208E-0001	
 6.20500000000000E+0002	 1.77693935629767E-0001	
 6.22500000000000E+0002	 1.77193268769326E-0001	
 6.24500000000000E+0002	 1.76703601908885E-0001	
 6.26500000000000E+0002	 1.76304935048444E-0001	
 6.28500000000000E+0002	 1.75935768188002E-0001	
 6.30500000000000E+0002	 1.75527601327561E-0001	
 6.32500000000000E+0002	 1.74994934467120E-0001	
 6.34500000000000E+0002	 1.74341767606679E-0001	
 6.36500000000000E+0002	 1.73721100746238E-0001	
 6.38500000000000E+0002	 1.73101433885797E-0001	
 6.40500000000000E+0002	 1.72506767025356E-0001	
 6.42500000000000E+0002	 1.71884600164914E-0001	
 6.44500000000000E+0002	 1.71301933304473E-0001	
 6.46500000000000E+0002	 1.70712766444032E-0001	
 6.48500000000000E+0002	 1.70176099583591E-0001	
 6.50500000000000E+0002	 1.69506432723150E-0001	
 6.52500000000000E+0002	 1.68951265862709E-0001	
 6.54500000000000E+0002	 1.68443099002268E-0001	
 6.56500000000000E+0002	 1.68044432141826E-0001	
 6.58500000000000E+0002	 1.67600265281385E-0001	
 6.60500000000000E+0002	 1.67293098420944E-0001	
 6.62500000000000E+0002	 1.66855431560503E-0001	
 6.64500000000000E+0002	 1.65882264700062E-0001	
 6.66500000000000E+0002	 1.63228597839621E-0001	
 6.68500000000000E+0002	 1.61889930979180E-0001	
 6.70500000000000E+0002	 1.63601764118738E-0001	
 6.72500000000000E+0002	 1.63939597258297E-0001	
 6.74500000000000E+0002	 1.63284930397856E-0001	
 6.76500000000000E+0002	 1.62501263537415E-0001	
 6.78500000000000E+0002	 1.61757596676974E-0001	
 6.80500000000000E+0002	 1.61029429816533E-0001	
 6.82500000000000E+0002	 1.60420762956092E-0001	
 6.84500000000000E+0002	 1.59868096095650E-0001	
 6.86500000000000E+0002	 1.59440929235209E-0001	
 6.88500000000000E+0002	 1.58989262374768E-0001	
 6.90500000000000E+0002	 1.58669595514327E-0001	
 6.92500000000000E+0002	 1.58326928653886E-0001	
 6.94500000000000E+0002	 1.58065261793445E-0001	
 6.96500000000000E+0002	 1.57744594933004E-0001	
 6.98500000000000E+0002	 1.57514428072562E-0001	
 7.00500000000000E+0002	 1.57125761212121E-0001	
 7.02500000000000E+0002	 1.56650594351680E-0001	
 7.04500000000000E+0002	 1.56002927491239E-0001	
 7.06500000000000E+0002	 1.55387760630798E-0001	
 7.08500000000000E+0002	 1.54735093770357E-0001	
 7.10500000000000E+0002	 1.54168926909915E-0001	
 7.12500000000000E+0002	 1.53510260049474E-0001	
 7.14500000000000E+0002	 1.52663093189033E-0001	
 7.16500000000000E+0002	 1.51680926328592E-0001	
 7.18500000000000E+0002	 1.50768259468151E-0001	
 7.20500000000000E+0002	 1.49768092607710E-0001	
 7.22500000000000E+0002	 1.48466925747269E-0001	
 7.24500000000000E+0002	 1.47086758886827E-0001	
 7.26500000000000E+0002	 1.45535092026386E-0001	
 7.28500000000000E+0002	 1.43888425165945E-0001	
 7.30500000000000E+0002	 1.42189758305504E-0001	
 7.32500000000000E+0002	 1.40667591445063E-0001	
 7.34500000000000E+0002	 1.39293424584622E-0001	
 7.36500000000000E+0002	 1.38157257724181E-0001	
 7.38500000000000E+0002	 1.37118590863739E-0001	
 7.40500000000000E+0002	 1.36237924003298E-0001	
 7.42500000000000E+0002	 1.35392257142857E-0001	
 7.44500000000000E+0002	 1.34655590282416E-0001	
 7.46500000000000E+0002	 1.33933423421975E-0001	
 7.48500000000000E+0002	 1.33291256561534E-0001	
 7.50500000000000E+0002	 1.32721089701093E-0001	
 7.52500000000000E+0002	 1.32350922840651E-0001	
 7.54500000000000E+0002	 1.32217755980210E-0001	
 7.56500000000000E+0002	 1.32365589119769E-0001	
 7.58500000000000E+0002	 1.32778422259328E-0001	
 7.60500000000000E+0002	 1.33441755398887E-0001	
 7.62500000000000E+0002	 1.34149088538446E-0001	
 7.64500000000000E+0002	 1.34446921678005E-0001	
 7.66500000000000E+0002	 1.33895754817563E-0001	
 7.68500000000000E+0002	 1.32395587957122E-0001	
 7.70500000000000E+0002	 1.30436921096681E-0001	
 7.72500000000000E+0002	 1.28646254236240E-0001	
 7.74500000000000E+0002	 1.27537587375799E-0001	
 7.76500000000000E+0002	 1.27347920515358E-0001	
 7.78500000000000E+0002	 1.27788253654917E-0001	
 7.80500000000000E+0002	 1.27884586794475E-0001	
 7.82500000000000E+0002	 1.27172919934034E-0001	
 7.84500000000000E+0002	 1.26081253073593E-0001	
 7.86500000000000E+0002	 1.24905086213152E-0001	
 7.88500000000000E+0002	 1.23629419352711E-0001	
 7.90500000000000E+0002	 1.22341752492270E-0001	
 7.92500000000000E+0002	 1.21384585631828E-0001	
 7.94500000000000E+0002	 1.20769418771387E-0001	
 7.96500000000000E+0002	 1.20172251910946E-0001	
 7.98500000000000E+0002	 1.19276585050505E-0001	
 8.00500000000000E+0002	 1.18265918190064E-0001	
 8.02500000000000E+0002	 1.17333751329623E-0001	
 8.04500000000000E+0002	 1.16682584469182E-0001	
 8.06500000000000E+0002	 1.16224917608740E-0001	
 8.08500000000000E+0002	 1.15869750748299E-0001	
 8.10500000000000E+0002	 1.15443583887858E-0001	
 8.12500000000000E+0002	 1.14868417027417E-0001	
 8.14500000000000E+0002	 1.14128750166976E-0001	
 8.16500000000000E+0002	 1.13296083306535E-0001	
 8.18500000000000E+0002	 1.12493416446094E-0001	
 8.20500000000000E+0002	 1.11842749585652E-0001	
 8.22500000000000E+0002	 1.11434082725211E-0001	
 8.24500000000000E+0002	 1.11188415864770E-0001	
 8.26500000000000E+0002	 1.11111749004329E-0001	
 8.28500000000000E+0002	 1.11108582143888E-0001	
 8.30500000000000E+0002	 1.11246915283447E-0001	
 8.32500000000000E+0002	 1.11448248423006E-0001	
 8.34500000000000E+0002	 1.11761581562564E-0001	
 8.36500000000000E+0002	 1.12044914702123E-0001	
 8.38500000000000E+0002	 1.12293747841682E-0001	
 8.40500000000000E+0002	 1.12377080981241E-0001	
 8.42500000000000E+0002	 1.12334914120800E-0001	
 8.44500000000000E+0002	 1.12149747260359E-0001	
 8.46500000000000E+0002	 1.11923080399918E-0001	
 8.48500000000000E+0002	 1.11715413539476E-0001	
 8.50500000000000E+0002	 1.11587246679035E-0001	
 8.52500000000000E+0002	 1.11594579818594E-0001	
 8.54500000000000E+0002	 1.11692412958153E-0001	
 8.56500000000000E+0002	 1.11846746097712E-0001	
 8.58500000000000E+0002	 1.11872579237271E-0001	
 8.60500000000000E+0002	 1.11735912376830E-0001	
 8.62500000000000E+0002	 1.11262745516388E-0001	
 8.64500000000000E+0002	 1.10563578655947E-0001	
 8.66500000000000E+0002	 1.09618911795506E-0001	
 8.68500000000000E+0002	 1.08790244935065E-0001	
 8.70500000000000E+0002	 1.08331078074624E-0001	
 8.72500000000000E+0002	 1.08143411214183E-0001	
 8.74500000000000E+0002	 1.07484244353741E-0001	
 8.76500000000000E+0002	 1.06724077493300E-0001	
 8.78500000000000E+0002	 1.06166410632859E-0001	
 8.80500000000000E+0002	 1.05949243772418E-0001	
 8.82500000000000E+0002	 1.05869076911977E-0001	
 8.84500000000000E+0002	 1.05894410051536E-0001	
 8.86500000000000E+0002	 1.05871743191095E-0001	
 8.88500000000000E+0002	 1.05828076330653E-0001	
 8.90500000000000E+0002	 1.05699909470212E-0001	
 8.92500000000000E+0002	 1.05491242609771E-0001	
 8.94500000000000E+0002	 1.05201075749330E-0001	
 8.96500000000000E+0002	 1.04852408888889E-0001	
 8.98500000000000E+0002	 1.04573242028448E-0001	
 9.00500000000000E+0002	 1.04463575168007E-0001	
 9.02500000000000E+0002	 1.04711408307565E-0001	
 9.04500000000000E+0002	 1.05399741447124E-0001	
 9.06500000000000E+0002	 1.06619574586683E-0001	
 9.08500000000000E+0002	 1.08217907726242E-0001	
 9.10500000000000E+0002	 1.10020240865801E-0001	
 9.12500000000000E+0002	 1.11626574005360E-0001	
 9.14500000000000E+0002	 1.12849907144919E-0001	
 9.16500000000000E+0002	 1.13447240284477E-0001	
 9.18500000000000E+0002	 1.13416573424036E-0001	
 9.20500000000000E+0002	 1.12748906563595E-0001	
 9.22500000000000E+0002	 1.11630739703154E-0001	
 9.24500000000000E+0002	 1.10205072842713E-0001	
 9.26500000000000E+0002	 1.08659405982272E-0001	
 9.28500000000000E+0002	 1.07128239121831E-0001	
 9.30500000000000E+0002	 1.05748072261389E-0001	
 9.32500000000000E+0002	 1.04618905400948E-0001	
 9.34500000000000E+0002	 1.03740738540507E-0001	
 9.36500000000000E+0002	 1.03113071680066E-0001	
 9.38500000000000E+0002	 1.02651904819625E-0001	
 9.40500000000000E+0002	 1.02383737959184E-0001	
 9.42500000000000E+0002	 1.02297071098743E-0001	
 9.44500000000000E+0002	 1.02502904238301E-0001	
 9.46500000000000E+0002	 1.02968237377860E-0001	
 9.48500000000000E+0002	 1.03747570517419E-0001	
 9.50500000000000E+0002	 1.04765403656978E-0001	
 9.52500000000000E+0002	 1.06087236796537E-0001	
 9.54500000000000E+0002	 1.07673569936096E-0001	
 9.56500000000000E+0002	 1.09565903075655E-0001	
 9.58500000000000E+0002	 1.11645236215213E-0001	
 9.60500000000000E+0002	 1.13887069354772E-0001	
 9.62500000000000E+0002	 1.16149402494331E-0001	
 9.64500000000000E+0002	 1.18420735633890E-0001	
 9.66500000000000E+0002	 1.20630568773449E-0001	
 9.68500000000000E+0002	 1.22835401913008E-0001	
 9.70500000000000E+0002	 1.25081235052566E-0001	
 9.72500000000000E+0002	 1.27569068192125E-0001	
 9.74500000000000E+0002	 1.30533401331684E-0001	
 9.76500000000000E+0002	 1.34327234471243E-0001	
 9.78500000000000E+0002	 1.39226567610802E-0001	
 9.80500000000000E+0002	 1.45401400750361E-0001	
 9.82500000000000E+0002	 1.52660233889920E-0001	
 9.84500000000000E+0002	 1.60484567029478E-0001	
 9.86500000000000E+0002	 1.68107400169037E-0001	
 9.88500000000000E+0002	 1.74848233308596E-0001	
 9.90500000000000E+0002	 1.80372066448155E-0001	
 9.92500000000000E+0002	 1.84862899587714E-0001	
 9.94500000000000E+0002	 1.88877732727273E-0001	
 9.96500000000000E+0002	 1.93125065866832E-0001	
 9.98500000000000E+0002	 1.98138399006390E-0001	
 1.00050000000000E+0003	 2.04112232145949E-0001	
 1.00250000000000E+0003	 2.10881565285508E-0001	
 1.00450000000000E+0003	 2.18024398425067E-0001	
 1.00650000000000E+0003	 2.25118731564626E-0001	
 1.00850000000000E+0003	 2.31858564704185E-0001	
 1.01050000000000E+0003	 2.38166397843744E-0001	
 1.01250000000000E+0003	 2.44026230983302E-0001	
 1.01450000000000E+0003	 2.49441064122861E-0001	
 1.01650000000000E+0003	 2.54223397262420E-0001	
 1.01850000000000E+0003	 2.58150230401979E-0001	
 1.02050000000000E+0003	 2.61025063541538E-0001	
 1.02250000000000E+0003	 2.62983396681097E-0001	
 1.02450000000000E+0003	 2.64381229820656E-0001	
 1.02650000000000E+0003	 2.65684062960214E-0001	
 1.02850000000000E+0003	 2.67107896099773E-0001	
 1.03050000000000E+0003	 2.68673729239332E-0001	
 1.03250000000000E+0003	 2.70211062378891E-0001	
 1.03450000000000E+0003	 2.71571895518450E-0001	
 1.03650000000000E+0003	 2.72571228658009E-0001	
 1.03850000000000E+0003	 2.73143561797568E-0001	
 1.04050000000000E+0003	 2.73466394937126E-0001	
 1.04250000000000E+0003	 2.73836228076685E-0001	
 1.04450000000000E+0003	 2.74579061216244E-0001	
 1.04650000000000E+0003	 2.75875894355803E-0001	
 1.04850000000000E+0003	 2.77706227495362E-0001	
 1.05050000000000E+0003	 2.79658560634921E-0001	
 1.05250000000000E+0003	 2.81188393774479E-0001	
 1.05450000000000E+0003	 2.81800726914038E-0001	
 1.05650000000000E+0003	 2.81433060053597E-0001	
 1.05850000000000E+0003	 2.80194893193156E-0001	
 1.06050000000000E+0003	 2.78480726332715E-0001	
 1.06250000000000E+0003	 2.76817559472274E-0001	
 1.06450000000000E+0003	 2.75940392611833E-0001	
 1.06650000000000E+0003	 2.76412225751391E-0001	
 1.06850000000000E+0003	 2.78474558890950E-0001	
 1.07050000000000E+0003	 2.81855892030509E-0001	
 1.07250000000000E+0003	 2.85957225170068E-0001	
 1.07450000000000E+0003	 2.90021558309627E-0001	
 1.07650000000000E+0003	 2.93382391449186E-0001	
 1.07850000000000E+0003	 2.95633224588745E-0001	
 1.08050000000000E+0003	 2.96523057728303E-0001	
 1.08250000000000E+0003	 2.95946390867862E-0001	
 1.08450000000000E+0003	 2.93744724007421E-0001	
 1.08650000000000E+0003	 2.89855057146980E-0001	
 1.08850000000000E+0003	 2.84325390286539E-0001	
 1.09050000000000E+0003	 2.77777223426098E-0001	
 1.09250000000000E+0003	 2.71110056565657E-0001	
 1.09450000000000E+0003	 2.65277389705215E-0001	
 1.09650000000000E+0003	 2.60608222844774E-0001	
 1.09850000000000E+0003	 2.56924555984333E-0001	
 1.10050000000000E+0003	 2.53679889123892E-0001	
 1.10250000000000E+0003	 2.50447722263451E-0001	
 1.10450000000000E+0003	 2.46993555403010E-0001	
 1.10650000000000E+0003	 2.43361888542569E-0001	
 1.10850000000000E+0003	 2.39728221682127E-0001	
 1.11050000000000E+0003	 2.36274554821686E-0001	
 1.11250000000000E+0003	 2.33093887961245E-0001	
 1.11450000000000E+0003	 2.30085721100804E-0001	
 1.11650000000000E+0003	 2.27168554240363E-0001	
 1.11850000000000E+0003	 2.24192387379922E-0001	
 1.12050000000000E+0003	 2.21131720519481E-0001	
 1.12250000000000E+0003	 2.17898053659039E-0001	
 1.12450000000000E+0003	 2.14580386798598E-0001	
 1.12650000000000E+0003	 2.11181219938157E-0001	
 1.12850000000000E+0003	 2.07840053077716E-0001	
 1.13050000000000E+0003	 2.04519386217275E-0001	
 1.13250000000000E+0003	 2.01412219356834E-0001	
 1.13450000000000E+0003	 1.98613552496392E-0001	
 1.13650000000000E+0003	 1.96291385635951E-0001	
 1.13850000000000E+0003	 1.94539218775510E-0001	
 1.14050000000000E+0003	 1.93492051915069E-0001	
 1.14250000000000E+0003	 1.93101385054628E-0001	
 1.14450000000000E+0003	 1.93193218194187E-0001	
 1.14650000000000E+0003	 1.93388551333746E-0001	
 1.14850000000000E+0003	 1.93210384473304E-0001	
 1.15050000000000E+0003	 1.92176217612863E-0001	
 1.15250000000000E+0003	 1.89986050752422E-0001	
 1.15450000000000E+0003	 1.86763883891981E-0001	
 1.15650000000000E+0003	 1.82853717031540E-0001	
 1.15850000000000E+0003	 1.78703550171099E-0001	
 1.16050000000000E+0003	 1.74476383310658E-0001	
 1.16250000000000E+0003	 1.70202216450216E-0001	
 1.16450000000000E+0003	 1.65784549589775E-0001	
 1.16650000000000E+0003	 1.61290882729334E-0001	
 1.16850000000000E+0003	 1.56839215868893E-0001	
 1.17050000000000E+0003	 1.52609049008452E-0001	
 1.17250000000000E+0003	 1.48652882148011E-0001	
 1.17450000000000E+0003	 1.45007215287570E-0001	
 1.17650000000000E+0003	 1.41715048427128E-0001	
 1.17850000000000E+0003	 1.38864881566687E-0001	
 1.18050000000000E+0003	 1.36584714706246E-0001	
 1.18250000000000E+0003	 1.34933547845805E-0001	
 1.18450000000000E+0003	 1.34011380985364E-0001	
 1.18650000000000E+0003	 1.33808214124923E-0001	
 1.18850000000000E+0003	 1.34376547264482E-0001	
 1.19050000000000E+0003	 1.35606880404040E-0001	
 1.19250000000000E+0003	 1.37509213543599E-0001	
 1.19450000000000E+0003	 1.39914046683158E-0001	
 1.19650000000000E+0003	 1.42760879822717E-0001	
 1.19850000000000E+0003	 1.45796212962276E-0001	
 1.20050000000000E+0003	 1.48878546101835E-0001	
 1.20250000000000E+0003	 1.51780879241394E-0001	
 1.20450000000000E+0003	 1.54474212380952E-0001	
 1.20650000000000E+0003	 1.56870545520511E-0001	
 1.20850000000000E+0003	 1.59114378660070E-0001	
 1.21050000000000E+0003	 1.61409211799629E-0001	
 1.21250000000000E+0003	 1.64159044939188E-0001	
 1.21450000000000E+0003	 1.67650878078747E-0001	
 1.21650000000000E+0003	 1.71719711218306E-0001	
 1.21850000000000E+0003	 1.75588044357864E-0001	
 1.22050000000000E+0003	 1.78761377497423E-0001	
 1.22250000000000E+0003	 1.81180210636982E-0001	
 1.22450000000000E+0003	 1.82576043776541E-0001	
 1.22650000000000E+0003	 1.83149376916100E-0001	
 1.22850000000000E+0003	 1.83339710055659E-0001	
 1.23050000000000E+0003	 1.83227543195217E-0001	
 1.23250000000000E+0003	 1.82669876334776E-0001	
 1.23450000000000E+0003	 1.81727209474335E-0001	
 1.23650000000000E+0003	 1.80492542613894E-0001	
 1.23850000000000E+0003	 1.79114375753453E-0001	
 1.24050000000000E+0003	 1.77666708893012E-0001	
 1.24250000000000E+0003	 1.76206042032571E-0001	
 1.24450000000000E+0003	 1.74756875172129E-0001	
 1.24650000000000E+0003	 1.73332208311688E-0001	
 1.24850000000000E+0003	 1.71916041451247E-0001	
 1.25050000000000E+0003	 1.70474874590806E-0001	
 1.25250000000000E+0003	 1.69003207730365E-0001	
 1.25450000000000E+0003	 1.67470040869924E-0001	
 1.25650000000000E+0003	 1.65927374009483E-0001	
 1.25850000000000E+0003	 1.64348707149041E-0001	
 1.26050000000000E+0003	 1.62800040288600E-0001	
 1.26250000000000E+0003	 1.61245373428159E-0001	
 1.26450000000000E+0003	 1.59730706567718E-0001	
 1.26650000000000E+0003	 1.58244539707277E-0001	
 1.26850000000000E+0003	 1.56872372846836E-0001	
 1.27050000000000E+0003	 1.55576205986395E-0001	
 1.27250000000000E+0003	 1.54444539125953E-0001	
 1.27450000000000E+0003	 1.53387872265512E-0001	
 1.27650000000000E+0003	 1.52443705405071E-0001	
 1.27850000000000E+0003	 1.51579538544630E-0001	
 1.28050000000000E+0003	 1.50824871684189E-0001	
 1.28250000000000E+0003	 1.50080704823748E-0001	
 1.28450000000000E+0003	 1.49339537963307E-0001	
 1.28650000000000E+0003	 1.48614371102865E-0001	
 1.28850000000000E+0003	 1.48045204242424E-0001	
 1.29050000000000E+0003	 1.47664537381983E-0001	
 1.29250000000000E+0003	 1.47441370521542E-0001	
 1.29450000000000E+0003	 1.47341203661101E-0001	
 1.29650000000000E+0003	 1.47411536800660E-0001	
 1.29850000000000E+0003	 1.47709369940219E-0001	
 1.30050000000000E+0003	 1.48183703079777E-0001	
 1.30250000000000E+0003	 1.48762536219336E-0001	
 1.30450000000000E+0003	 1.49367369358895E-0001	
 1.30650000000000E+0003	 1.49965202498454E-0001	
 1.30850000000000E+0003	 1.50567035638013E-0001	
 1.31050000000000E+0003	 1.51100368777572E-0001	
 1.31250000000000E+0003	 1.51501701917130E-0001	
 1.31450000000000E+0003	 1.51796535056689E-0001	
 1.31650000000000E+0003	 1.51846368196248E-0001	
 1.31850000000000E+0003	 1.51704201335807E-0001	
 1.32050000000000E+0003	 1.51523034475366E-0001	
 1.32250000000000E+0003	 1.51300867614925E-0001	
 1.32450000000000E+0003	 1.51170200754484E-0001	
 1.32650000000000E+0003	 1.51237033894042E-0001	
 1.32850000000000E+0003	 1.51563367033601E-0001	
 1.33050000000000E+0003	 1.52119700173160E-0001	
 1.33250000000000E+0003	 1.52873033312719E-0001	
 1.33450000000000E+0003	 1.53615866452278E-0001	
 1.33650000000000E+0003	 1.54249699591837E-0001	
 1.33850000000000E+0003	 1.54815532731396E-0001	
 1.34050000000000E+0003	 1.55654365870954E-0001	
 1.34250000000000E+0003	 1.56419199010513E-0001	
 1.34450000000000E+0003	 1.56918032150072E-0001	
 1.34650000000000E+0003	 1.57473865289631E-0001	
 1.34850000000000E+0003	 1.58348698429190E-0001	
 1.35050000000000E+0003	 1.59657531568749E-0001	
 1.35250000000000E+0003	 1.61399864708308E-0001	
 1.35450000000000E+0003	 1.63407697847866E-0001	
 1.35650000000000E+0003	 1.65495030987425E-0001	
 1.35850000000000E+0003	 1.67331364126984E-0001	
 1.36050000000000E+0003	 1.68969697266543E-0001	
 1.36250000000000E+0003	 1.70732530406102E-0001	
 1.36450000000000E+0003	 1.72643363545661E-0001	
 1.36650000000000E+0003	 1.73588196685220E-0001	
 1.36850000000000E+0003	 1.73707529824778E-0001	
 1.37050000000000E+0003	 1.73262362964337E-0001	
 1.37250000000000E+0003	 1.72393696103896E-0001	
 1.37450000000000E+0003	 1.71714529243455E-0001	
 1.37650000000000E+0003	 1.71209862383014E-0001	
 1.37850000000000E+0003	 1.70590195522573E-0001	
 1.38050000000000E+0003	 1.70169028662132E-0001	
 1.38250000000000E+0003	 1.69925361801690E-0001	
 1.38450000000000E+0003	 1.69672694941249E-0001	
 1.38650000000000E+0003	 1.69272528080808E-0001	
 1.38850000000000E+0003	 1.69223361220367E-0001	
 1.39050000000000E+0003	 1.69582694359926E-0001	
 1.39250000000000E+0003	 1.70162027499485E-0001	
 1.39450000000000E+0003	 1.70941860639043E-0001	
 1.39650000000000E+0003	 1.72011693778602E-0001	
 1.39850000000000E+0003	 1.73226026918161E-0001	
 1.40050000000000E+0003	 1.74439860057720E-0001	
 1.40250000000000E+0003	 1.74983693197279E-0001	
 1.40450000000000E+0003	 1.75293526336838E-0001	
 1.40650000000000E+0003	 1.75578859476397E-0001	
 1.40850000000000E+0003	 1.75465192615955E-0001	
 1.41050000000000E+0003	 1.75277025755514E-0001	
 1.41250000000000E+0003	 1.75142858895073E-0001	
 1.41450000000000E+0003	 1.74869692034632E-0001	
 1.41650000000000E+0003	 1.74229525174191E-0001	
 1.41850000000000E+0003	 1.73309358313750E-0001	
 1.42050000000000E+0003	 1.72167691453309E-0001	
 1.42250000000000E+0003	 1.71109024592867E-0001	
 1.42450000000000E+0003	 1.70273357732426E-0001	
 1.42650000000000E+0003	 1.68862190871985E-0001	
 1.42850000000000E+0003	 1.67304024011544E-0001	
 1.43050000000000E+0003	 1.66213857151103E-0001	
 1.43250000000000E+0003	 1.65465190290662E-0001	
 1.43450000000000E+0003	 1.64930523430221E-0001	
 1.43650000000000E+0003	 1.64710856569779E-0001	
 1.43850000000000E+0003	 1.65171689709338E-0001	
 1.44050000000000E+0003	 1.65931022848897E-0001	
 1.44250000000000E+0003	 1.66688355988456E-0001	
 1.44450000000000E+0003	 1.67032689128015E-0001	
 1.44650000000000E+0003	 1.67320522267574E-0001	
 1.44850000000000E+0003	 1.67766855407133E-0001	
 1.45050000000000E+0003	 1.68003688546691E-0001	
 1.45250000000000E+0003	 1.67974521686250E-0001	
 1.45450000000000E+0003	 1.67300854825809E-0001	
 1.45650000000000E+0003	 1.64908187965368E-0001	
 1.45850000000000E+0003	 1.62922521104927E-0001	
 1.46050000000000E+0003	 1.61761354244486E-0001	
 1.46250000000000E+0003	 1.60251687384045E-0001	
 1.46450000000000E+0003	 1.57825520523603E-0001	
 1.46650000000000E+0003	 1.55358853663162E-0001	
 1.46850000000000E+0003	 1.52813186802721E-0001	
 1.47050000000000E+0003	 1.49728019942280E-0001	
 1.47250000000000E+0003	 1.45484853081839E-0001	
 1.47450000000000E+0003	 1.41578186221398E-0001	
 1.47650000000000E+0003	 1.39149519360957E-0001	
 1.47850000000000E+0003	 1.37437352500515E-0001	
 1.48050000000000E+0003	 1.35826685640074E-0001	
 1.48250000000000E+0003	 1.34880018779633E-0001	
 1.48450000000000E+0003	 1.34217351919192E-0001	
 1.48650000000000E+0003	 1.33956685058751E-0001	
 1.48850000000000E+0003	 1.34171018198310E-0001	
 1.49050000000000E+0003	 1.35371851337868E-0001	
 1.49250000000000E+0003	 1.36819184477427E-0001	
 1.49450000000000E+0003	 1.37986517616986E-0001	
 1.49650000000000E+0003	 1.39269850756545E-0001	
 1.49850000000000E+0003	 1.41633183896104E-0001	
 1.50050000000000E+0003	 1.44314517035663E-0001	
 1.50250000000000E+0003	 1.46770850175222E-0001	
 1.50450000000000E+0003	 1.48380183314780E-0001	
 1.50650000000000E+0003	 1.50479016454339E-0001	
 1.50850000000000E+0003	 1.55448349593898E-0001	
 1.51050000000000E+0003	 1.61086682733457E-0001	
 1.51250000000000E+0003	 1.66614015873016E-0001	
 1.51450000000000E+0003	 1.71256349012575E-0001	
 1.51650000000000E+0003	 1.75773682152134E-0001	
 1.51850000000000E+0003	 1.79665015291692E-0001	
 1.52050000000000E+0003	 1.81785848431251E-0001	
 1.52250000000000E+0003	 1.85065681570810E-0001	
 1.52450000000000E+0003	 1.89219514710369E-0001	
 1.52650000000000E+0003	 1.94062847849928E-0001	
 1.52850000000000E+0003	 1.98937680989487E-0001	
 1.53050000000000E+0003	 2.03079014129046E-0001	
 1.53250000000000E+0003	 2.07102347268604E-0001	
 1.53450000000000E+0003	 2.12003180408163E-0001	
 1.53650000000000E+0003	 2.15406513547722E-0001	
 1.53850000000000E+0003	 2.17518346687281E-0001	
 1.54050000000000E+0003	 2.20770679826840E-0001	
 1.54250000000000E+0003	 2.24434012966399E-0001	
 1.54450000000000E+0003	 2.27553846105958E-0001	
 1.54650000000000E+0003	 2.29471679245516E-0001	
 1.54850000000000E+0003	 2.29322512385075E-0001	
 1.55050000000000E+0003	 2.27857345524634E-0001	
 1.55250000000000E+0003	 2.24923678664193E-0001	
 1.55450000000000E+0003	 2.20276011803752E-0001	
 1.55650000000000E+0003	 2.15351344943311E-0001	
 1.55850000000000E+0003	 2.09152678082870E-0001	
 1.56050000000000E+0003	 2.02858511222428E-0001	
 1.56250000000000E+0003	 1.98550344361987E-0001	
 1.56450000000000E+0003	 1.96979677501546E-0001	
 1.56650000000000E+0003	 1.93886010641105E-0001	
 1.56850000000000E+0003	 1.90448843780664E-0001	
 1.57050000000000E+0003	 1.87214176920223E-0001	
 1.57250000000000E+0003	 1.84255010059781E-0001	
 1.57450000000000E+0003	 1.81332843199340E-0001	
 1.57650000000000E+0003	 1.77422176338899E-0001	
 1.57850000000000E+0003	 1.74855009478458E-0001	
 1.58050000000000E+0003	 1.74335342618017E-0001	
 1.58250000000000E+0003	 1.73172675757576E-0001	
 1.58450000000000E+0003	 1.72001508897135E-0001	
 1.58650000000000E+0003	 1.71266842036693E-0001	
 1.58850000000000E+0003	 1.71216175176252E-0001	
 1.59050000000000E+0003	 1.71735508315811E-0001	
 1.59250000000000E+0003	 1.72946341455370E-0001	
 1.59450000000000E+0003	 1.74616674594929E-0001	
 1.59650000000000E+0003	 1.76855507734488E-0001	
 1.59850000000000E+0003	 1.79309840874047E-0001	
 1.60050000000000E+0003	 1.82235674013605E-0001	
 1.60250000000000E+0003	 1.85621507153164E-0001	
 1.60450000000000E+0003	 1.89593340292723E-0001	
 1.60650000000000E+0003	 1.93863173432282E-0001	
 1.60850000000000E+0003	 1.98934006571841E-0001	
 1.61050000000000E+0003	 2.04687339711400E-0001	
 1.61250000000000E+0003	 2.10955672850959E-0001	
 1.61450000000000E+0003	 2.17021005990517E-0001	
 1.61650000000000E+0003	 2.23888339130076E-0001	
 1.61850000000000E+0003	 2.32168172269635E-0001	
 1.62050000000000E+0003	 2.41008505409194E-0001	
 1.62250000000000E+0003	 2.50721338548753E-0001	
 1.62450000000000E+0003	 2.61318671688312E-0001	
 1.62650000000000E+0003	 2.71098004827871E-0001	
 1.62850000000000E+0003	 2.81613337967429E-0001	
 1.63050000000000E+0003	 2.91813171106988E-0001	
 1.63250000000000E+0003	 3.00578004246547E-0001	
 1.63450000000000E+0003	 3.08599837386106E-0001	
 1.63650000000000E+0003	 3.17183170525665E-0001	
 1.63850000000000E+0003	 3.23935003665224E-0001	
 1.64050000000000E+0003	 3.29294336804783E-0001	
 1.64250000000000E+0003	 3.33467169944341E-0001	
 1.64450000000000E+0003	 3.36328003083900E-0001	
 1.64650000000000E+0003	 3.39445336223459E-0001	
 1.64850000000000E+0003	 3.43981169363018E-0001	
 1.65050000000000E+0003	 3.47061502502577E-0001	
 1.65250000000000E+0003	 3.47557835642136E-0001	
 1.65450000000000E+0003	 3.49536168781694E-0001	
 1.65650000000000E+0003	 3.50822001921253E-0001	
 1.65850000000000E+0003	 3.51125335060812E-0001	
 1.66050000000000E+0003	 3.47824168200371E-0001	
 1.66250000000000E+0003	 3.42428001339930E-0001	
 1.66450000000000E+0003	 3.35766334479489E-0001	
 1.66650000000000E+0003	 3.29194167619048E-0001	
 1.66850000000000E+0003	 3.22251000758606E-0001	
 1.67050000000000E+0003	 3.14826333898165E-0001	
 1.67250000000000E+0003	 3.08082167037724E-0001	
 1.67450000000000E+0003	 3.01589500177283E-0001	
 1.67650000000000E+0003	 2.94410833316842E-0001	
 1.67850000000000E+0003	 2.88059666456401E-0001	
 1.68050000000000E+0003	 2.82449999595960E-0001	
 1.68250000000000E+0003	 2.76548332735518E-0001	
 1.68450000000000E+0003	 2.68686665875077E-0001	
 1.68650000000000E+0003	 2.60738499014636E-0001	
 1.68850000000000E+0003	 2.56126832154195E-0001	
 1.69050000000000E+0003	 2.51553665293754E-0001	
 1.69250000000000E+0003	 2.45814498433313E-0001	
 1.69450000000000E+0003	 2.39478831572872E-0001	
 1.69650000000000E+0003	 2.32126664712430E-0001	
 1.69850000000000E+0003	 2.27556997851989E-0001	
 1.70050000000000E+0003	 2.24386830991548E-0001	
 1.70250000000000E+0003	 2.21429664131107E-0001	
 1.70450000000000E+0003	 2.20601497270666E-0001	
 1.70650000000000E+0003	 2.20081830410225E-0001	
 1.70850000000000E+0003	 2.18527663549784E-0001	
 1.71050000000000E+0003	 2.16789496689342E-0001	
 1.71250000000000E+0003	 2.14432829828901E-0001	
 1.71450000000000E+0003	 2.10718662968460E-0001	
 1.71650000000000E+0003	 2.04359496108019E-0001	
 1.71850000000000E+0003	 1.95532329247578E-0001	
 1.72050000000000E+0003	 1.87568662387137E-0001	
 1.72250000000000E+0003	 1.80601495526696E-0001	
 1.72450000000000E+0003	 1.73439828666254E-0001	
 1.72650000000000E+0003	 1.67146661805813E-0001	
 1.72850000000000E+0003	 1.61823994945372E-0001	
 1.73050000000000E+0003	 1.57554828084931E-0001	
 1.73250000000000E+0003	 1.53562661224490E-0001	
 1.73450000000000E+0003	 1.49833994364049E-0001	
 1.73650000000000E+0003	 1.47730327503608E-0001	
 1.73850000000000E+0003	 1.47178660643166E-0001	
 1.74050000000000E+0003	 1.45931493782725E-0001	
 1.74250000000000E+0003	 1.43819826922284E-0001	
 1.74450000000000E+0003	 1.41926160061843E-0001	
 1.74650000000000E+0003	 1.39870993201402E-0001	
 1.74850000000000E+0003	 1.37505826340961E-0001	
 1.75050000000000E+0003	 1.34699659480519E-0001	
 1.75250000000000E+0003	 1.31470992620078E-0001	
 1.75450000000000E+0003	 1.28971325759637E-0001	
 1.75650000000000E+0003	 1.26727158899196E-0001	
 1.75850000000000E+0003	 1.24274992038755E-0001	
 1.76050000000000E+0003	 1.21838325178314E-0001	
 1.76250000000000E+0003	 1.19704658317873E-0001	
 1.76450000000000E+0003	 1.17600491457431E-0001	
 1.76650000000000E+0003	 1.15722324596990E-0001	
 1.76850000000000E+0003	 1.13921657736549E-0001	
 1.77050000000000E+0003	 1.12497490876108E-0001	
 1.77250000000000E+0003	 1.11064824015667E-0001	
 1.77450000000000E+0003	 1.09465157155226E-0001	
 1.77650000000000E+0003	 1.08730990294785E-0001	
 1.77850000000000E+0003	 1.08204823434343E-0001	
 1.78050000000000E+0003	 1.07378656573902E-0001	
 1.78250000000000E+0003	 1.06657489713461E-0001	
 1.78450000000000E+0003	 1.05724322853020E-0001	
 1.78650000000000E+0003	 1.05015155992579E-0001	
 1.78850000000000E+0003	 1.04232989132138E-0001	
 1.79050000000000E+0003	 1.03442322271697E-0001	
 1.79250000000000E+0003	 1.02788155411255E-0001	
 1.79450000000000E+0003	 1.01995988550814E-0001	
 1.79650000000000E+0003	 1.01446821690373E-0001	
 1.79850000000000E+0003	 1.01141654829932E-0001	
 1.80050000000000E+0003	 1.00589987969491E-0001	
 1.80250000000000E+0003	 1.00112321109050E-0001	
 1.80450000000000E+0003	 9.96136542486085E-0002	
 1.80650000000000E+0003	 9.90774873881674E-0002	
 1.80850000000000E+0003	 9.85403205277262E-0002	
 1.81050000000000E+0003	 9.81306536672851E-0002	
 1.81250000000000E+0003	 9.77884868068439E-0002	
 1.81450000000000E+0003	 9.73453199464028E-0002	
 1.81650000000000E+0003	 9.68661530859617E-0002	
 1.81850000000000E+0003	 9.65219862255205E-0002	
 1.82050000000000E+0003	 9.61428193650794E-0002	
 1.82250000000000E+0003	 9.56696525046382E-0002	
 1.82450000000000E+0003	 9.52739856441971E-0002	
 1.82650000000000E+0003	 9.50668187837559E-0002	
 1.82850000000000E+0003	 9.46396519233148E-0002	
 1.83050000000000E+0003	 9.45789850628736E-0002	
 1.83250000000000E+0003	 9.42188182024325E-0002	
 1.83450000000000E+0003	 9.37711513419913E-0002	
 1.83650000000000E+0003	 9.35664844815502E-0002	
 1.83850000000000E+0003	 9.33678176211090E-0002	
 1.84050000000000E+0003	 9.30191507606679E-0002	
 1.84250000000000E+0003	 9.24929839002268E-0002	
 1.84450000000000E+0003	 9.20638170397856E-0002	
 1.84650000000000E+0003	 9.17631501793445E-0002	
 1.84850000000000E+0003	 9.18394833189033E-0002	
 1.85050000000000E+0003	 9.19823164584622E-0002	
 1.85250000000000E+0003	 9.18061495980210E-0002	
 1.85450000000000E+0003	 9.16294827375799E-0002	
 1.85650000000000E+0003	 9.14178158771387E-0002	
 1.85850000000000E+0003	 9.12176490166976E-0002	
 1.86050000000000E+0003	 9.10329821562564E-0002	
 1.86250000000000E+0003	 9.08743152958153E-0002	
 1.86450000000000E+0003	 9.06491484353741E-0002	
 1.86650000000000E+0003	 9.03549815749330E-0002	
 1.86850000000000E+0003	 9.02823147144919E-0002	
 1.87050000000000E+0003	 9.03126478540507E-0002	
 1.87250000000000E+0003	 9.00789809936096E-0002	
 1.87450000000000E+0003	 9.00178141331684E-0002	
 1.87650000000000E+0003	 8.99596472727273E-0002	
 1.87850000000000E+0003	 8.98354804122861E-0002	
 1.88050000000000E+0003	 8.97293135518450E-0002	
 1.88250000000000E+0003	 8.96191466914038E-0002	
 1.88450000000000E+0003	 8.95214798309627E-0002	
 1.88650000000000E+0003	 8.93733129705215E-0002	
 1.88850000000000E+0003	 8.92181461100804E-0002	
 1.89050000000000E+0003	 8.92734792496392E-0002	
 1.89250000000000E+0003	 8.91408123891981E-0002	
 1.89450000000000E+0003	 8.89636455287570E-0002	
 1.89650000000000E+0003	 8.89934786683158E-0002	
 1.89850000000000E+0003	 8.89198118078747E-0002	
 1.90050000000000E+0003	 8.88286449474335E-0002	
 1.90250000000000E+0003	 8.87549780869924E-0002	
 1.90450000000000E+0003	 8.86928112265512E-0002	
 1.90650000000000E+0003	 8.85811443661101E-0002	
 1.90850000000000E+0003	 8.84914775056689E-0002	
 1.91050000000000E+0003	 8.85148106452278E-0002	
 1.91250000000000E+0003	 8.85021437847866E-0002	
 1.91450000000000E+0003	 8.83904769243455E-0002	
 1.91650000000000E+0003	 8.82418100639043E-0002	
 1.91850000000000E+0003	 8.82291432034632E-0002	
 1.92050000000000E+0003	 8.81154763430221E-0002	
 1.92250000000000E+0003	 8.80718094825809E-0002	
 1.92450000000000E+0003	 8.82866426221398E-0002	
 1.92650000000000E+0003	 8.82749757616986E-0002	
 1.92850000000000E+0003	 8.82283089012575E-0002	
 1.93050000000000E+0003	 8.82101420408163E-0002	
 1.93250000000000E+0003	 8.81814751803752E-0002	
 1.93450000000000E+0003	 8.81758083199340E-0002	
 1.93650000000000E+0003	 8.81616414594929E-0002	
 1.93850000000000E+0003	 8.81264745990517E-0002	
 1.94050000000000E+0003	 8.79818077386106E-0002	
 1.94250000000000E+0003	 8.79991408781694E-0002	
 1.94450000000000E+0003	 8.81394740177283E-0002	
 1.94650000000000E+0003	 8.81133071572872E-0002	
 1.94850000000000E+0003	 8.81276402968460E-0002	
 1.95050000000000E+0003	 8.81339734364049E-0002	
 1.95250000000000E+0003	 8.81393065759637E-0002	
 1.95450000000000E+0003	 8.81416397155226E-0002	
 1.95650000000000E+0003	 8.81759728550814E-0002	
 1.95850000000000E+0003	 8.81938059946403E-0002	
 1.96050000000000E+0003	 8.82016391341991E-0002	
 1.96250000000000E+0003	 8.82159722737580E-0002	
 1.96450000000000E+0003	 8.81723054133168E-0002	
 1.96650000000000E+0003	 8.81376385528757E-0002	
 1.96850000000000E+0003	 8.82534716924345E-0002	
 1.97050000000000E+0003	 8.82933048319934E-0002	
 1.97250000000000E+0003	 8.82956379715523E-0002	
 1.97450000000000E+0003	 8.83194711111111E-0002	
 1.97650000000000E+0003	 8.83423042506700E-0002	
 1.97850000000000E+0003	 8.83616373902288E-0002	
 1.98050000000000E+0003	 8.83789705297877E-0002	
 1.98250000000000E+0003	 8.83973036693465E-0002	
 1.98450000000000E+0003	 8.84116368089054E-0002	
 1.98650000000000E+0003	 8.83999699484642E-0002	
 1.98850000000000E+0003	 8.83918030880231E-0002	
 1.99050000000000E+0003	 8.83716362275819E-0002	
 1.99250000000000E+0003	 8.84569693671408E-0002	
 1.99450000000000E+0003	 8.85848025066996E-0002	
 1.99650000000000E+0003	 8.85911356462585E-0002	
 1.99850000000000E+0003	 8.86404687858174E-0002	
 2.00050000000000E+0003	 8.86848019253762E-0002	
 2.00250000000000E+0003	 8.87361350649351E-0002	
 2.00450000000000E+0003	 8.87764682044939E-0002	
 2.00650000000000E+0003	 8.88293013440528E-0002	
 2.00850000000000E+0003	 8.88796344836116E-0002	
 2.01050000000000E+0003	 8.89469676231705E-0002	
 2.01250000000000E+0003	 8.89973007627293E-0002	
 2.01450000000000E+0003	 8.90161339022882E-0002	
 2.01650000000000E+0003	 8.90344670418470E-0002	
 2.01850000000000E+0003	 8.91588001814059E-0002	
 2.02050000000000E+0003	 8.92541333209647E-0002	
 2.02250000000000E+0003	 8.93219664605236E-0002	
 2.02450000000000E+0003	 8.93997996000825E-0002	
 2.02650000000000E+0003	 8.94796327396413E-0002	
 2.02850000000000E+0003	 8.95574658792002E-0002	
 2.03050000000000E+0003	 8.96312990187590E-0002	
 2.03250000000000E+0003	 8.97016321583179E-0002	
 2.03450000000000E+0003	 8.97649652978767E-0002	
 2.03650000000000E+0003	 8.98282984374356E-0002	
 2.03850000000000E+0003	 8.98706315769944E-0002	
 2.04050000000000E+0003	 8.99064647165533E-0002	
 2.04250000000000E+0003	 8.99832978561121E-0002	
 2.04450000000000E+0003	 9.00611309956710E-0002	
 2.04650000000000E+0003	 9.01114641352298E-0002	
 2.04850000000000E+0003	 9.01677972747887E-0002	
 2.05050000000000E+0003	 9.02126304143476E-0002	
 2.05250000000000E+0003	 9.02534635539064E-0002	
 2.05450000000000E+0003	 9.02877966934653E-0002	
 2.05650000000000E+0003	 9.03221298330241E-0002	
 2.05850000000000E+0003	 9.03499629725830E-0002	
 2.06050000000000E+0003	 9.03782961121418E-0002	
 2.06250000000000E+0003	 9.03846292517007E-0002	
 2.06450000000000E+0003	 9.03904623912595E-0002	
 2.06650000000000E+0003	 9.04582955308184E-0002	
 2.06850000000000E+0003	 9.05046286703772E-0002	
 2.07050000000000E+0003	 9.05309618099361E-0002	
 2.07250000000000E+0003	 9.05587949494949E-0002	
 2.07450000000000E+0003	 9.05861280890538E-0002	
 2.07650000000000E+0003	 9.06109612286127E-0002	
 2.07850000000000E+0003	 9.06347943681715E-0002	
 2.08050000000000E+0003	 9.06576275077304E-0002	
 2.08250000000000E+0003	 9.06799606472892E-0002	
 2.08450000000000E+0003	 9.06952937868481E-0002	
 2.08650000000000E+0003	 9.07061269264069E-0002	
 2.08850000000000E+0003	 9.07109600659658E-0002	
 2.09050000000000E+0003	 9.07377932055246E-0002	
 2.09250000000000E+0003	 9.07746263450835E-0002	
 2.09450000000000E+0003	 9.07899594846423E-0002	
 2.09650000000000E+0003	 9.08027926242012E-0002	
 2.09850000000000E+0003	 9.08191257637600E-0002	
 2.10050000000000E+0003	 9.08329589033189E-0002	
 2.10250000000000E+0003	 9.08457920428778E-0002	
 2.10450000000000E+0003	 9.08551251824366E-0002	
 2.10650000000000E+0003	 9.08609583219955E-0002	
 2.10850000000000E+0003	 9.08642914615543E-0002	
 2.11050000000000E+0003	 9.08636246011132E-0002	
 2.11250000000000E+0003	 9.08574577406720E-0002	
 2.11450000000000E+0003	 9.08477908802309E-0002	
 2.11650000000000E+0003	 9.08506240197897E-0002	
 2.11850000000000E+0003	 9.08539571593486E-0002	
 2.12050000000000E+0003	 9.08527902989074E-0002	
 2.12250000000000E+0003	 9.08461234384663E-0002	
 2.12450000000000E+0003	 9.08389565780251E-0002	
 2.12650000000000E+0003	 9.08322897175840E-0002	
 2.12850000000000E+0003	 9.08231228571429E-0002	
 2.13050000000000E+0003	 9.08114559967017E-0002	
 2.13250000000000E+0003	 9.07982891362606E-0002	
 2.13450000000000E+0003	 9.07801222758194E-0002	
 2.13650000000000E+0003	 9.07624554153783E-0002	
 2.13850000000000E+0003	 9.07477885549371E-0002	
 2.14050000000000E+0003	 9.07366216944960E-0002	
 2.14250000000000E+0003	 9.07244548340548E-0002	
 2.14450000000000E+0003	 9.07032879736137E-0002	
 2.14650000000000E+0003	 9.06751211131725E-0002	
 2.14850000000000E+0003	 9.06429542527314E-0002	
 2.15050000000000E+0003	 9.06067873922902E-0002	
 2.15250000000000E+0003	 9.05651205318491E-0002	
 2.15450000000000E+0003	 9.05194536714080E-0002	
 2.15650000000000E+0003	 9.04717868109668E-0002	
 2.15850000000000E+0003	 9.04211199505257E-0002	
 2.16050000000000E+0003	 9.03614530900845E-0002	
 2.16250000000000E+0003	 9.02982862296434E-0002	
 2.16450000000000E+0003	 9.02386193692022E-0002	
 2.16650000000000E+0003	 9.01844525087611E-0002	
 2.16850000000000E+0003	 9.01347856483199E-0002	
 2.17050000000000E+0003	 9.00746187878788E-0002	
 2.17250000000000E+0003	 9.00004519274376E-0002	
 2.17450000000000E+0003	 8.99282850669965E-0002	
 2.17650000000000E+0003	 8.98611182065553E-0002	
 2.17850000000000E+0003	 8.97974513461142E-0002	
 2.18050000000000E+0003	 8.97357844856731E-0002	
 2.18250000000000E+0003	 8.96746176252319E-0002	
 2.18450000000000E+0003	 8.96144507647908E-0002	
 2.18650000000000E+0003	 8.95567839043496E-0002	
 2.18850000000000E+0003	 8.95021170439085E-0002	
 2.19050000000000E+0003	 8.94449501834673E-0002	
 2.19250000000000E+0003	 8.93892833230262E-0002	
 2.19450000000000E+0003	 8.93376164625850E-0002	
 2.19650000000000E+0003	 8.92854496021439E-0002	
 2.19850000000000E+0003	 8.92307827417027E-0002	
 2.20050000000000E+0003	 8.91766158812616E-0002	
 2.20250000000000E+0003	 8.91224490208204E-0002	
 2.20450000000000E+0003	 8.90682821603793E-0002	
 2.20650000000000E+0003	 8.90146152999382E-0002	
 2.20850000000000E+0003	 8.89639484394970E-0002	
 2.21050000000000E+0003	 8.89147815790559E-0002	
 2.21250000000000E+0003	 8.88696147186147E-0002	
 2.21450000000000E+0003	 8.88199478581736E-0002	
 2.21650000000000E+0003	 8.87722809977324E-0002	
 2.21850000000000E+0003	 8.87261141372913E-0002	
 2.22050000000000E+0003	 8.86834472768501E-0002	
 2.22250000000000E+0003	 8.86387804164090E-0002	
 2.22450000000000E+0003	 8.85956135559678E-0002	
 2.22650000000000E+0003	 8.85514466955267E-0002	
 2.22850000000000E+0003	 8.85122798350855E-0002	
 2.23050000000000E+0003	 8.84751129746444E-0002	
 2.23250000000000E+0003	 8.84419461142033E-0002	
 2.23450000000000E+0003	 8.84067792537621E-0002	
 2.23650000000000E+0003	 8.83736123933210E-0002	
 2.23850000000000E+0003	 8.83444455328798E-0002	
 2.24050000000000E+0003	 8.83142786724387E-0002	
 2.24250000000000E+0003	 8.82791118119975E-0002	
 2.24450000000000E+0003	 8.82464449515564E-0002	
 2.24650000000000E+0003	 8.82247780911152E-0002	
 2.24850000000000E+0003	 8.82036112306741E-0002	
 2.25050000000000E+0003	 8.81839443702329E-0002	
 2.25250000000000E+0003	 8.81612775097918E-0002	
 2.25450000000000E+0003	 8.81391106493506E-0002	
 2.25650000000000E+0003	 8.81154437889095E-0002	
 2.25850000000000E+0003	 8.80942769284684E-0002	
 2.26050000000000E+0003	 8.80706100680272E-0002	
 2.26250000000000E+0003	 8.80499432075861E-0002	
 2.26450000000000E+0003	 8.80262763471449E-0002	
 2.26650000000000E+0003	 8.80001094867038E-0002	
 2.26850000000000E+0003	 8.79749426262626E-0002	
 2.27050000000000E+0003	 8.79492757658215E-0002	
 2.27250000000000E+0003	 8.79241089053803E-0002	
 2.27450000000000E+0003	 8.78994420449392E-0002	
 2.27650000000000E+0003	 8.78832751844980E-0002	
 2.27850000000000E+0003	 8.78616083240569E-0002	
 2.28050000000000E+0003	 8.78399414636157E-0002	
 2.28250000000000E+0003	 8.78167746031746E-0002	
 2.28450000000000E+0003	 8.78256077427335E-0002	
 2.28650000000000E+0003	 8.78659408822923E-0002	
 2.28850000000000E+0003	 8.79252740218512E-0002	
 2.29050000000000E+0003	 8.79881071614100E-0002	
 2.29250000000000E+0003	 8.80719403009689E-0002	
 2.29450000000000E+0003	 8.81547734405277E-0002	
 2.29650000000000E+0003	 8.82216065800866E-0002	
 2.29850000000000E+0003	 8.82559397196454E-0002	
 2.30050000000000E+0003	 8.82707728592043E-0002	
 2.30250000000000E+0003	 8.82266059987631E-0002	
 2.30450000000000E+0003	 8.81784391383220E-0002	
 2.30650000000000E+0003	 8.82137722778808E-0002	
 2.30850000000000E+0003	 8.82716054174397E-0002	
 2.31050000000000E+0003	 8.82384385569986E-0002	
 2.31250000000000E+0003	 8.81052716965574E-0002	
 2.31450000000000E+0003	 8.80426048361163E-0002	
 2.31650000000000E+0003	 8.80864379756751E-0002	
 2.31850000000000E+0003	 8.80837711152340E-0002	
 2.32050000000000E+0003	 8.80681042547928E-0002	
 2.32250000000000E+0003	 8.81234373943517E-0002	
 2.32450000000000E+0003	 8.82117705339105E-0002	
 2.32650000000000E+0003	 8.82511036734694E-0002	
 2.32850000000000E+0003	 8.80894368130282E-0002	
 2.33050000000000E+0003	 8.78422699525871E-0002	
 2.33250000000000E+0003	 8.77181030921459E-0002	
 2.33450000000000E+0003	 8.77299362317048E-0002	
 2.33650000000000E+0003	 8.77937693712637E-0002	
 2.33850000000000E+0003	 8.78751025108225E-0002	
 2.34050000000000E+0003	 8.81089356503814E-0002	
 2.34250000000000E+0003	 8.83052687899402E-0002	
 2.34450000000000E+0003	 8.80436019294991E-0002	
 2.34650000000000E+0003	 8.77714350690579E-0002	
 2.34850000000000E+0003	 8.79377682086168E-0002	
 2.35050000000000E+0003	 8.78891013481756E-0002	
 2.35250000000000E+0003	 8.76664344877345E-0002	
 2.35450000000000E+0003	 8.77112676272933E-0002	
 2.35650000000000E+0003	 8.79886007668522E-0002	
 2.35850000000000E+0003	 8.81189339064110E-0002	
 2.36050000000000E+0003	 8.80637670459699E-0002	
 2.36250000000000E+0003	 8.80356001855288E-0002	
 2.36450000000000E+0003	 8.80804333250876E-0002	
 2.36650000000000E+0003	 8.81222664646465E-0002	
 2.36850000000000E+0003	 8.81860996042053E-0002	
 2.37050000000000E+0003	 8.81904327437642E-0002	
 2.37250000000000E+0003	 8.80377658833230E-0002	
 2.37450000000000E+0003	 8.78030990228819E-0002	
 2.37650000000000E+0003	 8.77919321624407E-0002	
 2.37850000000000E+0003	 8.81087653019996E-0002	
 2.38050000000000E+0003	 8.85315984415584E-0002	
 2.38250000000000E+0003	 8.87729315811173E-0002	
 2.38450000000000E+0003	 8.87842647206761E-0002	
 2.38650000000000E+0003	 8.87140978602350E-0002	
 2.38850000000000E+0003	 8.86714309997939E-0002	
 2.39050000000000E+0003	 8.86927641393527E-0002	
 2.39250000000000E+0003	 8.87435972789116E-0002	
 2.39450000000000E+0003	 8.88159304184704E-0002	
 2.39650000000000E+0003	 8.88807635580293E-0002	
 2.39850000000000E+0003	 8.89535966975881E-0002	
 2.40050000000000E+0003	 8.90239298371470E-0002	
 2.40250000000000E+0003	 8.91077629767058E-0002	
 2.40450000000000E+0003	 8.91875961162647E-0002	
 2.40650000000000E+0003	 8.92734292558235E-0002	
 2.40850000000000E+0003	 8.93582623953824E-0002	
 2.41050000000000E+0003	 8.94500955349412E-0002	
 2.41250000000000E+0003	 8.95429286745001E-0002	
 2.41450000000000E+0003	 8.96387618140590E-0002	
 2.41650000000000E+0003	 8.97410949536178E-0002	
 2.41850000000000E+0003	 8.98454280931767E-0002	
 2.42050000000000E+0003	 8.99562612327355E-0002	
 2.42250000000000E+0003	 9.00615943722944E-0002	
 2.42450000000000E+0003	 9.01764275118532E-0002	
 2.42650000000000E+0003	 9.02892606514121E-0002	
 2.42850000000000E+0003	 9.04145937909709E-0002	
 2.43050000000000E+0003	 9.05329269305298E-0002	
 2.43250000000000E+0003	 9.06577600700886E-0002	
 2.43450000000000E+0003	 9.07775932096475E-0002	
 2.43650000000000E+0003	 9.09104263492063E-0002	
 2.43850000000000E+0003	 9.10312594887652E-0002	
 2.44050000000000E+0003	 9.11565926283241E-0002	
 2.44250000000000E+0003	 9.12784257678829E-0002	
 2.44450000000000E+0003	 9.14057589074418E-0002	
 2.44650000000000E+0003	 9.15260920470006E-0002	
 2.44850000000000E+0003	 9.16479251865595E-0002	
 2.45050000000000E+0003	 9.17657583261183E-0002	
 2.45250000000000E+0003	 9.18810914656772E-0002	
 2.45450000000000E+0003	 9.20054246052360E-0002	
 2.45650000000000E+0003	 9.21307577447949E-0002	
 2.45850000000000E+0003	 9.22590908843537E-0002	
 2.46050000000000E+0003	 9.23834240239126E-0002	
 2.46250000000000E+0003	 9.25207571634714E-0002	
 2.46450000000000E+0003	 9.26540903030303E-0002	
 2.46650000000000E+0003	 9.27919234425892E-0002	
 2.46850000000000E+0003	 9.29252565821480E-0002	
 2.47050000000000E+0003	 9.30705897217069E-0002	
 2.47250000000000E+0003	 9.32079228612657E-0002	
 2.47450000000000E+0003	 9.33497560008246E-0002	
 2.47650000000000E+0003	 9.34880891403834E-0002	
 2.47850000000000E+0003	 9.36329222799423E-0002	
 2.48050000000000E+0003	 9.37717554195011E-0002	
 2.48250000000000E+0003	 9.39100885590600E-0002	
 2.48450000000000E+0003	 9.40484216986188E-0002	
 2.48650000000000E+0003	 9.41852548381777E-0002	
 2.48850000000000E+0003	 9.43205879777365E-0002	
 2.49050000000000E+0003	 9.44524211172954E-0002	
 2.49250000000000E+0003	 9.45892542568543E-0002	
 2.49450000000000E+0003	 9.47215873964131E-0002	
 2.49650000000000E+0003	 9.48534205359720E-0002	
 2.49850000000000E+0003	 9.49807536755308E-0002	
 2.50050000000000E+0003	 9.51110868150897E-0002	
 2.50250000000000E+0003	 9.52369199546485E-0002	
 2.50450000000000E+0003	 9.53717530942074E-0002	
 2.50650000000000E+0003	 9.54995862337662E-0002	
 2.50850000000000E+0003	 9.56269193733251E-0002	
 2.51050000000000E+0003	 9.57422525128839E-0002	
 2.51250000000000E+0003	 9.58625856524428E-0002	
 2.51450000000000E+0003	 9.59779187920016E-0002	
 2.51650000000000E+0003	 9.60907519315605E-0002	
 2.51850000000000E+0003	 9.62010850711194E-0002	
 2.52050000000000E+0003	 9.63214182106782E-0002	
 2.52250000000000E+0003	 9.64377513502371E-0002	
 2.52450000000000E+0003	 9.65475844897959E-0002	
 2.52650000000000E+0003	 9.66609176293548E-0002	
 2.52850000000000E+0003	 9.67767507689136E-0002	
 2.53050000000000E+0003	 9.68955839084725E-0002	
 2.53250000000000E+0003	 9.70104170480313E-0002	
 2.53450000000000E+0003	 9.71242501875902E-0002	
 2.53650000000000E+0003	 9.72350833271490E-0002	
 2.53850000000000E+0003	 9.73584164667079E-0002	
 2.54050000000000E+0003	 9.74792496062667E-0002	
 2.54250000000000E+0003	 9.76000827458256E-0002	
 2.54450000000000E+0003	 9.77214158853845E-0002	
 2.54650000000000E+0003	 9.78502490249433E-0002	
 2.54850000000000E+0003	 9.79780821645022E-0002	
 2.55050000000000E+0003	 9.81044153040610E-0002	
 2.55250000000000E+0003	 9.82327484436199E-0002	
 2.55450000000000E+0003	 9.83650815831787E-0002	
 2.55650000000000E+0003	 9.84984147227376E-0002	
 2.55850000000000E+0003	 9.86297478622964E-0002	
 2.56050000000000E+0003	 9.87620810018553E-0002	
 2.56250000000000E+0003	 9.88944141414141E-0002	
 2.56450000000000E+0003	 9.90322472809730E-0002	
 2.56650000000000E+0003	 9.91670804205318E-0002	
 2.56850000000000E+0003	 9.93064135600907E-0002	
 2.57050000000000E+0003	 9.94482466996496E-0002	
 2.57250000000000E+0003	 9.96015798392084E-0002	
 2.57450000000000E+0003	 9.97514129787673E-0002	
 2.57650000000000E+0003	 9.99032461183261E-0002	
 2.57850000000000E+0003	 1.00057579257885E-0001	
 2.58050000000000E+0003	 1.00223412397444E-0001	
 2.58250000000000E+0003	 1.00388745537003E-0001	
 2.58450000000000E+0003	 1.00552578676562E-0001	
 2.58650000000000E+0003	 1.00718411816120E-0001	
 2.58850000000000E+0003	 1.00895244955679E-0001	
 2.59050000000000E+0003	 1.01074078095238E-0001	
 2.59250000000000E+0003	 1.01248911234797E-0001	
 2.59450000000000E+0003	 1.01428744374356E-0001	
 2.59650000000000E+0003	 1.01615577513915E-0001	
 2.59850000000000E+0003	 1.01809410653474E-0001	
 2.60050000000000E+0003	 1.02003243793032E-0001	
 2.60250000000000E+0003	 1.02204076932591E-0001	
 2.60450000000000E+0003	 1.02404410072150E-0001	
 2.60650000000000E+0003	 1.02609243211709E-0001	
 2.60850000000000E+0003	 1.02816576351268E-0001	
 2.61050000000000E+0003	 1.03030409490827E-0001	
 2.61250000000000E+0003	 1.03245242630385E-0001	
 2.61450000000000E+0003	 1.03463075769944E-0001	
 2.61650000000000E+0003	 1.03682408909503E-0001	
 2.61850000000000E+0003	 1.03898242049062E-0001	
 2.62050000000000E+0003	 1.04116575188621E-0001	
 2.62250000000000E+0003	 1.04342908328180E-0001	
 2.62450000000000E+0003	 1.04578241467739E-0001	
 2.62650000000000E+0003	 1.04806074607297E-0001	
 2.62850000000000E+0003	 1.05037407746856E-0001	
 2.63050000000000E+0003	 1.05273240886415E-0001	
 2.63250000000000E+0003	 1.05516074025974E-0001	
 2.63450000000000E+0003	 1.05750407165533E-0001	
 2.63650000000000E+0003	 1.05988740305092E-0001	
 2.63850000000000E+0003	 1.06225073444651E-0001	
 2.64050000000000E+0003	 1.06466906584209E-0001	
 2.64250000000000E+0003	 1.06703239723768E-0001	
 2.64450000000000E+0003	 1.06946572863327E-0001	
 2.64650000000000E+0003	 1.07187406002886E-0001	
 2.64850000000000E+0003	 1.07433239142445E-0001	
 2.65050000000000E+0003	 1.07675072282004E-0001	
 2.65250000000000E+0003	 1.07914905421563E-0001	
 2.65450000000000E+0003	 1.08157238561121E-0001	
 2.65650000000000E+0003	 1.08403571700680E-0001	
 2.65850000000000E+0003	 1.08650904840239E-0001	
 2.66050000000000E+0003	 1.08890237979798E-0001	
 2.66250000000000E+0003	 1.09133071119357E-0001	
 2.66450000000000E+0003	 1.09374404258916E-0001	
 2.66650000000000E+0003	 1.09621237398475E-0001	
 2.66850000000000E+0003	 1.09861070538033E-0001	
 2.67050000000000E+0003	 1.10108403677592E-0001	
 2.67250000000000E+0003	 1.10354236817151E-0001	
 2.67450000000000E+0003	 1.10606069956710E-0001	
 2.67650000000000E+0003	 1.10845403096269E-0001	
 2.67850000000000E+0003	 1.11092236235828E-0001	
 2.68050000000000E+0003	 1.11331569375387E-0001	
 2.68250000000000E+0003	 1.11566402514945E-0001	
 2.68450000000000E+0003	 1.11794735654504E-0001	
 2.68650000000000E+0003	 1.12031068794063E-0001	
 2.68850000000000E+0003	 1.12266401933622E-0001	
 2.69050000000000E+0003	 1.12502235073181E-0001	
 2.69250000000000E+0003	 1.12742068212740E-0001	
 2.69450000000000E+0003	 1.12974901352298E-0001	
 2.69650000000000E+0003	 1.13214734491857E-0001	
 2.69850000000000E+0003	 1.13457567631416E-0001	
 2.70050000000000E+0003	 1.13713900770975E-0001	
 2.70250000000000E+0003	 1.13961733910534E-0001	
 2.70450000000000E+0003	 1.14224067050093E-0001	
 2.70650000000000E+0003	 1.14489900189652E-0001	
 2.70850000000000E+0003	 1.14772733329210E-0001	
 2.71050000000000E+0003	 1.15051566468769E-0001	
 2.71250000000000E+0003	 1.15343899608328E-0001	
 2.71450000000000E+0003	 1.15637232747887E-0001	
 2.71650000000000E+0003	 1.15949065887446E-0001	
 2.71850000000000E+0003	 1.16255899027005E-0001	
 2.72050000000000E+0003	 1.16570232166564E-0001	
 2.72250000000000E+0003	 1.16889065306122E-0001	
 2.72450000000000E+0003	 1.17209898445681E-0001	
 2.72650000000000E+0003	 1.17530231585240E-0001	
 2.72850000000000E+0003	 1.17842064724799E-0001	
 2.73050000000000E+0003	 1.18144397864358E-0001	
 2.73250000000000E+0003	 1.18440731003917E-0001	
 2.73450000000000E+0003	 1.18740564143476E-0001	
 2.73650000000000E+0003	 1.19032897283034E-0001	
 2.73850000000000E+0003	 1.19330230422593E-0001	
 2.74050000000000E+0003	 1.19613063562152E-0001	
 2.74250000000000E+0003	 1.19900896701711E-0001	
 2.74450000000000E+0003	 1.20172229841270E-0001	
 2.74650000000000E+0003	 1.20463062980829E-0001	
 2.74850000000000E+0003	 1.20749896120388E-0001	
 2.75050000000000E+0003	 1.21042229259946E-0001	
 2.75250000000000E+0003	 1.21324562399505E-0001	
 2.75450000000000E+0003	 1.21625895539064E-0001	
 2.75650000000000E+0003	 1.21931728678623E-0001	
 2.75850000000000E+0003	 1.22248061818182E-0001	
 2.76050000000000E+0003	 1.22570394957741E-0001	
 2.76250000000000E+0003	 1.22901728097300E-0001	
 2.76450000000000E+0003	 1.23237061236858E-0001	
 2.76650000000000E+0003	 1.23576894376417E-0001	
 2.76850000000000E+0003	 1.23928727515976E-0001	
 2.77050000000000E+0003	 1.24279560655535E-0001	
 2.77250000000000E+0003	 1.24645893795094E-0001	
 2.77450000000000E+0003	 1.25020226934653E-0001	
 2.77650000000000E+0003	 1.25402560074212E-0001	
 2.77850000000000E+0003	 1.25764393213770E-0001	
 2.78050000000000E+0003	 1.26155726353329E-0001	
 2.78250000000000E+0003	 1.26551559492888E-0001	
 2.78450000000000E+0003	 1.26966892632447E-0001	
 2.78650000000000E+0003	 1.27381725772006E-0001	
 2.78850000000000E+0003	 1.27834558911565E-0001	
 2.79050000000000E+0003	 1.28282392051123E-0001	
 2.79250000000000E+0003	 1.28725225190682E-0001	
 2.79450000000000E+0003	 1.29169058330241E-0001	
 2.79650000000000E+0003	 1.29644391469800E-0001	
 2.79850000000000E+0003	 1.30133724609359E-0001	
 2.80050000000000E+0003	 1.30621057748918E-0001	
 2.80250000000000E+0003	 1.31105390888477E-0001	
 2.80450000000000E+0003	 1.31607724028035E-0001	
 2.80650000000000E+0003	 1.32128557167594E-0001	
 2.80850000000000E+0003	 1.32658890307153E-0001	
 2.81050000000000E+0003	 1.33213223446712E-0001	
 2.81250000000000E+0003	 1.33762556586271E-0001	
 2.81450000000000E+0003	 1.34330889725830E-0001	
 2.81650000000000E+0003	 1.34906722865389E-0001	
 2.81850000000000E+0003	 1.35516556004947E-0001	
 2.82050000000000E+0003	 1.36133389144506E-0001	
 2.82250000000000E+0003	 1.36789722284065E-0001	
 2.82450000000000E+0003	 1.37465555423624E-0001	
 2.82650000000000E+0003	 1.38176888563183E-0001	
 2.82850000000000E+0003	 1.38910721702742E-0001	
 2.83050000000000E+0003	 1.39708054842301E-0001	
 2.83250000000000E+0003	 1.40562887981859E-0001	
 2.83450000000000E+0003	 1.41493221121418E-0001	
 2.83650000000000E+0003	 1.42510054260977E-0001	
 2.83850000000000E+0003	 1.43668387400536E-0001	
 2.84050000000000E+0003	 1.44977720540095E-0001	
 2.84250000000000E+0003	 1.46510553679654E-0001	
 2.84450000000000E+0003	 1.48412886819213E-0001	
 2.84650000000000E+0003	 1.50708719958771E-0001	
 2.84850000000000E+0003	 1.53299053098330E-0001	
 2.85050000000000E+0003	 1.55878386237889E-0001	
 2.85250000000000E+0003	 1.58094719377448E-0001	
 2.85450000000000E+0003	 1.59638552517007E-0001	
 2.85650000000000E+0003	 1.60531885656566E-0001	
 2.85850000000000E+0003	 1.61032218796125E-0001	
 2.86050000000000E+0003	 1.61481051935683E-0001	
 2.86250000000000E+0003	 1.62070385075242E-0001	
 2.86450000000000E+0003	 1.62969718214801E-0001	
 2.86650000000000E+0003	 1.64178551354360E-0001	
 2.86850000000000E+0003	 1.65608884493919E-0001	
 2.87050000000000E+0003	 1.67109717633478E-0001	
 2.87250000000000E+0003	 1.68538550773036E-0001	
 2.87450000000000E+0003	 1.69644883912595E-0001	
 2.87650000000000E+0003	 1.70337717052154E-0001	
 2.87850000000000E+0003	 1.70771050191713E-0001	
 2.88050000000000E+0003	 1.71098383331272E-0001	
 2.88250000000000E+0003	 1.71418716470831E-0001	
 2.88450000000000E+0003	 1.71796549610390E-0001	
 2.88650000000000E+0003	 1.72282882749948E-0001	
 2.88850000000000E+0003	 1.72881715889507E-0001	
 2.89050000000000E+0003	 1.73604049029066E-0001	
 2.89250000000000E+0003	 1.74418382168625E-0001	
 2.89450000000000E+0003	 1.75342715308184E-0001	
 2.89650000000000E+0003	 1.76335548447743E-0001	
 2.89850000000000E+0003	 1.77389381587302E-0001	
 2.90050000000000E+0003	 1.78528714726860E-0001	
 2.90250000000000E+0003	 1.79824047866419E-0001	
 2.90450000000000E+0003	 1.81284881005978E-0001	
 2.90650000000000E+0003	 1.82951714145537E-0001	
 2.90850000000000E+0003	 1.84868547285096E-0001	
 2.91050000000000E+0003	 1.87092380424655E-0001	
 2.91250000000000E+0003	 1.89639713564214E-0001	
 2.91450000000000E+0003	 1.92439046703772E-0001	
 2.91650000000000E+0003	 1.95367379843331E-0001	
 2.91850000000000E+0003	 1.98305212982890E-0001	
 2.92050000000000E+0003	 2.01059546122449E-0001	
 2.92250000000000E+0003	 2.03420879262008E-0001	
 2.92450000000000E+0003	 2.05254712401567E-0001	
 2.92650000000000E+0003	 2.06515545541126E-0001	
 2.92850000000000E+0003	 2.07293878680684E-0001	
 2.93050000000000E+0003	 2.07597211820243E-0001	
 2.93250000000000E+0003	 2.07428044959802E-0001	
 2.93450000000000E+0003	 2.06843878099361E-0001	
 2.93650000000000E+0003	 2.05870211238920E-0001	
 2.93850000000000E+0003	 2.04487044378479E-0001	
 2.94050000000000E+0003	 2.02806377518038E-0001	
 2.94250000000000E+0003	 2.00999210657596E-0001	
 2.94450000000000E+0003	 1.99225543797155E-0001	
 2.94650000000000E+0003	 1.97590876936714E-0001	
 2.94850000000000E+0003	 1.96246710076273E-0001	
 2.95050000000000E+0003	 1.95345543215832E-0001	
 2.95250000000000E+0003	 1.94918876355391E-0001	
 2.95450000000000E+0003	 1.94763709494949E-0001	
 2.95650000000000E+0003	 1.94716542634508E-0001	
 2.95850000000000E+0003	 1.94641375774067E-0001	
 2.96050000000000E+0003	 1.94354708913626E-0001	
 2.96250000000000E+0003	 1.93749542053185E-0001	
 2.96450000000000E+0003	 1.92788375192744E-0001	
 2.96650000000000E+0003	 1.91581208332303E-0001	
 2.96850000000000E+0003	 1.90221041471861E-0001	
 2.97050000000000E+0003	 1.88644874611420E-0001	
 2.97250000000000E+0003	 1.86809207750979E-0001	
 2.97450000000000E+0003	 1.84949040890538E-0001	
 2.97650000000000E+0003	 1.83193874030097E-0001	
 2.97850000000000E+0003	 1.81587207169656E-0001	
 2.98050000000000E+0003	 1.80089040309215E-0001	
 2.98250000000000E+0003	 1.78651373448773E-0001	
 2.98450000000000E+0003	 1.77305706588332E-0001	
 2.98650000000000E+0003	 1.76111039727891E-0001	
 2.98850000000000E+0003	 1.75075872867450E-0001	
 2.99050000000000E+0003	 1.74220706007009E-0001	
 2.99250000000000E+0003	 1.73534539146568E-0001	
 2.99450000000000E+0003	 1.72958872286127E-0001	
 2.99650000000000E+0003	 1.72570705425685E-0001	
 2.99850000000000E+0003	 1.72379038565244E-0001	
 3.00050000000000E+0003	 1.72321371704803E-0001	
 3.00250000000000E+0003	 1.72405204844362E-0001	
 3.00450000000000E+0003	 1.72613037983921E-0001	
 3.00650000000000E+0003	 1.72883371123480E-0001	
 3.00850000000000E+0003	 1.73249704263039E-0001	
 3.01050000000000E+0003	 1.73745037402597E-0001	
 3.01250000000000E+0003	 1.74328370542156E-0001	
 3.01450000000000E+0003	 1.74924703681715E-0001	
 3.01650000000000E+0003	 1.75527536821274E-0001	
 3.01850000000000E+0003	 1.76179369960833E-0001	
 3.02050000000000E+0003	 1.76938203100392E-0001	
 3.02250000000000E+0003	 1.77818536239951E-0001	
 3.02450000000000E+0003	 1.78813869379509E-0001	
 3.02650000000000E+0003	 1.79836202519068E-0001	
 3.02850000000000E+0003	 1.80864035658627E-0001	
 3.03050000000000E+0003	 1.81921368798186E-0001	
 3.03250000000000E+0003	 1.83000201937745E-0001	
 3.03450000000000E+0003	 1.84089035077304E-0001	
 3.03650000000000E+0003	 1.85145368216863E-0001	
 3.03850000000000E+0003	 1.86224201356421E-0001	
 3.04050000000000E+0003	 1.87408034495980E-0001	
 3.04250000000000E+0003	 1.88641867635539E-0001	
 3.04450000000000E+0003	 1.89842700775098E-0001	
 3.04650000000000E+0003	 1.91031533914657E-0001	
 3.04850000000000E+0003	 1.92263867054216E-0001	
 3.05050000000000E+0003	 1.93576200193774E-0001	
 3.05250000000000E+0003	 1.94889533333333E-0001	
 3.05450000000000E+0003	 1.96191366472892E-0001	
 3.05650000000000E+0003	 1.97501699612451E-0001	
 3.05850000000000E+0003	 1.98777032752010E-0001	
 3.06050000000000E+0003	 1.99998865891569E-0001	
 3.06250000000000E+0003	 2.01190199031128E-0001	
 3.06450000000000E+0003	 2.02349532170686E-0001	
 3.06650000000000E+0003	 2.03488865310245E-0001	
 3.06850000000000E+0003	 2.04569198449804E-0001	
 3.07050000000000E+0003	 2.05569531589363E-0001	
 3.07250000000000E+0003	 2.06558864728922E-0001	
 3.07450000000000E+0003	 2.07559697868481E-0001	
 3.07650000000000E+0003	 2.08589531008040E-0001	
 3.07850000000000E+0003	 2.09628864147598E-0001	
 3.08050000000000E+0003	 2.10613197287157E-0001	
 3.08250000000000E+0003	 2.11554530426716E-0001	
 3.08450000000000E+0003	 2.12499363566275E-0001	
 3.08650000000000E+0003	 2.13409696705834E-0001	
 3.08850000000000E+0003	 2.14304529845393E-0001	
 3.09050000000000E+0003	 2.15206362984952E-0001	
 3.09250000000000E+0003	 2.16071696124510E-0001	
 3.09450000000000E+0003	 2.16923029264069E-0001	
 3.09650000000000E+0003	 2.17805862403628E-0001	
 3.09850000000000E+0003	 2.18718195543187E-0001	
 3.10050000000000E+0003	 2.19655528682746E-0001	
 3.10250000000000E+0003	 2.20590861822305E-0001	
 3.10450000000000E+0003	 2.21537694961864E-0001	
 3.10650000000000E+0003	 2.22539528101422E-0001	
 3.10850000000000E+0003	 2.23604361240981E-0001	
 3.11050000000000E+0003	 2.24662694380540E-0001	
 3.11250000000000E+0003	 2.25741027520099E-0001	
 3.11450000000000E+0003	 2.26935860659658E-0001	
 3.11650000000000E+0003	 2.28207693799217E-0001	
 3.11850000000000E+0003	 2.29471526938776E-0001	
 3.12050000000000E+0003	 2.30719360078334E-0001	
 3.12250000000000E+0003	 2.31943693217893E-0001	
 3.12450000000000E+0003	 2.33215526357452E-0001	
 3.12650000000000E+0003	 2.34591859497011E-0001	
 3.12850000000000E+0003	 2.36053692636570E-0001	
 3.13050000000000E+0003	 2.37541525776129E-0001	
 3.13250000000000E+0003	 2.39030858915687E-0001	
 3.13450000000000E+0003	 2.40572192055246E-0001	
 3.13650000000000E+0003	 2.42197025194805E-0001	
 3.13850000000000E+0003	 2.43898858334364E-0001	
 3.14050000000000E+0003	 2.45559691473923E-0001	
 3.14250000000000E+0003	 2.47175524613482E-0001	
 3.14450000000000E+0003	 2.48861857753041E-0001	
 3.14650000000000E+0003	 2.50636690892599E-0001	
 3.14850000000000E+0003	 2.52479024032158E-0001	
 3.15050000000000E+0003	 2.54432357171717E-0001	
 3.15250000000000E+0003	 2.56412190311276E-0001	
 3.15450000000000E+0003	 2.58272523450835E-0001	
 3.15650000000000E+0003	 2.60113856590394E-0001	
 3.15850000000000E+0003	 2.62051689729953E-0001	
 3.16050000000000E+0003	 2.64053022869511E-0001	
 3.16250000000000E+0003	 2.66096356009070E-0001	
 3.16450000000000E+0003	 2.68171689148629E-0001	
 3.16650000000000E+0003	 2.70264022288188E-0001	
 3.16850000000000E+0003	 2.72361855427747E-0001	
 3.17050000000000E+0003	 2.74467188567306E-0001	
 3.17250000000000E+0003	 2.76590021706865E-0001	
 3.17450000000000E+0003	 2.78719354846423E-0001	
 3.17650000000000E+0003	 2.80844187985982E-0001	
 3.17850000000000E+0003	 2.82978521125541E-0001	
 3.18050000000000E+0003	 2.85120354265100E-0001	
 3.18250000000000E+0003	 2.87243187404659E-0001	
 3.18450000000000E+0003	 2.89353020544218E-0001	
 3.18650000000000E+0003	 2.91457353683777E-0001	
 3.18850000000000E+0003	 2.93557686823335E-0001	
 3.19050000000000E+0003	 2.95627019962894E-0001	
 3.19250000000000E+0003	 2.97666853102453E-0001	
 3.19450000000000E+0003	 2.99681186242012E-0001	
 3.19650000000000E+0003	 3.01684519381571E-0001	
 3.19850000000000E+0003	 3.03682352521130E-0001	
 3.20050000000000E+0003	 3.05665185660689E-0001	
 3.20250000000000E+0003	 3.07622518800247E-0001	
 3.20450000000000E+0003	 3.09565351939806E-0001	
 3.20650000000000E+0003	 3.11486685079365E-0001	
 3.20850000000000E+0003	 3.13384518218924E-0001	
 3.21050000000000E+0003	 3.15284351358483E-0001	
 3.21250000000000E+0003	 3.17193184498042E-0001	
 3.21450000000000E+0003	 3.19105017637600E-0001	
 3.21650000000000E+0003	 3.21006350777159E-0001	
 3.21850000000000E+0003	 3.22909183916718E-0001	
 3.22050000000000E+0003	 3.24804017056277E-0001	
 3.22250000000000E+0003	 3.26695350195836E-0001	
 3.22450000000000E+0003	 3.28601683335395E-0001	
 3.22650000000000E+0003	 3.30532016474954E-0001	
 3.22850000000000E+0003	 3.32490849614512E-0001	
 3.23050000000000E+0003	 3.34529682754071E-0001	
 3.23250000000000E+0003	 3.36650515893630E-0001	
 3.23450000000000E+0003	 3.38676849033189E-0001	
 3.23650000000000E+0003	 3.40597182172748E-0001	
 3.23850000000000E+0003	 3.42597515312307E-0001	
 3.24050000000000E+0003	 3.44695348451866E-0001	
 3.24250000000000E+0003	 3.46846681591424E-0001	
 3.24450000000000E+0003	 3.49072014730983E-0001	
 3.24650000000000E+0003	 3.51351347870542E-0001	
 3.24850000000000E+0003	 3.53575681010101E-0001	
 3.25050000000000E+0003	 3.55772014149660E-0001	
 3.25250000000000E+0003	 3.58045847289219E-0001	
 3.25450000000000E+0003	 3.60405680428778E-0001	
 3.25650000000000E+0003	 3.62776013568336E-0001	
 3.25850000000000E+0003	 3.65104846707895E-0001	
 3.26050000000000E+0003	 3.67443679847454E-0001	
 3.26250000000000E+0003	 3.69798512987013E-0001	
 3.26450000000000E+0003	 3.72146346126572E-0001	
 3.26650000000000E+0003	 3.74477679266131E-0001	
 3.26850000000000E+0003	 3.76823512405690E-0001	
 3.27050000000000E+0003	 3.79136845545248E-0001	
 3.27250000000000E+0003	 3.81295178684807E-0001	
 3.27450000000000E+0003	 3.83325011824366E-0001	
 3.27650000000000E+0003	 3.85304844963925E-0001	
 3.27850000000000E+0003	 3.87220678103484E-0001	
 3.28050000000000E+0003	 3.89069511243043E-0001	
 3.28250000000000E+0003	 3.90836344382602E-0001	
 3.28450000000000E+0003	 3.92518677522160E-0001	
 3.28650000000000E+0003	 3.94107510661719E-0001	
 3.28850000000000E+0003	 3.95620843801278E-0001	
 3.29050000000000E+0003	 3.97090676940837E-0001	
 3.29250000000000E+0003	 3.98477010080396E-0001	
 3.29450000000000E+0003	 3.99721343219955E-0001	
 3.29650000000000E+0003	 4.00855176359514E-0001	
 3.29850000000000E+0003	 4.01910509499072E-0001	
 3.30050000000000E+0003	 4.02914842638631E-0001	
 3.30250000000000E+0003	 4.03928175778190E-0001	
 3.30450000000000E+0003	 4.04965008917749E-0001	
 3.30650000000000E+0003	 4.05900342057308E-0001	
 3.30850000000000E+0003	 4.06678175196867E-0001	
 3.31050000000000E+0003	 4.07378508336425E-0001	
 3.31250000000000E+0003	 4.08079841475984E-0001	
 3.31450000000000E+0003	 4.08806674615543E-0001	
 3.31650000000000E+0003	 4.09538507755102E-0001	
 3.31850000000000E+0003	 4.10267840894661E-0001	
 3.32050000000000E+0003	 4.11003674034220E-0001	
 3.32250000000000E+0003	 4.11754507173779E-0001	
 3.32450000000000E+0003	 4.12535340313337E-0001	
 3.32650000000000E+0003	 4.13295673452896E-0001	
 3.32850000000000E+0003	 4.14018006592455E-0001	
 3.33050000000000E+0003	 4.14749839732014E-0001	
 3.33250000000000E+0003	 4.15517672871573E-0001	
 3.33450000000000E+0003	 4.16333006011132E-0001	
 3.33650000000000E+0003	 4.17230839150691E-0001	
 3.33850000000000E+0003	 4.18130672290249E-0001	
 3.34050000000000E+0003	 4.18949505429808E-0001	
 3.34250000000000E+0003	 4.19748338569367E-0001	
 3.34450000000000E+0003	 4.20554671708926E-0001	
 3.34650000000000E+0003	 4.21375004848485E-0001	
 3.34850000000000E+0003	 4.22301337988044E-0001	
 3.35050000000000E+0003	 4.23251671127603E-0001	
 3.35250000000000E+0003	 4.24049004267161E-0001	
 3.35450000000000E+0003	 4.24789337406720E-0001	
 3.35650000000000E+0003	 4.25612670546279E-0001	
 3.35850000000000E+0003	 4.26493003685838E-0001	
 3.36050000000000E+0003	 4.27371836825397E-0001	
 3.36250000000000E+0003	 4.28214169964956E-0001	
 3.36450000000000E+0003	 4.29115503104515E-0001	
 3.36650000000000E+0003	 4.30121336244073E-0001	
 3.36850000000000E+0003	 4.31078169383632E-0001	
 3.37050000000000E+0003	 4.31797502523191E-0001	
 3.37250000000000E+0003	 4.32377335662750E-0001	
 3.37450000000000E+0003	 4.33062668802309E-0001	
 3.37650000000000E+0003	 4.33841001941868E-0001	
 3.37850000000000E+0003	 4.34593335081427E-0001	
 3.38050000000000E+0003	 4.35300668220985E-0001	
 3.38250000000000E+0003	 4.35968501360544E-0001	
 3.38450000000000E+0003	 4.36640834500103E-0001	
 3.38650000000000E+0003	 4.37341667639662E-0001	
 3.38850000000000E+0003	 4.38135500779221E-0001	
 3.39050000000000E+0003	 4.39016833918780E-0001	
 3.39250000000000E+0003	 4.39698167058338E-0001	
 3.39450000000000E+0003	 4.40118500197897E-0001	
 3.39650000000000E+0003	 4.40633833337456E-0001	
 3.39850000000000E+0003	 4.41423166477015E-0001	
 3.40050000000000E+0003	 4.42167999616574E-0001	
 3.40250000000000E+0003	 4.42481332756133E-0001	
 3.40450000000000E+0003	 4.42623165895692E-0001	
 3.40650000000000E+0003	 4.42963499035250E-0001	
 3.40850000000000E+0003	 4.43419332174809E-0001	
 3.41050000000000E+0003	 4.43801665314368E-0001	
 3.41250000000000E+0003	 4.44098998453927E-0001	
 3.41450000000000E+0003	 4.44262331593486E-0001	
 3.41650000000000E+0003	 4.44347164733045E-0001	
 3.41850000000000E+0003	 4.44457997872604E-0001	
 3.42050000000000E+0003	 4.44570331012162E-0001	
 3.42250000000000E+0003	 4.44604664151721E-0001	
 3.42450000000000E+0003	 4.44600497291280E-0001	
 3.42650000000000E+0003	 4.44626330430839E-0001	
 3.42850000000000E+0003	 4.44665663570398E-0001	
 3.43050000000000E+0003	 4.44583996709957E-0001	
 3.43250000000000E+0003	 4.44434329849516E-0001	
 3.43450000000000E+0003	 4.44323162989074E-0001	
 3.43650000000000E+0003	 4.44035496128633E-0001	
 3.43850000000000E+0003	 4.43444829268192E-0001	
 3.44050000000000E+0003	 4.42777662407751E-0001	
 3.44250000000000E+0003	 4.42202995547310E-0001	
 3.44450000000000E+0003	 4.41679828686869E-0001	
 3.44650000000000E+0003	 4.41146661826428E-0001	
 3.44850000000000E+0003	 4.40534994965986E-0001	
 3.45050000000000E+0003	 4.39835328105545E-0001	
 3.45250000000000E+0003	 4.39119161245104E-0001	
 3.45450000000000E+0003	 4.38363494384663E-0001	
 3.45650000000000E+0003	 4.37594327524222E-0001	
 3.45850000000000E+0003	 4.36855660663781E-0001	
 3.46050000000000E+0003	 4.36017993803340E-0001	
 3.46250000000000E+0003	 4.35029826942898E-0001	
 3.46450000000000E+0003	 4.34173660082457E-0001	
 3.46650000000000E+0003	 4.33503493222016E-0001	
 3.46850000000000E+0003	 4.32602326361575E-0001	
 3.47050000000000E+0003	 4.31209159501134E-0001	
 3.47250000000000E+0003	 4.29683492640693E-0001	
 3.47450000000000E+0003	 4.28350825780251E-0001	
 3.47650000000000E+0003	 4.27193658919810E-0001	
 3.47850000000000E+0003	 4.26103992059369E-0001	
 3.48050000000000E+0003	 4.24804325198928E-0001	
 3.48250000000000E+0003	 4.23283658338487E-0001	
 3.48450000000000E+0003	 4.21885491478046E-0001	
 3.48650000000000E+0003	 4.20570324617605E-0001	
 3.48850000000000E+0003	 4.19120657757163E-0001	
 3.49050000000000E+0003	 4.17611490896722E-0001	
 3.49250000000000E+0003	 4.16176824036281E-0001	
 3.49450000000000E+0003	 4.14771657175840E-0001	
 3.49650000000000E+0003	 4.13328990315399E-0001	
 3.49850000000000E+0003	 4.11786823454958E-0001	
 3.50050000000000E+0003	 4.10253156594517E-0001	
 3.50250000000000E+0003	 4.08692489734075E-0001	
 3.50450000000000E+0003	 4.06893322873634E-0001	
 3.50650000000000E+0003	 4.05037156013193E-0001	
 3.50850000000000E+0003	 4.03306489152752E-0001	
 3.51050000000000E+0003	 4.01691822292311E-0001	
 3.51250000000000E+0003	 4.00169155431870E-0001	
 3.51450000000000E+0003	 3.98504488571429E-0001	
 3.51650000000000E+0003	 3.96641321710987E-0001	
 3.51850000000000E+0003	 3.94786654850546E-0001	
 3.52050000000000E+0003	 3.93048987990105E-0001	
 3.52250000000000E+0003	 3.91387821129664E-0001	
 3.52450000000000E+0003	 3.89515154269223E-0001	
 3.52650000000000E+0003	 3.87430987408782E-0001	
 3.52850000000000E+0003	 3.85440820548341E-0001	
 3.53050000000000E+0003	 3.83538653687899E-0001	
 3.53250000000000E+0003	 3.81683986827458E-0001	
 3.53450000000000E+0003	 3.79900819967017E-0001	
 3.53650000000000E+0003	 3.77997153106576E-0001	
 3.53850000000000E+0003	 3.75860486246135E-0001	
 3.54050000000000E+0003	 3.73817319385694E-0001	
 3.54250000000000E+0003	 3.71934652525253E-0001	
 3.54450000000000E+0003	 3.69885485664811E-0001	
 3.54650000000000E+0003	 3.67462318804370E-0001	
 3.54850000000000E+0003	 3.64995151943929E-0001	
 3.55050000000000E+0003	 3.62728485083488E-0001	
 3.55250000000000E+0003	 3.60429318223047E-0001	
 3.55450000000000E+0003	 3.58039151362606E-0001	
 3.55650000000000E+0003	 3.55712484502165E-0001	
 3.55850000000000E+0003	 3.53408317641723E-0001	
 3.56050000000000E+0003	 3.51047150781282E-0001	
 3.56250000000000E+0003	 3.48549983920841E-0001	
 3.56450000000000E+0003	 3.45910817060400E-0001	
 3.56650000000000E+0003	 3.43218650199959E-0001	
 3.56850000000000E+0003	 3.40684483339518E-0001	
 3.57050000000000E+0003	 3.38252316479076E-0001	
 3.57250000000000E+0003	 3.35703649618635E-0001	
 3.57450000000000E+0003	 3.33055982758194E-0001	
 3.57650000000000E+0003	 3.30406815897753E-0001	
 3.57850000000000E+0003	 3.27771649037312E-0001	
 3.58050000000000E+0003	 3.25173482176871E-0001	
 3.58250000000000E+0003	 3.22620315316430E-0001	
 3.58450000000000E+0003	 3.20019648455988E-0001	
 3.58650000000000E+0003	 3.17076981595547E-0001	
 3.58850000000000E+0003	 3.13876814735106E-0001	
 3.59050000000000E+0003	 3.10964147874665E-0001	
 3.59250000000000E+0003	 3.08271481014224E-0001	
 3.59450000000000E+0003	 3.05421314153783E-0001	
 3.59650000000000E+0003	 3.02541647293342E-0001	
 3.59850000000000E+0003	 2.99773480432900E-0001	
 3.60050000000000E+0003	 2.96937813572459E-0001	
 3.60250000000000E+0003	 2.94036146712018E-0001	
 3.60450000000000E+0003	 2.91151979851577E-0001	
 3.60650000000000E+0003	 2.88167312991136E-0001	
 3.60850000000000E+0003	 2.85069646130695E-0001	
 3.61050000000000E+0003	 2.82043479270254E-0001	
 3.61250000000000E+0003	 2.79152812409812E-0001	
 3.61450000000000E+0003	 2.76296145549371E-0001	
 3.61650000000000E+0003	 2.73472478688930E-0001	
 3.61850000000000E+0003	 2.70681311828489E-0001	
 3.62050000000000E+0003	 2.67803644968048E-0001	
 3.62250000000000E+0003	 2.64859978107607E-0001	
 3.62450000000000E+0003	 2.62034811247166E-0001	
 3.62650000000000E+0003	 2.59251644386724E-0001	
 3.62850000000000E+0003	 2.56259977526283E-0001	
 3.63050000000000E+0003	 2.53129310665842E-0001	
 3.63250000000000E+0003	 2.50311643805401E-0001	
 3.63450000000000E+0003	 2.47693476944960E-0001	
 3.63650000000000E+0003	 2.44941310084519E-0001	
 3.63850000000000E+0003	 2.42203143224078E-0001	
 3.64050000000000E+0003	 2.39452976363636E-0001	
 3.64250000000000E+0003	 2.36743809503195E-0001	
 3.64450000000000E+0003	 2.34103142642754E-0001	
 3.64650000000000E+0003	 2.31502975782313E-0001	
 3.64850000000000E+0003	 2.28871308921872E-0001	
 3.65050000000000E+0003	 2.26260642061431E-0001	
 3.65250000000000E+0003	 2.23715475200989E-0001	
 3.65450000000000E+0003	 2.21326808340548E-0001	
 3.65650000000000E+0003	 2.19027141480107E-0001	
 3.65850000000000E+0003	 2.16739974619666E-0001	
 3.66050000000000E+0003	 2.14534307759225E-0001	
 3.66250000000000E+0003	 2.12248640898784E-0001	
 3.66450000000000E+0003	 2.10008974038343E-0001	
 3.66650000000000E+0003	 2.07974307177901E-0001	
 3.66850000000000E+0003	 2.05975140317460E-0001	
 3.67050000000000E+0003	 2.03995473457019E-0001	
 3.67250000000000E+0003	 2.02097806596578E-0001	
 3.67450000000000E+0003	 2.00360139736137E-0001	
 3.67650000000000E+0003	 1.98617472875696E-0001	
 3.67850000000000E+0003	 1.96891806015255E-0001	
 3.68050000000000E+0003	 1.95418639154813E-0001	
 3.68250000000000E+0003	 1.93952972294372E-0001	
 3.68450000000000E+0003	 1.92633805433931E-0001	
 3.68650000000000E+0003	 1.91412638573490E-0001	
 3.68850000000000E+0003	 1.90241971713049E-0001	
 3.69050000000000E+0003	 1.88943804852608E-0001	
 3.69250000000000E+0003	 1.87617137992167E-0001	
 3.69450000000000E+0003	 1.86450471131725E-0001	
 3.69650000000000E+0003	 1.85396304271284E-0001	
 3.69850000000000E+0003	 1.84339637410843E-0001	
 3.70050000000000E+0003	 1.83324970550402E-0001	
 3.70250000000000E+0003	 1.82408803689961E-0001	
 3.70450000000000E+0003	 1.81501136829520E-0001	
 3.70650000000000E+0003	 1.80637469969079E-0001	
 3.70850000000000E+0003	 1.79809803108637E-0001	
 3.71050000000000E+0003	 1.78993636248196E-0001	
 3.71250000000000E+0003	 1.78232469387755E-0001	
 3.71450000000000E+0003	 1.77518302527314E-0001	
 3.71650000000000E+0003	 1.76860635666873E-0001	
 3.71850000000000E+0003	 1.76229968806432E-0001	
 3.72050000000000E+0003	 1.75571801945991E-0001	
 3.72250000000000E+0003	 1.74955635085549E-0001	
 3.72450000000000E+0003	 1.74331468225108E-0001	
 3.72650000000000E+0003	 1.73752301364667E-0001	
 3.72850000000000E+0003	 1.73200634504226E-0001	
 3.73050000000000E+0003	 1.72633467643785E-0001	
 3.73250000000000E+0003	 1.72167800783344E-0001	
 3.73450000000000E+0003	 1.71730133922902E-0001	
 3.73650000000000E+0003	 1.71335467062461E-0001	
 3.73850000000000E+0003	 1.70800800202020E-0001	
 3.74050000000000E+0003	 1.70340633341579E-0001	
 3.74250000000000E+0003	 1.69770466481138E-0001	
 3.74450000000000E+0003	 1.69237299620697E-0001	
 3.74650000000000E+0003	 1.68747132760256E-0001	
 3.74850000000000E+0003	 1.68293465899814E-0001	
 3.75050000000000E+0003	 1.67896299039373E-0001	
 3.75250000000000E+0003	 1.67539632178932E-0001	
 3.75450000000000E+0003	 1.67209465318491E-0001	
 3.75650000000000E+0003	 1.66889298458050E-0001	
 3.75850000000000E+0003	 1.66550631597609E-0001	
 3.76050000000000E+0003	 1.66238464737168E-0001	
 3.76250000000000E+0003	 1.65888297876726E-0001	
 3.76450000000000E+0003	 1.65543631016285E-0001	
 3.76650000000000E+0003	 1.65236964155844E-0001	
 3.76850000000000E+0003	 1.64880797295403E-0001	
 3.77050000000000E+0003	 1.64626630434962E-0001	
 3.77250000000000E+0003	 1.64324463574521E-0001	
 3.77450000000000E+0003	 1.64025296714080E-0001	
 3.77650000000000E+0003	 1.63735629853638E-0001	
 3.77850000000000E+0003	 1.63478462993197E-0001	
 3.78050000000000E+0003	 1.63246796132756E-0001	
 3.78250000000000E+0003	 1.62895629272315E-0001	
 3.78450000000000E+0003	 1.62598962411874E-0001	
 3.78650000000000E+0003	 1.62349295551433E-0001	
 3.78850000000000E+0003	 1.62116128690992E-0001	
 3.79050000000000E+0003	 1.61884461830550E-0001	
 3.79250000000000E+0003	 1.61628294970109E-0001	
 3.79450000000000E+0003	 1.61303628109668E-0001	
 3.79650000000000E+0003	 1.61076961249227E-0001	
 3.79850000000000E+0003	 1.60862794388786E-0001	
 3.80050000000000E+0003	 1.60583127528345E-0001	
 3.80250000000000E+0003	 1.60430960667904E-0001	
 3.80450000000000E+0003	 1.60139793807462E-0001	
 3.80650000000000E+0003	 1.59974626947021E-0001	
 3.80850000000000E+0003	 1.59813960086580E-0001	
 3.81050000000000E+0003	 1.59570793226139E-0001	
 3.81250000000000E+0003	 1.59403126365698E-0001	
 3.81450000000000E+0003	 1.59141959505257E-0001	
 3.81650000000000E+0003	 1.59004292644816E-0001	
 3.81850000000000E+0003	 1.58786125784374E-0001	
 3.82050000000000E+0003	 1.58656958923933E-0001	
 3.82250000000000E+0003	 1.58560292063492E-0001	
 3.82450000000000E+0003	 1.58251625203051E-0001	
 3.82650000000000E+0003	 1.58093458342610E-0001	
 3.82850000000000E+0003	 1.57925291482169E-0001	
 3.83050000000000E+0003	 1.57748624621727E-0001	
 3.83250000000000E+0003	 1.57662957761286E-0001	
 3.83450000000000E+0003	 1.57607790900845E-0001	
 3.83650000000000E+0003	 1.57489124040404E-0001	
 3.83850000000000E+0003	 1.57258957179963E-0001	
 3.84050000000000E+0003	 1.57026290319522E-0001	
 3.84250000000000E+0003	 1.56874123459081E-0001	
 3.84450000000000E+0003	 1.56792956598639E-0001	
 3.84650000000000E+0003	 1.56630789738198E-0001	
 3.84850000000000E+0003	 1.56460122877757E-0001	
 3.85050000000000E+0003	 1.56318956017316E-0001	
 3.85250000000000E+0003	 1.56236289156875E-0001	
 3.85450000000000E+0003	 1.56292622296434E-0001	
 3.85650000000000E+0003	 1.56047955435993E-0001	
 3.85850000000000E+0003	 1.55820788575551E-0001	
 3.86050000000000E+0003	 1.55684621715110E-0001	
 3.86250000000000E+0003	 1.55594954854669E-0001	
 3.86450000000000E+0003	 1.55548787994228E-0001	
 3.86650000000000E+0003	 1.55464121133787E-0001	
 3.86850000000000E+0003	 1.55268954273346E-0001	
 3.87050000000000E+0003	 1.55239287412905E-0001	
 3.87250000000000E+0003	 1.55087120552463E-0001	
 3.87450000000000E+0003	 1.55040453692022E-0001	
 3.87650000000000E+0003	 1.54939286831581E-0001	
 3.87850000000000E+0003	 1.54760619971140E-0001	
 3.88050000000000E+0003	 1.54724453110699E-0001	
 3.88250000000000E+0003	 1.54682286250258E-0001	
 3.88450000000000E+0003	 1.54589119389817E-0001	
 3.88650000000000E+0003	 1.54564952529375E-0001	
 3.88850000000000E+0003	 1.54414285668934E-0001	
 3.89050000000000E+0003	 1.54402118808493E-0001	
 3.89250000000000E+0003	 1.54396951948052E-0001	
 3.89450000000000E+0003	 1.54240285087611E-0001	
 3.89650000000000E+0003	 1.54110118227170E-0001	
 3.89850000000000E+0003	 1.54037951366729E-0001	
 3.90050000000000E+0003	 1.53940784506287E-0001	
 3.90250000000000E+0003	 1.53840117645846E-0001	
 3.90450000000000E+0003	 1.53917950785405E-0001	
 3.90650000000000E+0003	 1.53912783924964E-0001	
 3.90850000000000E+0003	 1.53805117064523E-0001	
 3.91050000000000E+0003	 1.53728950204082E-0001	
 3.91250000000000E+0003	 1.53675283343640E-0001	
 3.91450000000000E+0003	 1.53590116483199E-0001	
 3.91650000000000E+0003	 1.53515949622758E-0001	
 3.91850000000000E+0003	 1.53464782762317E-0001	
 3.92050000000000E+0003	 1.53456115901876E-0001	
 3.92250000000000E+0003	 1.53420949041435E-0001	
 3.92450000000000E+0003	 1.53410282180994E-0001	
 3.92650000000000E+0003	 1.53393115320552E-0001	
 3.92850000000000E+0003	 1.53317448460111E-0001	
 3.93050000000000E+0003	 1.53235781599670E-0001	
 3.93250000000000E+0003	 1.53174114739229E-0001	
 3.93450000000000E+0003	 1.53160947878788E-0001	
 3.93650000000000E+0003	 1.53135281018347E-0001	
 3.93850000000000E+0003	 1.53099614157906E-0001	
 3.94050000000000E+0003	 1.53028447297464E-0001	
 3.94250000000000E+0003	 1.52993780437023E-0001	
 3.94450000000000E+0003	 1.52942613576582E-0001	
 3.94650000000000E+0003	 1.52845446716141E-0001	
 3.94850000000000E+0003	 1.52797279855700E-0001	
 3.95050000000000E+0003	 1.52799612995259E-0001	
 3.95250000000000E+0003	 1.52789946134818E-0001	
 3.95450000000000E+0003	 1.52747779274376E-0001	
 3.95650000000000E+0003	 1.52696612413935E-0001	
 3.95850000000000E+0003	 1.52643945553494E-0001	
 3.96050000000000E+0003	 1.52581278693053E-0001	
 3.96250000000000E+0003	 1.52538111832612E-0001	
 3.96450000000000E+0003	 1.52509444972171E-0001	
 3.96650000000000E+0003	 1.52481278111730E-0001	
 3.96850000000000E+0003	 1.52444111251288E-0001	
 3.97050000000000E+0003	 1.52408444390847E-0001	
 3.97250000000000E+0003	 1.52368777530406E-0001	
 3.97450000000000E+0003	 1.52324610669965E-0001	
 3.97650000000000E+0003	 1.52287943809524E-0001	
 3.97850000000000E+0003	 1.52263776949083E-0001	
 3.98050000000000E+0003	 1.52242610088642E-0001	
 3.98250000000000E+0003	 1.52237443228200E-0001	
 3.98450000000000E+0003	 1.52221276367759E-0001	
 3.98650000000000E+0003	 1.52171609507318E-0001	
 3.98850000000000E+0003	 1.52103942646877E-0001	
 3.99050000000000E+0003	 1.52057275786436E-0001	
 3.99250000000000E+0003	 1.52023608925995E-0001	
 3.99450000000000E+0003	 1.52003942065553E-0001	
 3.99650000000000E+0003	 1.51933275205112E-0001	
 3.99850000000000E+0003	 1.51900608344671E-0001	

>1	DATALINE
